Data from test_V78500241_1288.txt Node
Date: Fri Mar 25 15:18:49 CST 2022
User: usil
Spectrometer: V785-0024
Trigger mode: 0
Integration Time (sec): 4.000000E-1
Scans to average: 1
Nonlinearity correction enabled: false
Boxcar width: 0
Storing dark spectrum: false
XAxis mode: Wavelengths
Number of Pixels in Spectrum: 1024
>>>>>Begin Spectral Data<<<<<
801.071	28242
801.214	28078
801.356	27994
801.499	27838
801.641	27641
801.783	27812
801.926	27857
802.068	27759
802.211	27576
802.353	27618
802.496	27386
802.638	27439
802.78	27397
802.923	27408
803.065	27336
803.208	27321
803.35	27523
803.492	27564
803.635	27549
803.777	27458
803.919	27663
804.061	27941
804.204	27736
804.346	27481
804.488	27633
804.63	27679
804.773	27526
804.915	27652
805.057	27804
805.199	27576
805.341	27785
805.483	27698
805.626	27770
805.768	27690
805.91	27663
806.052	27686
806.194	27545
806.336	27880
806.478	27800
806.62	27713
806.762	27724
806.904	27998
807.046	28097
807.188	28120
807.33	28238
807.472	28337
807.614	28200
807.756	28116
807.898	28105
808.04	27945
808.182	27998
808.324	28169
808.465	28051
808.607	28162
808.749	28367
808.891	28424
809.033	28767
809.174	28512
809.316	28295
809.458	28466
809.6	28489
809.741	28599
809.883	28409
810.025	28691
810.166	28854
810.308	28637
810.45	28630
810.591	28618
810.733	28310
810.875	28329
811.016	28394
811.158	28363
811.299	28527
811.441	28664
811.582	28622
811.724	28447
811.865	28382
812.007	28421
812.148	28440
812.29	28455
812.431	28649
812.573	28801
812.714	28854
812.855	28904
812.997	28923
813.138	29124
813.279	29159
813.421	28934
813.562	28866
813.703	28774
813.845	28713
813.986	28360
814.127	28234
814.268	28261
814.41	28147
814.551	28078
814.692	28196
814.833	28036
814.974	28029
815.115	28246
815.256	27812
815.397	28021
815.539	27831
815.68	27945
815.821	27819
815.962	28067
816.103	27880
816.244	27869
816.385	27720
816.526	27686
816.666	27485
816.807	27424
816.948	27450
817.089	27580
817.23	27492
817.371	27355
817.512	27454
817.653	27397
817.793	27427
817.934	27481
818.075	27405
818.216	27481
818.356	27515
818.497	27165
818.638	27203
818.778	27157
818.919	27157
819.06	27230
819.2	27389
819.341	27374
819.481	27469
819.622	27492
819.762	27709
819.903	27606
820.043	27728
820.184	27553
820.324	27625
820.465	27743
820.605	27408
820.746	27564
820.886	27340
821.026	27576
821.167	27492
821.307	27591
821.447	27431
821.588	27386
821.728	27275
821.868	27108
822.008	27058
822.149	27039
822.289	27028
822.429	26834
822.569	26625
822.709	26613
822.849	26389
822.99	26571
823.13	26473
823.27	26465
823.41	26221
823.55	26012
823.69	26313
823.83	26256
823.97	26126
824.11	26020
824.25	26073
824.389	25970
824.529	26233
824.669	26115
824.809	26119
824.949	26062
825.089	26115
825.228	26050
825.368	25974
825.508	25830
825.648	25890
825.787	26073
825.927	25986
826.067	25993
826.206	25955
826.346	26081
826.485	25993
826.625	25982
826.765	26115
826.904	25909
827.044	25655
827.183	25597
827.323	25734
827.462	25780
827.601	25708
827.741	25662
827.88	25814
828.02	25662
828.159	25586
828.298	25769
828.437	25719
828.577	25643
828.716	25731
828.855	25605
828.994	25324
829.134	25407
829.273	25453
829.412	25373
829.551	25282
829.69	25419
829.829	25346
829.968	25460
830.107	25339
830.246	25373
830.385	25358
830.524	25259
830.663	25145
830.802	25034
830.941	25050
831.08	24985
831.219	25141
831.357	25088
831.496	25221
831.635	25076
831.774	24875
831.913	24935
832.051	24810
832.19	24764
832.329	24856
832.467	24817
832.606	24627
832.744	24722
832.883	24623
833.022	24589
833.16	24642
833.299	24707
833.437	24749
833.576	24829
833.714	24760
833.852	24677
833.991	24783
834.129	24791
834.267	24722
834.406	24833
834.544	24696
834.682	24817
834.821	24597
834.959	24992
835.097	24825
835.235	24658
835.373	24741
835.511	24738
835.65	24502
835.788	24681
835.926	24555
836.064	24365
836.202	24433
836.34	24578
836.478	24635
836.615	24414
836.753	24505
836.891	24684
837.029	24627
837.167	24391
837.305	24456
837.443	24414
837.58	24479
837.718	24494
837.856	24418
837.993	24346
838.131	24407
838.269	24174
838.406	24273
838.544	24163
838.681	24038
838.819	23996
838.956	23927
839.094	23859
839.231	23923
839.369	24102
839.506	24327
839.643	24060
839.781	23992
839.918	23767
840.055	24038
840.193	23878
840.33	23798
840.467	23851
840.604	23767
840.742	24083
840.879	23558
841.016	23703
841.153	23627
841.29	23870
841.427	23676
841.564	23775
841.701	23695
841.838	23703
841.975	23596
842.112	23680
842.249	23608
842.385	23551
842.522	23676
842.659	23638
842.796	23429
842.933	23577
843.069	23425
843.206	23577
843.343	23680
843.479	23562
843.616	23592
843.752	23345
843.889	23334
844.025	23531
844.162	23265
844.298	23444
844.435	23398
844.571	23242
844.708	23387
844.844	23493
844.98	23505
845.117	23531
845.253	23330
845.389	23102
845.525	23246
845.661	23090
845.798	23041
845.934	23193
846.07	23003
846.206	23121
846.342	23220
846.478	22984
846.614	22873
846.75	22771
846.886	22736
847.022	22968
847.158	22847
847.294	22824
847.429	22717
847.565	22645
847.701	22942
847.837	22413
847.972	22421
848.108	22603
848.244	22577
848.379	22451
848.515	22295
848.65	22367
848.786	22409
848.921	22489
849.057	22538
849.192	22409
849.328	22402
849.463	22409
849.598	22265
849.734	22181
849.869	22265
850.004	22093
850.14	22101
850.275	22036
850.41	22143
850.545	22101
850.68	22120
850.815	22154
850.95	22185
851.085	22402
851.22	22261
851.355	22116
851.49	22147
851.625	22177
851.76	22048
851.895	22032
852.03	22013
852.165	22006
852.299	22044
852.434	22063
852.569	22207
852.703	22017
852.838	22139
852.973	22325
853.107	22314
853.242	22070
853.376	21979
853.511	21994
853.645	21983
853.78	21930
853.914	22013
854.048	21918
854.183	21846
854.317	22097
854.451	22181
854.585	21968
854.72	21907
854.854	22017
854.988	21884
855.122	21972
855.256	21816
855.39	21956
855.524	22013
855.658	22051
855.792	21979
855.926	22029
856.06	21987
856.194	22162
856.327	21953
856.461	21926
856.595	21876
856.729	22021
856.862	22067
856.996	21975
857.13	22021
857.263	21994
857.397	21998
857.53	21987
857.664	22025
857.797	21907
857.931	22059
858.064	21918
858.197	21937
858.331	21865
858.464	21861
858.597	21808
858.731	21800
858.864	21949
858.997	21876
859.13	21937
859.263	21880
859.396	21991
859.529	21926
859.662	21838
859.795	21747
859.928	21964
860.061	22109
860.194	22169
860.327	21934
860.46	22006
860.592	22051
860.725	22135
860.858	21987
860.99	21998
861.123	21949
861.256	21918
861.388	21888
861.521	22603
861.653	21888
861.786	21770
861.918	21717
862.05	21797
862.183	21911
862.315	21774
862.447	21968
862.58	21850
862.712	21648
862.844	21671
862.976	21732
863.108	21705
863.24	22051
863.372	21564
863.504	21732
863.636	21561
863.768	21519
863.9	21728
864.032	21526
864.164	21606
864.296	21663
864.428	21724
864.559	21785
864.691	21762
864.823	21549
864.954	21656
865.086	21671
865.217	21538
865.349	21416
865.48	21549
865.612	21641
865.743	21694
865.875	21568
866.006	21504
866.137	21504
866.269	21595
866.4	21443
866.531	21447
866.662	21374
866.793	21450
866.924	21439
867.055	21473
867.186	21431
867.317	21473
867.448	21363
867.579	21538
867.71	21378
867.841	21420
867.972	21462
868.103	21317
868.233	21496
868.364	21473
868.495	21557
868.625	21804
868.756	21736
868.886	21644
869.017	21713
869.147	21827
869.278	21778
869.408	21800
869.539	21759
869.669	21812
869.799	21660
869.929	21857
870.06	21911
870.19	22006
870.32	21972
870.45	21983
870.58	22010
870.71	22116
870.84	22124
870.97	22135
871.1	22044
871.23	22337
871.36	22352
871.489	22204
871.619	22284
871.749	22253
871.879	22318
872.008	22333
872.138	22363
872.267	22276
872.397	22124
872.526	22097
872.656	22097
872.785	22051
872.915	22284
873.044	22478
873.173	22322
873.303	22451
873.432	22344
873.561	22352
873.69	22451
873.819	22253
873.948	22462
874.077	22322
874.206	22242
874.335	22291
874.464	22405
874.593	22607
874.722	22432
874.851	22611
874.979	22645
875.108	22421
875.237	22443
875.365	22424
875.494	22455
875.623	22694
875.751	22432
875.88	22485
876.008	22573
876.136	22653
876.265	22976
876.393	22972
876.521	22965
876.65	22965
876.778	22904
876.906	22812
877.034	22915
877.162	22942
877.29	22763
877.418	22866
877.546	22873
877.674	22889
877.802	22831
877.93	22748
878.058	22805
878.185	22736
878.313	22862
878.441	22824
878.568	22675
878.696	22801
878.824	22949
878.951	22965
879.079	22942
879.206	23071
879.333	22972
879.461	22797
879.588	23010
879.715	23140
879.842	23189
879.97	22835
880.097	22713
880.224	22767
880.351	22748
880.478	22702
880.605	22626
880.732	22710
880.859	22900
880.986	22706
881.112	22733
881.239	22592
881.366	22390
881.493	22234
881.619	22272
881.746	22276
881.872	22246
881.999	22268
882.125	22249
882.252	22261
882.378	22234
882.505	22386
882.631	22086
882.757	21926
882.883	22025
883.01	21926
883.136	21793
883.262	21755
883.388	21816
883.514	21880
883.64	22078
883.766	21812
883.892	21625
884.018	21701
884.143	21888
884.269	21892
884.395	21679
884.52	21580
884.646	21504
884.772	21538
884.897	21439
885.023	21553
885.148	21637
885.274	21694
885.399	21701
885.524	21644
885.65	21561
885.775	21629
885.9	21424
886.025	21644
886.15	21694
886.275	21435
886.4	21526
886.525	21595
886.65	21583
886.775	21534
886.9	21644
887.025	21747
887.149	21466
887.274	21336
887.399	21302
887.523	21325
887.648	21287
887.773	21264
887.897	21458
888.021	21306
888.146	21355
888.27	21367
888.395	21447
888.519	21416
888.643	21340
888.767	21321
888.891	21230
889.015	21252
889.139	21264
889.263	21096
889.387	21218
889.511	21443
889.635	21169
889.759	21176
889.883	21066
890.006	21192
890.13	21108
890.254	21051
890.377	21043
890.501	20781
890.624	20918
890.748	21062
890.871	20743
890.995	20754
891.118	20621
891.241	20853
891.364	20708
891.488	20743
891.611	20613
891.734	20686
891.857	20724
891.98	20655
892.103	20655
892.226	20773
892.349	20640
892.471	20385
892.594	20674
892.717	20556
892.839	20476
892.962	20636
893.085	20659
893.207	20499
893.33	20511
893.452	20526
893.575	20640
893.697	20495
893.819	20716
893.941	20705
894.064	20743
894.186	20518
894.308	20484
894.43	20629
894.552	20686
894.674	20663
894.796	20442
894.918	20450
895.04	20644
895.161	20663
895.283	20625
895.405	20533
895.526	20549
895.648	20457
895.769	20575
895.891	20450
896.012	20625
896.134	20606
896.255	20560
896.376	20518
896.498	20476
896.619	20613
896.74	20495
896.861	20667
896.982	20788
897.103	20960
897.224	20777
897.345	20864
897.466	20648
897.587	20765
897.708	20887
897.828	20861
897.949	20811
898.07	20621
898.19	20667
898.311	20754
898.431	20590
898.552	20804
898.672	20758
898.792	20834
898.913	20746
899.033	20750
899.153	20454
899.273	20476
899.393	20545
899.513	20571
899.633	20514
899.753	20697
899.873	20476
899.993	20537
900.113	20374
900.232	20518
900.352	20423
900.472	20415
900.591	20244
900.711	20336
900.83	20176
900.95	20313
901.069	20385
901.189	20161
901.308	20020
901.427	19978
901.546	19795
901.665	19841
901.784	19753
901.904	19731
902.023	19605
902.141	19453
902.26	19419
902.379	19491
902.498	19472
902.617	19384
902.735	19362
902.854	19362
902.973	19274
903.091	19122
903.21	19088
903.328	19015
903.446	18886
903.565	18795
903.683	18768
903.801	18719
903.919	18806
904.038	18806
904.156	18612
904.274	18635
904.392	18608
904.51	18646
904.627	18509
904.745	18582
904.863	18604
904.981	18448
905.098	18262
905.216	18220
905.334	18376
905.451	18270
905.569	18285
905.686	18220
905.803	18304
905.921	18026
906.038	18235
906.155	18072
906.272	17984
906.389	17996
906.506	17828
906.623	17748
906.74	17828
906.857	17672
906.974	17798
907.091	17897
907.208	17851
907.324	17874
907.441	17623
907.557	17459
907.674	17448
907.79	17391
907.907	17486
908.023	17520
908.139	17497
908.256	17364
908.372	17440
908.488	17391
908.604	17265
908.72	17208
908.836	17273
908.952	17227
909.068	17075
909.184	17250
909.3	17250
909.415	17166
909.531	17254
909.647	17025
909.762	16900
909.878	16965
909.993	16953
910.108	16953
910.224	16915
910.339	16953
910.454	16885
910.57	16812
910.685	16736
910.8	16866
910.915	16835
911.03	16801
911.145	16546
911.259	16611
911.374	16569
911.489	16596
911.604	16333
911.718	16207
911.833	16280
911.947	16207
912.062	16093
912.176	16192
912.291	16257
912.405	16333
912.519	16466
912.633	16455
912.748	16310
912.862	16299
912.976	16086
913.09	15949
913.204	16097
913.318	16105
913.431	16188
913.545	16063
913.659	16109
913.772	15972
913.886	15899
914	15869
914.113	15884
914.226	15956
914.34	15846
914.453	15755
914.566	15827
914.68	15720
914.793	15785
914.906	15488
915.019	15420
915.132	15481
915.245	15511
915.358	15492
915.47	15523
915.583	15382
915.696	15488
915.809	15561
915.921	15530
916.034	15431
916.146	15382
916.259	15294
916.371	15462
916.483	15405
916.595	15268
916.708	15336
916.82	15310
916.932	15214
917.044	15207
917.156	15241
917.268	15089
917.38	15123
917.491	15100
917.603	15062
917.715	15097
917.826	15142
917.938	15043
918.049	14941
918.161	15017
918.272	15135
918.384	15161
918.495	15066
918.606	14941
918.717	14845
918.828	14895
918.939	14883
919.05	14731
919.161	14807
919.272	14705
919.383	14663
919.494	14800
919.604	15116
919.715	14807
919.826	14689
919.936	14777
920.047	14857
920.157	14880
920.267	15047
920.378	14788
920.488	14864
920.598	15024
920.708	15066
920.818	14823
920.928	14910
921.038	15169
921.148	15062
921.258	14754
921.368	14640
921.477	14571
921.587	14507
921.697	14377
921.806	14533
921.916	14347
922.025	14286
922.134	14187
922.244	14199
922.353	14252
922.462	14073
922.571	13936
922.68	13868
922.789	13826
922.898	13772
923.007	13765
923.116	13803
923.224	13944
923.333	13807
923.442	13658
923.55	13666
923.659	13689
923.767	13636
923.876	13567
923.984	13613
924.092	13537
924.201	13636
924.309	13563
924.417	13495
924.525	13457
924.633	13502
924.741	14465
924.849	13377
924.956	13384
925.064	13221
925.172	13149
925.279	13228
925.387	13209
925.494	13240
925.602	13369
925.709	13194
925.816	13107
925.924	13194
926.031	13194
926.138	13099
926.245	13225
926.352	13065
926.459	13225
926.566	13217
926.673	13187
926.779	12890
926.886	12954
926.993	12863
927.099	12722
927.206	12749
927.312	12631
927.419	12821
927.525	12662
927.631	12863
927.737	12684
927.843	12566
927.95	12448
928.056	12642
928.162	12608
928.267	12585
928.373	13282
928.479	12707
928.585	12445
928.69	12642
928.796	12635
928.901	12437
929.007	12338
929.112	12456
929.218	12426
929.323	12292
929.428	12281
929.533	12399
929.638	12311
929.743	12338
929.848	12296
929.953	12304
930.058	12098
930.163	12026
930.267	12106
930.372	12129
930.477	11965
930.581	12194
930.685	12057
930.79	11882
930.894	11790
930.998	11824
931.103	11965
931.207	11604
931.311	11596
931.415	11391
931.519	11239
931.623	11197
