Data from test_V78500241_1116.txt Node
Date: Fri Mar 25 15:17:37 CST 2022
User: usil
Spectrometer: V785-0024
Trigger mode: 0
Integration Time (sec): 4.000000E-1
Scans to average: 1
Nonlinearity correction enabled: false
Boxcar width: 0
Storing dark spectrum: false
XAxis mode: Wavelengths
Number of Pixels in Spectrum: 1024
>>>>>Begin Spectral Data<<<<<
801.071	28261
801.214	28109
801.356	27793
801.499	27732
801.641	27587
801.783	27610
801.926	27804
802.068	27823
802.211	27538
802.353	27507
802.496	27412
802.638	27291
802.78	27317
802.923	27355
803.065	27074
803.208	27188
803.35	27230
803.492	27389
803.635	27492
803.777	27542
803.919	27507
804.061	27701
804.204	27629
804.346	27458
804.488	27393
804.63	27576
804.773	27321
804.915	27507
805.057	27587
805.199	27652
805.341	27618
805.483	27789
805.626	27671
805.768	27519
805.91	27701
806.052	27648
806.194	27485
806.336	27827
806.478	27679
806.62	27713
806.762	27789
806.904	27865
807.046	28021
807.188	28086
807.33	28017
807.472	28112
807.614	27914
807.756	28082
807.898	27968
808.04	28010
808.182	27945
808.324	27903
808.465	27911
808.607	28124
808.749	28253
808.891	28352
809.033	28401
809.174	28363
809.316	28200
809.458	28341
809.6	28299
809.741	28428
809.883	28360
810.025	28611
810.166	28596
810.308	28550
810.45	28459
810.591	28432
810.733	28341
810.875	28276
811.016	28188
811.158	28314
811.299	28489
811.441	28447
811.582	28375
811.724	28295
811.865	28246
812.007	28215
812.148	28325
812.29	28261
812.431	28527
812.573	28637
812.714	28763
812.855	28630
812.997	28748
813.138	28900
813.279	28991
813.421	28930
813.562	28778
813.703	28645
813.845	28542
813.986	28344
814.127	28207
814.268	27953
814.41	28173
814.551	27934
814.692	28025
814.833	27926
814.974	28010
815.115	27960
815.256	27888
815.397	27854
815.539	27937
815.68	27705
815.821	27724
815.962	27854
816.103	27789
816.244	27660
816.385	27553
816.526	27507
816.666	27355
816.807	27317
816.948	27424
817.089	27458
817.23	27302
817.371	27214
817.512	27435
817.653	27306
817.793	27329
817.934	27233
818.075	27211
818.216	27485
818.356	27214
818.497	27218
818.638	26910
818.778	27058
818.919	27127
819.06	27093
819.2	27272
819.341	27370
819.481	27302
819.622	27568
819.762	27751
819.903	27534
820.043	27393
820.184	27420
820.324	27469
820.465	27530
820.605	27488
820.746	27336
820.886	27306
821.026	27481
821.167	27378
821.307	27599
821.447	27439
821.588	27332
821.728	27096
821.868	26960
822.008	26785
822.149	26807
822.289	26868
822.429	26484
822.569	26465
822.709	26427
822.849	26286
822.99	26415
823.13	26374
823.27	26339
823.41	26119
823.55	26229
823.69	26225
823.83	26043
823.97	26138
824.11	26069
824.25	25921
824.389	25955
824.529	26046
824.669	25860
824.809	26088
824.949	26130
825.089	26122
825.228	25963
825.368	25852
825.508	25856
825.648	25818
825.787	25921
825.927	25974
826.067	25772
826.206	25860
826.346	25746
826.485	26012
826.625	25947
826.765	25970
826.904	25898
827.044	25670
827.183	25712
827.323	25609
827.462	25525
827.601	25518
827.741	25434
827.88	25457
828.02	25426
828.159	25594
828.298	25624
828.437	25605
828.577	25563
828.716	25666
828.855	25457
828.994	25324
829.134	25293
829.273	25232
829.412	25110
829.551	25236
829.69	25422
829.829	25304
829.968	25369
830.107	25362
830.246	25228
830.385	25232
830.524	25228
830.663	25034
830.802	25072
830.941	24798
831.08	24890
831.219	25015
831.357	25046
831.496	25053
831.635	24920
831.774	24859
831.913	24669
832.051	24798
832.19	24745
832.329	24734
832.467	24665
832.606	24505
832.744	24566
832.883	24646
833.022	24601
833.16	24589
833.299	24700
833.437	24616
833.576	24760
833.714	24658
833.852	24719
833.991	24749
834.129	24840
834.267	24951
834.406	24745
834.544	24700
834.682	24734
834.821	24684
834.959	24787
835.097	24616
835.235	24791
835.373	24658
835.511	24673
835.65	24593
835.788	24456
835.926	24289
836.064	24422
836.202	24315
836.34	24521
836.478	24483
836.615	24479
836.753	24513
836.891	24654
837.029	24452
837.167	24635
837.305	24433
837.443	24441
837.58	24399
837.718	24403
837.856	24445
837.993	24445
838.131	24418
838.269	24201
838.406	24319
838.544	24064
838.681	24045
838.819	24053
838.956	23885
839.094	23847
839.231	24022
839.369	24049
839.506	24213
839.643	23920
839.781	23836
839.918	23859
840.055	23817
840.193	23764
840.33	23764
840.467	23733
840.604	23855
840.742	24060
840.879	23562
841.016	23733
841.153	23695
841.29	23847
841.427	23828
841.564	23840
841.701	23843
841.838	23653
841.975	23630
842.112	23585
842.249	23589
842.385	23570
842.522	23615
842.659	23531
842.796	23474
842.933	23592
843.069	23512
843.206	23368
843.343	23554
843.479	23471
843.616	23661
843.752	23284
843.889	23326
844.025	23497
844.162	23242
844.298	23334
844.435	23277
844.571	23315
844.708	23398
844.844	23376
844.98	23436
845.117	23398
845.253	23254
845.389	23094
845.525	23239
845.661	23075
845.798	22999
845.934	22980
846.07	23086
846.206	22961
846.342	23136
846.478	22946
846.614	22816
846.75	22763
846.886	22675
847.022	22927
847.158	22717
847.294	22733
847.429	22881
847.565	22793
847.701	22850
847.837	22573
847.972	22508
848.108	22504
848.244	22470
848.379	22417
848.515	22322
848.65	22424
848.786	22341
848.921	22276
849.057	22371
849.192	22436
849.328	22363
849.463	22382
849.598	22272
849.734	22200
849.869	22166
850.004	22169
850.14	22135
850.275	22109
850.41	22029
850.545	22055
850.68	22055
850.815	22207
850.95	22097
851.085	22348
851.22	22295
851.355	22169
851.49	22150
851.625	21994
851.76	22044
851.895	22055
852.03	21968
852.165	22128
852.299	22150
852.434	22181
852.569	22067
852.703	22105
852.838	22226
852.973	22257
853.107	22234
853.242	22029
853.376	22036
853.511	21880
853.645	21835
853.78	22010
853.914	21979
854.048	21873
854.183	21975
854.317	21770
854.451	22147
854.585	21964
854.72	21899
854.854	21983
854.988	21930
855.122	22002
855.256	21789
855.39	21911
855.524	21930
855.658	21968
855.792	21865
855.926	22002
856.06	21903
856.194	21945
856.327	21895
856.461	21895
856.595	21895
856.729	21857
856.862	22063
856.996	21953
857.13	21895
857.263	22036
857.397	22131
857.53	21876
857.664	21998
857.797	21983
857.931	21930
858.064	21854
858.197	21991
858.331	21800
858.464	21835
858.597	21739
858.731	21873
858.864	22029
858.997	21911
859.13	21956
859.263	21850
859.396	21953
859.529	21907
859.662	21888
859.795	21930
859.928	21979
860.061	22109
860.194	22185
860.327	21956
860.46	21926
860.592	22044
860.725	22143
860.858	22067
860.99	21956
861.123	21895
861.256	21922
861.388	21922
861.521	22729
861.653	21941
861.786	21709
861.918	21743
862.05	21812
862.183	21762
862.315	21793
862.447	22013
862.58	21812
862.712	21709
862.844	21629
862.976	21728
863.108	21736
863.24	22002
863.372	21500
863.504	21675
863.636	21568
863.768	21599
863.9	21679
864.032	21564
864.164	21736
864.296	21698
864.428	21724
864.559	21690
864.691	21644
864.823	21652
864.954	21652
865.086	21534
865.217	21618
865.349	21462
865.48	21553
865.612	21542
865.743	21622
865.875	21568
866.006	21572
866.137	21637
866.269	21431
866.4	21500
866.531	21374
866.662	21408
866.793	21477
866.924	21424
867.055	21545
867.186	21393
867.317	21378
867.448	21443
867.579	21416
867.71	21344
867.841	21420
867.972	21469
868.103	21515
868.233	21443
868.364	21435
868.495	21553
868.625	21553
868.756	21717
868.886	21447
869.017	21580
869.147	21850
869.278	21895
869.408	21701
869.539	21736
869.669	21774
869.799	21675
869.929	21831
870.06	21823
870.19	21956
870.32	22090
870.45	22067
870.58	21941
870.71	22173
870.84	22112
870.97	22048
871.1	22196
871.23	22143
871.36	22356
871.489	22234
871.619	22284
871.749	22367
871.879	22443
872.008	22356
872.138	22390
872.267	22295
872.397	22147
872.526	22272
872.656	22112
872.785	22109
872.915	22303
873.044	22360
873.173	22375
873.303	22455
873.432	22299
873.561	22363
873.69	22356
873.819	22226
873.948	22459
874.077	22265
874.206	22352
874.335	22219
874.464	22443
874.593	22557
874.722	22546
874.851	22554
874.979	22588
875.108	22489
875.237	22455
875.365	22500
875.494	22402
875.623	22569
875.751	22523
875.88	22599
876.008	22656
876.136	22778
876.265	22953
876.393	23079
876.521	22961
876.65	23086
876.778	22946
876.906	22774
877.034	22892
877.162	22797
877.29	22850
877.418	22892
877.546	22965
877.674	22915
877.802	22889
877.93	22752
878.058	22839
878.185	22683
878.313	22816
878.441	22911
878.568	22706
878.696	22824
878.824	22927
878.951	22934
879.079	23090
879.206	23128
879.333	22915
879.461	22995
879.588	23022
879.715	23109
879.842	23181
879.97	22987
880.097	22729
880.224	22622
880.351	22725
880.478	22744
880.605	22637
880.732	22740
880.859	22915
880.986	22790
881.112	22660
881.239	22512
881.366	22436
881.493	22394
881.619	22234
881.746	22295
881.872	22234
881.999	22249
882.125	22223
882.252	22135
882.378	22234
882.505	22363
882.631	22097
882.757	21934
882.883	21953
883.01	21964
883.136	21979
883.262	21766
883.388	21778
883.514	21899
883.64	21972
883.766	21892
883.892	21797
884.018	21717
884.143	21903
884.269	22093
884.395	21553
884.52	21545
884.646	21576
884.772	21515
884.897	21450
885.023	21542
885.148	21576
885.274	21728
885.399	21530
885.524	21599
885.65	21591
885.775	21629
885.9	21428
886.025	21686
886.15	21694
886.275	21622
886.4	21450
886.525	21534
886.65	21485
886.775	21587
886.9	21709
887.025	21682
887.149	21424
887.274	21447
887.399	21336
887.523	21313
887.648	21408
887.773	21233
887.897	21389
888.021	21389
888.146	21272
888.27	21374
888.395	21408
888.519	21370
888.643	21310
888.767	21408
888.891	21173
889.015	21146
889.139	21195
889.263	21070
889.387	21233
889.511	21249
889.635	21306
889.759	21146
889.883	21062
890.006	21085
890.13	21169
890.254	21070
890.377	21024
890.501	20921
890.624	20842
890.748	20914
890.871	20762
890.995	20648
891.118	20682
891.241	20686
891.364	20629
891.488	20826
891.611	20735
891.734	20750
891.857	20712
891.98	20636
892.103	20693
892.226	20727
892.349	20442
892.471	20507
892.594	20655
892.717	20636
892.839	20450
892.962	20617
893.085	20617
893.207	20511
893.33	20621
893.452	20613
893.575	20712
893.697	20533
893.819	20701
893.941	20845
894.064	20811
894.186	20514
894.308	20461
894.43	20686
894.552	20629
894.674	20629
894.796	20499
894.918	20530
895.04	20556
895.161	20663
895.283	20564
895.405	20693
895.526	20495
895.648	20518
895.769	20545
895.891	20655
896.012	20651
896.134	20617
896.255	20480
896.376	20488
896.498	20598
896.619	20571
896.74	20579
896.861	20632
896.982	20948
897.103	21051
897.224	20796
897.345	20853
897.466	20625
897.587	20769
897.708	20788
897.828	20777
897.949	20674
898.07	20663
898.19	20705
898.311	20925
898.431	20826
898.552	20853
898.672	20777
898.792	20876
898.913	20804
899.033	20575
899.153	20495
899.273	20526
899.393	20446
899.513	20549
899.633	20492
899.753	20549
899.873	20393
899.993	20476
900.113	20446
900.232	20461
900.352	20317
900.472	20305
900.591	20199
900.711	20259
900.83	20282
900.95	20210
901.069	20286
901.189	20229
901.308	19963
901.427	19769
901.546	19928
901.665	19734
901.784	19772
901.904	19731
902.023	19628
902.141	19381
902.26	19373
902.379	19430
902.498	19407
902.617	19320
902.735	19346
902.854	19209
902.973	19225
903.091	19118
903.21	19023
903.328	18970
903.446	19027
903.565	18734
903.683	18837
903.801	18722
903.919	18806
904.038	18684
904.156	18582
904.274	18681
904.392	18555
904.51	18574
904.627	18547
904.745	18612
904.863	18627
904.981	18376
905.098	18243
905.216	18270
905.334	18296
905.451	18441
905.569	18281
905.686	18308
905.803	18266
905.921	18083
906.038	18140
906.155	18045
906.272	18007
906.389	18026
906.506	17760
906.623	17748
906.74	17889
906.857	17684
906.974	17904
907.091	17798
907.208	17942
907.324	17889
907.441	17726
907.557	17509
907.674	17532
907.79	17425
907.907	17463
908.023	17512
908.139	17532
908.256	17539
908.372	17512
908.488	17463
908.604	17258
908.72	17220
908.836	17296
908.952	17162
909.068	17235
909.184	17315
909.3	17284
909.415	17292
909.531	17296
909.647	16911
909.762	17060
909.878	17010
909.993	16915
910.108	16961
910.224	16896
910.339	16862
910.454	16862
910.57	16774
910.685	16672
910.8	16949
910.915	16835
911.03	16744
911.145	16611
911.259	16626
911.374	16554
911.489	16504
911.604	16325
911.718	16230
911.833	16341
911.947	16143
912.062	16204
912.176	16204
912.291	16272
912.405	16287
912.519	16531
912.633	16466
912.748	16284
912.862	16230
912.976	16128
913.09	16067
913.204	16032
913.318	16105
913.431	16177
913.545	16090
913.659	16147
913.772	16082
913.886	15926
914	15854
914.113	15953
914.226	16059
914.34	15987
914.453	15816
914.566	15907
914.68	15774
914.793	15873
914.906	15538
915.019	15473
915.132	15412
915.245	15572
915.358	15557
915.47	15382
915.583	15526
915.696	15507
915.809	15561
915.921	15622
916.034	15412
916.146	15329
916.259	15332
916.371	15431
916.483	15515
916.595	15317
916.708	15340
916.82	15275
916.932	15272
917.044	15188
917.156	15173
917.268	15138
917.38	15165
917.491	15146
917.603	15173
917.715	15207
917.826	15150
917.938	15028
918.049	15009
918.161	15058
918.272	15207
918.384	15252
918.495	15100
918.606	14906
918.717	14838
918.828	14933
918.939	14929
919.05	14804
919.161	14834
919.272	14754
919.383	14746
919.494	14944
919.604	15081
919.715	14845
919.826	14796
919.936	14838
920.047	14826
920.157	14842
920.267	14937
920.378	14826
920.488	14785
920.598	14868
920.708	15097
920.818	14990
920.928	14895
921.038	15077
921.148	15058
921.258	14739
921.368	14708
921.477	14575
921.587	14621
921.697	14434
921.806	14587
921.916	14427
922.025	14229
922.134	14183
922.244	14168
922.353	14248
922.462	14027
922.571	14058
922.68	13852
922.789	13822
922.898	13826
923.007	13750
923.116	13856
923.224	13925
923.333	13788
923.442	13742
923.55	13636
923.659	13696
923.767	13742
923.876	13700
923.984	13723
924.092	13597
924.201	13597
924.309	13586
924.417	13548
924.525	13533
924.633	13483
924.741	14431
924.849	13285
924.956	13544
925.064	13278
925.172	13187
925.279	13206
925.387	13270
925.494	13187
925.602	13350
925.709	13255
925.816	13110
925.924	13179
926.031	13282
926.138	13187
926.245	13354
926.352	13099
926.459	13202
926.566	13225
926.673	13088
926.779	12924
926.886	13019
926.993	12745
927.099	12829
927.206	12821
927.312	12707
927.419	12863
927.525	12806
927.631	12817
927.737	12707
927.843	12620
927.95	12631
928.056	12555
928.162	12574
928.267	12662
928.373	13122
928.479	12635
928.585	12490
928.69	12513
928.796	12650
928.901	12456
929.007	12247
929.112	12426
929.218	12483
929.323	12323
929.428	12251
929.533	12448
929.638	12235
929.743	12273
929.848	12251
929.953	12163
930.058	12102
930.163	12034
930.267	11999
930.372	12125
930.477	11980
930.581	12243
930.685	12114
930.79	11927
930.894	11954
930.998	11863
931.103	11996
931.207	11611
931.311	11604
931.415	11532
931.519	11273
931.623	11277
