Data from test_V78500241_1135.txt Node
Date: Fri Mar 25 15:17:45 CST 2022
User: usil
Spectrometer: V785-0024
Trigger mode: 0
Integration Time (sec): 4.000000E-1
Scans to average: 1
Nonlinearity correction enabled: false
Boxcar width: 0
Storing dark spectrum: false
XAxis mode: Wavelengths
Number of Pixels in Spectrum: 1024
>>>>>Begin Spectral Data<<<<<
801.071	28329
801.214	28196
801.356	27903
801.499	27926
801.641	27797
801.783	27766
801.926	27865
802.068	27850
802.211	27793
802.353	27614
802.496	27523
802.638	27462
802.78	27443
802.923	27435
803.065	27378
803.208	27469
803.35	27534
803.492	27561
803.635	27629
803.777	27561
803.919	27694
804.061	27983
804.204	27675
804.346	27724
804.488	27633
804.63	27618
804.773	27641
804.915	27663
805.057	27903
805.199	27755
805.341	27812
805.483	27911
805.626	27861
805.768	27854
805.91	28017
806.052	27778
806.194	27743
806.336	27964
806.478	27960
806.62	27949
806.762	27972
806.904	28128
807.046	28443
807.188	28086
807.33	28329
807.472	28322
807.614	28181
807.756	28386
807.898	28207
808.04	28097
808.182	28128
808.324	28124
808.465	28226
808.607	28375
808.749	28527
808.891	28641
809.033	28626
809.174	28577
809.316	28413
809.458	28607
809.6	28554
809.741	28698
809.883	28485
810.025	28767
810.166	28573
810.308	28854
810.45	28759
810.591	28656
810.733	28512
810.875	28443
811.016	28550
811.158	28337
811.299	28542
811.441	28618
811.582	28580
811.724	28523
811.865	28466
812.007	28478
812.148	28504
812.29	28561
812.431	28672
812.573	28927
812.714	29079
812.855	28999
812.997	29117
813.138	29231
813.279	29273
813.421	29159
813.562	29029
813.703	28908
813.845	28778
813.986	28580
814.127	28299
814.268	28398
814.41	28181
814.551	28306
814.692	28280
814.833	28158
814.974	28169
815.115	28135
815.256	28162
815.397	28044
815.539	28067
815.68	28105
815.821	27914
815.962	28295
816.103	28101
816.244	28025
816.385	27854
816.526	27759
816.666	27648
816.807	27519
816.948	27568
817.089	27644
817.23	27580
817.371	27568
817.512	27595
817.653	27618
817.793	27466
817.934	27538
818.075	27542
818.216	27500
818.356	27553
818.497	27412
818.638	27279
818.778	27214
818.919	27321
819.06	27359
819.2	27507
819.341	27629
819.481	27618
819.622	27724
819.762	27945
819.903	27819
820.043	27808
820.184	27766
820.324	27774
820.465	27816
820.605	27648
820.746	27709
820.886	27660
821.026	27641
821.167	27694
821.307	27778
821.447	27606
821.588	27492
821.728	27401
821.868	27188
822.008	27020
822.149	26998
822.289	27005
822.429	26762
822.569	26781
822.709	26754
822.849	26533
822.99	26549
823.13	26370
823.27	26503
823.41	26457
823.55	26404
823.69	26434
823.83	26343
823.97	26457
824.11	26271
824.25	26142
824.389	26202
824.529	26263
824.669	26256
824.809	26221
824.949	26278
825.089	26328
825.228	26180
825.368	26077
825.508	26008
825.648	26039
825.787	26248
825.927	26043
826.067	26050
826.206	26111
826.346	26195
826.485	26134
826.625	26126
826.765	26180
826.904	26073
827.044	25913
827.183	25837
827.323	25776
827.462	25841
827.601	25868
827.741	25750
827.88	25871
828.02	25681
828.159	25837
828.298	25830
828.437	25734
828.577	25742
828.716	25807
828.855	25750
828.994	25514
829.134	25476
829.273	25563
829.412	25396
829.551	25449
829.69	25655
829.829	25548
829.968	25662
830.107	25601
830.246	25460
830.385	25422
830.524	25438
830.663	25198
830.802	25225
830.941	25255
831.08	25141
831.219	25251
831.357	25312
831.496	25426
831.635	25190
831.774	25084
831.913	25000
832.051	25053
832.19	24920
832.329	24973
832.467	24890
832.606	24837
832.744	24749
832.883	24795
833.022	24783
833.16	24772
833.299	24878
833.437	24817
833.576	24905
833.714	24966
833.852	24890
833.991	24966
834.129	25023
834.267	24962
834.406	24970
834.544	24951
834.682	24817
834.821	24783
834.959	25088
835.097	24787
835.235	24886
835.373	24741
835.511	24798
835.65	24791
835.788	24772
835.926	24707
836.064	24654
836.202	24650
836.34	24768
836.478	24783
836.615	24681
836.753	24681
836.891	24768
837.029	24673
837.167	24650
837.305	24612
837.443	24646
837.58	24566
837.718	24642
837.856	24601
837.993	24559
838.131	24551
838.269	24456
838.406	24388
838.544	24296
838.681	24224
838.819	24232
838.956	23950
839.094	24117
839.231	24083
839.369	24190
839.506	24414
839.643	24334
839.781	23988
839.918	23996
840.055	24098
840.193	24087
840.33	24064
840.467	23950
840.604	23916
840.742	24266
840.879	23775
841.016	23760
841.153	23764
841.29	24095
841.427	23874
841.564	24064
841.701	23961
841.838	23965
841.975	23817
842.112	23912
842.249	23604
842.385	23680
842.522	23817
842.659	23790
842.796	23653
842.933	23691
843.069	23745
843.206	23642
843.343	23646
843.479	23680
843.616	23775
843.752	23524
843.889	23562
844.025	23676
844.162	23512
844.298	23509
844.435	23448
844.571	23505
844.708	23467
844.844	23520
844.98	23585
845.117	23524
845.253	23421
845.389	23280
845.525	23337
845.661	23337
845.798	23212
845.934	23303
846.07	23235
846.206	23132
846.342	23334
846.478	23212
846.614	23022
846.75	22839
846.886	22900
847.022	23033
847.158	23003
847.294	22934
847.429	22976
847.565	22908
847.701	23132
847.837	22733
847.972	22668
848.108	22748
848.244	22679
848.379	22615
848.515	22577
848.65	22607
848.786	22535
848.921	22569
849.057	22611
849.192	22634
849.328	22660
849.463	22504
849.598	22527
849.734	22352
849.869	22318
850.004	22386
850.14	22348
850.275	22333
850.41	22223
850.545	22291
850.68	22261
850.815	22344
850.95	22295
851.085	22322
851.22	22257
851.355	22249
851.49	22322
851.625	22211
851.76	22185
851.895	22253
852.03	22257
852.165	22253
852.299	22299
852.434	22306
852.569	22394
852.703	22489
852.838	22276
852.973	22360
853.107	22310
853.242	22166
853.376	22246
853.511	21987
853.645	22078
853.78	22268
853.914	22021
854.048	22055
854.183	22097
854.317	22063
854.451	22112
854.585	22173
854.72	22150
854.854	22158
854.988	22025
855.122	22139
855.256	21937
855.39	22059
855.524	22105
855.658	22185
855.792	22223
855.926	22215
856.06	22242
856.194	22230
856.327	22025
856.461	22036
856.595	22070
856.729	22078
856.862	22219
856.996	22166
857.13	22128
857.263	22246
857.397	22169
857.53	22139
857.664	22086
857.797	22181
857.931	22116
858.064	22158
858.197	22226
858.331	22109
858.464	22010
858.597	22021
858.731	22078
858.864	22063
858.997	22086
859.13	22093
859.263	22101
859.396	22150
859.529	22082
859.662	22082
859.795	22040
859.928	22276
860.061	22215
860.194	22200
860.327	22128
860.46	22131
860.592	22166
860.725	22314
860.858	22036
860.99	22112
861.123	22055
861.256	21983
861.388	22204
861.521	22698
861.653	21972
861.786	21934
861.918	21964
862.05	21907
862.183	21998
862.315	22002
862.447	22166
862.58	22036
862.712	21888
862.844	21812
862.976	21899
863.108	21987
863.24	22280
863.372	21804
863.504	21922
863.636	21808
863.768	21781
863.9	21861
864.032	21739
864.164	21854
864.296	21861
864.428	21888
864.559	21789
864.691	21979
864.823	21831
864.954	21732
865.086	21720
865.217	21800
865.349	21591
865.48	21797
865.612	21622
865.743	21804
865.875	21739
866.006	21732
866.137	21736
866.269	21705
866.4	21682
866.531	21663
866.662	21553
866.793	21675
866.924	21595
867.055	21698
867.186	21660
867.317	21583
867.448	21435
867.579	21591
867.71	21534
867.841	21564
867.972	21652
868.103	21618
868.233	21431
868.364	21709
868.495	21720
868.625	21827
868.756	22002
868.886	21732
869.017	21816
869.147	21907
869.278	22002
869.408	22013
869.539	21876
869.669	21945
869.799	22044
869.929	22055
870.06	21975
870.19	22150
870.32	22105
870.45	22192
870.58	22291
870.71	22257
870.84	22363
870.97	22188
871.1	22329
871.23	22462
871.36	22367
871.489	22341
871.619	22474
871.749	22459
871.879	22443
872.008	22489
872.138	22504
872.267	22527
872.397	22268
872.526	22242
872.656	22230
872.785	22238
872.915	22523
873.044	22546
873.173	22432
873.303	22493
873.432	22554
873.561	22645
873.69	22516
873.819	22455
873.948	22451
874.077	22329
874.206	22455
874.335	22531
874.464	22565
874.593	22725
874.722	22679
874.851	22713
874.979	22698
875.108	22782
875.237	22603
875.365	22580
875.494	22660
875.623	22733
875.751	22615
875.88	22527
876.008	22847
876.136	22740
876.265	23037
876.393	23208
876.521	23098
876.65	23136
876.778	23094
876.906	23037
877.034	22965
877.162	23029
877.29	23018
877.418	23064
877.546	23090
877.674	23010
877.802	23086
877.93	23067
878.058	22949
878.185	22873
878.313	23056
878.441	23086
878.568	22957
878.696	22930
878.824	23044
878.951	23102
879.079	23280
879.206	23372
879.333	23193
879.461	23136
879.588	23102
879.715	23166
879.842	23345
879.97	23022
880.097	22904
880.224	22809
880.351	22885
880.478	22866
880.605	22854
880.732	22820
880.859	23075
880.986	22961
881.112	22927
881.239	22664
881.366	22546
881.493	22485
881.619	22352
881.746	22474
881.872	22451
881.999	22382
882.125	22299
882.252	22500
882.378	22329
882.505	22356
882.631	22375
882.757	22147
882.883	22154
883.01	22139
883.136	22025
883.262	21934
883.388	21903
883.514	22105
883.64	22074
883.766	22143
883.892	21823
884.018	21892
884.143	22097
884.269	22070
884.395	21838
884.52	21724
884.646	21759
884.772	21660
884.897	21698
885.023	21873
885.148	21918
885.274	21888
885.399	21934
885.524	21743
885.65	21701
885.775	21774
885.9	21641
886.025	22002
886.15	21785
886.275	21701
886.4	21705
886.525	21755
886.65	21717
886.775	21648
886.9	21778
887.025	21857
887.149	21759
887.274	21580
887.399	21530
887.523	21587
887.648	21405
887.773	21405
887.897	21580
888.021	21485
888.146	21443
888.27	21466
888.395	21576
888.519	21557
888.643	21557
888.767	21500
888.891	21450
889.015	21310
889.139	21325
889.263	21256
889.387	21416
889.511	21462
889.635	21412
889.759	21226
889.883	21207
890.006	21355
890.13	21466
890.254	21245
890.377	21272
890.501	21032
890.624	20952
890.748	21036
890.871	21066
890.995	20796
891.118	20845
891.241	20906
891.364	20819
891.488	20979
891.611	20918
891.734	20743
891.857	20906
891.98	20781
892.103	20941
892.226	20910
892.349	20731
892.471	20648
892.594	20693
892.717	20716
892.839	20746
892.962	20758
893.085	20811
893.207	20876
893.33	20598
893.452	20743
893.575	20819
893.697	20689
893.819	20929
893.941	20937
894.064	20826
894.186	20541
894.308	20655
894.43	20686
894.552	21009
894.674	20807
894.796	20686
894.918	20777
895.04	20693
895.161	20746
895.283	20773
895.405	20659
895.526	20686
895.648	20674
895.769	20720
895.891	20758
896.012	20758
896.134	20746
896.255	20686
896.376	20777
896.498	20640
896.619	20712
896.74	20735
896.861	20811
896.982	21070
897.103	21131
897.224	20971
897.345	21058
897.466	20960
897.587	20918
897.708	21058
897.828	20948
897.949	20861
898.07	20910
898.19	20849
898.311	20937
898.431	20906
898.552	20971
898.672	20952
898.792	20956
898.913	20914
899.033	20823
899.153	20746
899.273	20648
899.393	20663
899.513	20625
899.633	20556
899.753	20750
899.873	20594
899.993	20670
900.113	20564
900.232	20632
900.352	20621
900.472	20541
900.591	20400
900.711	20507
900.83	20419
900.95	20495
901.069	20484
901.189	20176
901.308	20024
901.427	19997
901.546	20054
901.665	20005
901.784	19974
901.904	19864
902.023	19814
902.141	19510
902.26	19480
902.379	19537
902.498	19544
902.617	19438
902.735	19571
902.854	19548
902.973	19434
903.091	19209
903.21	19225
903.328	19168
903.446	19000
903.565	18905
903.683	18977
903.801	18928
903.919	18993
904.038	18924
904.156	18837
904.274	18734
904.392	18665
904.51	18692
904.627	18745
904.745	18696
904.863	18863
904.981	18441
905.098	18498
905.216	18437
905.334	18437
905.451	18498
905.569	18422
905.686	18327
905.803	18346
905.921	18182
906.038	18232
906.155	18270
906.272	17999
906.389	17988
906.506	17923
906.623	17965
906.74	17889
906.857	17832
906.974	17885
907.091	17946
907.208	18095
907.324	18011
907.441	17794
907.557	17733
907.674	17684
907.79	17608
907.907	17600
908.023	17695
908.139	17570
908.256	17573
908.372	17562
908.488	17562
908.604	17395
908.72	17349
908.836	17372
908.952	17315
909.068	17406
909.184	17440
909.3	17322
909.415	17345
909.531	17322
909.647	17140
909.762	17136
909.878	16987
909.993	17128
910.108	17102
910.224	17025
910.339	16885
910.454	17025
910.57	16862
910.685	16778
910.8	16999
910.915	17056
911.03	16854
911.145	16675
911.259	16618
911.374	16706
911.489	16668
911.604	16584
911.718	16447
911.833	16398
911.947	16303
912.062	16173
912.176	16428
912.291	16371
912.405	16413
912.519	16561
912.633	16577
912.748	16504
912.862	16386
912.976	16207
913.09	16067
913.204	16116
913.318	16238
913.431	16310
913.545	16299
913.659	16306
913.772	16032
913.886	16002
914	16051
914.113	15994
914.226	16074
914.34	16055
914.453	15998
914.566	15968
914.68	15892
914.793	15835
914.906	15694
915.019	15595
915.132	15511
915.245	15591
915.358	15572
915.47	15663
915.583	15469
915.696	15656
915.809	15739
915.921	15720
916.034	15572
916.146	15542
916.259	15538
916.371	15576
916.483	15530
916.595	15469
916.708	15424
916.82	15424
916.932	15332
917.044	15329
917.156	15260
917.268	15150
917.38	15192
917.491	15116
917.603	15237
917.715	15184
917.826	15233
917.938	15165
918.049	15119
918.161	15097
918.272	15233
918.384	15294
918.495	15214
918.606	14902
918.717	14853
918.828	14914
918.939	14975
919.05	14880
919.161	14956
919.272	14720
919.383	14739
919.494	14998
919.604	15192
919.715	14872
919.826	14781
919.936	14872
920.047	14982
920.157	14929
920.267	15123
920.378	14918
920.488	14845
920.598	15058
920.708	15249
920.818	15043
920.928	14982
921.038	15150
921.148	15089
921.258	14819
921.368	14804
921.477	14750
921.587	14644
921.697	14446
921.806	14621
921.916	14492
922.025	14278
922.134	14202
922.244	14164
922.353	14275
922.462	14168
922.571	14107
922.68	13947
922.789	13887
922.898	13921
923.007	13849
923.116	13898
923.224	13898
923.333	13868
923.442	13902
923.55	13780
923.659	13788
923.767	13769
923.876	13689
923.984	13734
924.092	13620
924.201	13674
924.309	13472
924.417	13776
924.525	13495
924.633	13575
924.741	14461
924.849	13400
924.956	13502
925.064	13343
925.172	13301
925.279	13339
925.387	13316
925.494	13293
925.602	13339
925.709	13384
925.816	13179
925.924	13244
926.031	13362
926.138	13312
926.245	13343
926.352	13228
926.459	13255
926.566	13266
926.673	13259
926.779	13023
926.886	13000
926.993	12924
927.099	12958
927.206	12817
927.312	12757
927.419	12852
927.525	12825
927.631	12924
927.737	12726
927.843	12730
927.95	12551
928.056	12684
928.162	12722
928.267	12673
928.373	13236
928.479	12734
928.585	12437
928.69	12616
928.796	12654
928.901	12502
929.007	12399
929.112	12563
929.218	12467
929.323	12391
929.428	12342
929.533	12502
929.638	12327
929.743	12365
929.848	12353
929.953	12300
930.058	12277
930.163	12155
930.267	12102
930.372	12243
930.477	12121
930.581	12304
930.685	12159
930.79	11977
930.894	12041
930.998	12011
931.103	12129
931.207	11748
931.311	11581
931.415	11573
931.519	11364
931.623	11345
