Data from test_V78500241_25.txt Node
Date: Fri Mar 25 15:10:02 CST 2022
User: usil
Spectrometer: V785-0024
Trigger mode: 0
Integration Time (sec): 4.000000E-1
Scans to average: 1
Nonlinearity correction enabled: false
Boxcar width: 0
Storing dark spectrum: false
XAxis mode: Wavelengths
Number of Pixels in Spectrum: 1024
>>>>>Begin Spectral Data<<<<<
801.071	28622
801.214	28333
801.356	28177
801.499	27956
801.641	28051
801.783	27956
801.926	27766
802.068	27937
802.211	27850
802.353	27656
802.496	27553
802.638	27751
802.78	27462
802.923	27439
803.065	27424
803.208	27431
803.35	27530
803.492	27622
803.635	27720
803.777	27633
803.919	27656
804.061	27945
804.204	27614
804.346	27496
804.488	27507
804.63	27545
804.773	27408
804.915	27485
805.057	27682
805.199	27435
805.341	27500
805.483	27652
805.626	27701
805.768	27561
805.91	27762
806.052	27591
806.194	27633
806.336	27724
806.478	27705
806.62	27648
806.762	27660
806.904	27781
807.046	28120
807.188	27926
807.33	28093
807.472	28109
807.614	27899
807.756	27880
807.898	27751
808.04	27785
808.182	27770
808.324	27850
808.465	27751
808.607	27823
808.749	27941
808.891	28036
809.033	28204
809.174	28074
809.316	28215
809.458	28090
809.6	28040
809.741	28059
809.883	28017
810.025	28314
810.166	28242
810.308	28440
810.45	28230
810.591	28135
810.733	28025
810.875	27975
811.016	28002
811.158	27857
811.299	28173
811.441	28246
811.582	28086
811.724	27899
811.865	27934
812.007	27983
812.148	27907
812.29	28101
812.431	28177
812.573	28238
812.714	28325
812.855	28348
812.997	28462
813.138	28740
813.279	28782
813.421	28348
813.562	28268
813.703	28246
813.845	28086
813.986	27884
814.127	27660
814.268	27492
814.41	27648
814.551	27435
814.692	27648
814.833	27469
814.974	27507
815.115	27504
815.256	27439
815.397	27355
815.539	27389
815.68	27306
815.821	27138
815.962	27252
816.103	27313
816.244	27055
816.385	26918
816.526	26960
816.666	26815
816.807	26689
816.948	26758
817.089	26769
817.23	26693
817.371	26746
817.512	26735
817.653	26640
817.793	26583
817.934	26727
818.075	26560
818.216	26613
818.356	26579
818.497	26484
818.638	26427
818.778	26503
818.919	26229
819.06	26374
819.2	26480
819.341	26393
819.481	26667
819.622	26785
819.762	26830
819.903	26697
820.043	26632
820.184	26659
820.324	26427
820.465	26712
820.605	26644
820.746	26518
820.886	26522
821.026	26499
821.167	26503
821.307	26606
821.447	26484
821.588	26415
821.728	26286
821.868	26153
822.008	25944
822.149	26043
822.289	25761
822.429	25708
822.569	25586
822.709	25719
822.849	25407
822.99	25453
823.13	25297
823.27	25282
823.41	25278
823.55	25308
823.69	25236
823.83	25266
823.97	25171
824.11	25118
824.25	24977
824.389	24924
824.529	25023
824.669	24977
824.809	25072
824.949	25088
825.089	25042
825.228	25061
825.368	24810
825.508	24779
825.648	24840
825.787	24817
825.927	24848
826.067	24844
826.206	24711
826.346	24837
826.485	24722
826.625	24768
826.765	24935
826.904	24760
827.044	24547
827.183	24452
827.323	24429
827.462	24460
827.601	24437
827.741	24342
827.88	24376
828.02	24308
828.159	24403
828.298	24395
828.437	24555
828.577	24369
828.716	24475
828.855	24285
828.994	24197
829.134	24159
829.273	24117
829.412	24091
829.551	24041
829.69	24049
829.829	24194
829.968	24213
830.107	24289
830.246	24083
830.385	24064
830.524	24007
830.663	23843
830.802	23786
830.941	23581
831.08	23676
831.219	23729
831.357	23737
831.496	23855
831.635	23592
831.774	23577
831.913	23478
832.051	23478
832.19	23231
832.329	23471
832.467	23322
832.606	23208
832.744	23273
832.883	23345
833.022	23334
833.16	23311
833.299	23250
833.437	23200
833.576	23296
833.714	23254
833.852	23356
833.991	23220
834.129	23387
834.267	23345
834.406	23254
834.544	23292
834.682	23208
834.821	23223
834.959	23391
835.097	23162
835.235	23307
835.373	23231
835.511	23159
835.65	23117
835.788	23010
835.926	22862
836.064	22900
836.202	22953
836.34	23102
836.478	23098
836.615	23041
836.753	23033
836.891	23162
837.029	23033
837.167	23071
837.305	22911
837.443	22991
837.58	22850
837.718	22915
837.856	22995
837.993	22904
838.131	22866
838.269	22778
838.406	22793
838.544	22729
838.681	22607
838.819	22478
838.956	22428
839.094	22451
839.231	22333
839.369	22527
839.506	22645
839.643	22508
839.781	22230
839.918	22268
840.055	22284
840.193	22363
840.33	22268
840.467	22253
840.604	22325
840.742	22561
840.879	22207
841.016	22188
841.153	22166
841.29	22230
841.427	22120
841.564	22185
841.701	22173
841.838	22097
841.975	22044
842.112	22086
842.249	21857
842.385	21892
842.522	22143
842.659	21953
842.796	21873
842.933	21934
843.069	21888
843.206	21747
843.343	21975
843.479	21861
843.616	22036
843.752	21625
843.889	21739
844.025	21728
844.162	21618
844.298	21713
844.435	21656
844.571	21561
844.708	21686
844.844	21797
844.98	21800
845.117	21629
845.253	21545
845.389	21458
845.525	21610
845.661	21553
845.798	21370
845.934	21393
846.07	21317
846.206	21363
846.342	21576
846.478	21485
846.614	21233
846.75	21036
846.886	21142
847.022	21207
847.158	21093
847.294	21051
847.429	21058
847.565	21058
847.701	21389
847.837	20834
847.972	20743
848.108	20849
848.244	20925
848.379	20613
848.515	20674
848.65	20594
848.786	20537
848.921	20689
849.057	20762
849.192	20845
849.328	20655
849.463	20602
849.598	20587
849.734	20537
849.869	20503
850.004	20358
850.14	20305
850.275	20484
850.41	20358
850.545	20434
850.68	20385
850.815	20320
850.95	20347
851.085	20560
851.22	20518
851.355	20393
851.49	20404
851.625	20263
851.76	20328
851.895	20256
852.03	20271
852.165	20218
852.299	20324
852.434	20408
852.569	20339
852.703	20339
852.838	20389
852.973	20385
853.107	20568
853.242	20377
853.376	20221
853.511	20119
853.645	20024
853.78	20339
853.914	20164
854.048	20043
854.183	20153
854.317	20191
854.451	20351
854.585	20221
854.72	20199
854.854	20290
854.988	20069
855.122	20180
855.256	20058
855.39	20107
855.524	20271
855.658	20195
855.792	20210
855.926	20058
856.06	20164
856.194	20142
856.327	20202
856.461	20069
856.595	20107
856.729	20096
856.862	20218
856.996	20134
857.13	20206
857.263	20267
857.397	20256
857.53	20069
857.664	20244
857.797	20172
857.931	20149
858.064	20180
858.197	20191
858.331	20233
858.464	20039
858.597	19959
858.731	20065
858.864	20012
858.997	20005
859.13	20168
859.263	20077
859.396	20206
859.529	20096
859.662	20024
859.795	20008
859.928	19947
860.061	20119
860.194	20199
860.327	20233
860.46	20111
860.592	20077
860.725	20225
860.858	20138
860.99	19974
861.123	19978
861.256	19989
861.388	19967
861.521	20575
861.653	19986
861.786	19883
861.918	19883
862.05	20134
862.183	20058
862.315	20214
862.447	20206
862.58	20058
862.712	19902
862.844	19913
862.976	20020
863.108	19871
863.24	20214
863.372	19822
863.504	19788
863.636	19868
863.768	19772
863.9	19651
864.032	19693
864.164	19746
864.296	19849
864.428	19852
864.559	19864
864.691	19860
864.823	19776
864.954	19837
865.086	19719
865.217	19780
865.349	19670
865.48	19677
865.612	19693
865.743	19791
865.875	19738
866.006	19628
866.137	19734
866.269	19715
866.4	19647
866.531	19635
866.662	19575
866.793	19620
866.924	19487
867.055	19704
867.186	19582
867.317	19624
867.448	19445
867.579	19544
867.71	19624
867.841	19434
867.972	19567
868.103	19563
868.233	19502
868.364	19689
868.495	19609
868.625	19860
868.756	19852
868.886	19784
869.017	19715
869.147	19925
869.278	19906
869.408	19890
869.539	19909
869.669	19947
869.799	19921
869.929	19856
870.06	19967
870.19	20298
870.32	20134
870.45	20107
870.58	20244
870.71	20419
870.84	20286
870.97	20218
871.1	20161
871.23	20320
871.36	20366
871.489	20396
871.619	20499
871.749	20415
871.879	20454
872.008	20568
872.138	20507
872.267	20511
872.397	20358
872.526	20259
872.656	20168
872.785	20210
872.915	20556
873.044	20450
873.173	20434
873.303	20541
873.432	20465
873.561	20488
873.69	20438
873.819	20469
873.948	20530
874.077	20442
874.206	20301
874.335	20541
874.464	20518
874.593	20629
874.722	20583
874.851	20659
874.979	20762
875.108	20701
875.237	20712
875.365	20648
875.494	20720
875.623	20804
875.751	20750
875.88	20800
876.008	20777
876.136	20819
876.265	21218
876.393	21161
876.521	21047
876.65	21135
876.778	21093
876.906	21024
877.034	20990
877.162	21024
877.29	20975
877.418	20979
877.546	21055
877.674	21055
877.802	21032
877.93	20994
878.058	21135
878.185	21116
878.313	21009
878.441	21089
878.568	20902
878.696	20979
878.824	21051
878.951	21184
879.079	21298
879.206	21405
879.333	21154
879.461	21039
879.588	21214
879.715	21203
879.842	21469
879.97	21001
880.097	20811
880.224	20918
880.351	20971
880.478	20823
880.605	20792
880.732	20792
880.859	21184
880.986	20952
881.112	20944
881.239	20598
881.366	20613
881.493	20530
881.619	20514
881.746	20495
881.872	20511
881.999	20355
882.125	20511
882.252	20533
882.378	20457
882.505	20697
882.631	20339
882.757	20221
882.883	20370
883.01	20290
883.136	20134
883.262	20168
883.388	20092
883.514	20267
883.64	20328
883.766	20126
883.892	20016
884.018	20073
884.143	20267
884.269	20267
884.395	20005
884.52	19909
884.646	19894
884.772	19860
884.897	19738
885.023	19837
885.148	19970
885.274	20069
885.399	19982
885.524	19887
885.65	19875
885.775	19860
885.9	19887
886.025	19921
886.15	19917
886.275	19811
886.4	19746
886.525	19761
886.65	19776
886.775	19826
886.9	19917
887.025	19967
887.149	19727
887.274	19655
887.399	19681
887.523	19571
887.648	19563
887.773	19453
887.897	19613
888.021	19677
888.146	19556
888.27	19685
888.395	19613
888.519	19696
888.643	19677
888.767	19719
888.891	19422
889.015	19453
889.139	19487
889.263	19377
889.387	19499
889.511	19594
889.635	19575
889.759	19396
889.883	19400
890.006	19419
890.13	19438
890.254	19354
890.377	19350
890.501	19099
890.624	19027
890.748	19228
890.871	19069
890.995	18981
891.118	18928
891.241	18985
891.364	18928
891.488	19133
891.611	18935
891.734	19000
891.857	19213
891.98	19042
892.103	19065
892.226	19027
892.349	18916
892.471	18787
892.594	18932
892.717	18882
892.839	18916
892.962	18962
893.085	18973
893.207	18954
893.33	18829
893.452	18863
893.575	18958
893.697	18943
893.819	19000
893.941	19145
894.064	19103
894.186	18878
894.308	18935
894.43	18989
894.552	19015
894.674	19053
894.796	18894
894.918	18973
895.04	18924
895.161	19038
895.283	19053
895.405	18833
895.526	18905
895.648	18791
895.769	19084
895.891	18894
896.012	18981
896.134	19080
896.255	19038
896.376	18821
896.498	18928
896.619	18966
896.74	18894
896.861	18973
896.982	19441
897.103	19491
897.224	19339
897.345	19206
897.466	19168
897.587	19232
897.708	19285
897.828	19217
897.949	19156
898.07	19057
898.19	19038
898.311	19225
898.431	19065
898.552	19236
898.672	19263
898.792	19293
898.913	19213
899.033	19015
899.153	18859
899.273	18814
899.393	18894
899.513	18913
899.633	18996
899.753	18894
899.873	18768
899.993	18958
900.113	18920
900.232	18951
900.352	18901
900.472	18795
900.591	18601
900.711	18665
900.83	18684
900.95	18817
901.069	18806
901.189	18570
901.308	18437
901.427	18369
901.546	18300
901.665	18384
901.784	18422
901.904	18292
902.023	18068
902.141	17885
902.26	17866
902.379	17931
902.498	17771
902.617	17882
902.735	17927
902.854	17802
902.973	17707
903.091	17539
903.21	17391
903.328	17543
903.446	17379
903.565	17436
903.683	17318
903.801	17189
903.919	17235
904.038	17303
904.156	17124
904.274	17102
904.392	17208
904.51	17075
904.627	17094
904.745	17090
904.863	17018
904.981	17060
905.098	16774
905.216	16801
905.334	16843
905.451	16713
905.569	16748
905.686	16736
905.803	16683
905.921	16588
906.038	16721
906.155	16588
906.272	16371
906.389	16478
906.506	16402
906.623	16299
906.74	16341
906.857	16219
906.974	16150
907.091	16413
907.208	16550
907.324	16303
907.441	16139
907.557	15983
907.674	16029
907.79	15960
907.907	16067
908.023	16002
908.139	16021
908.256	15956
908.372	15983
908.488	15846
908.604	15759
908.72	15618
908.836	15698
908.952	15663
909.068	15755
909.184	15778
909.3	15629
909.415	15686
909.531	15713
909.647	15431
909.762	15317
909.878	15298
909.993	15359
910.108	15332
910.224	15336
910.339	15344
910.454	15325
910.57	15188
910.685	15085
910.8	15447
910.915	15294
911.03	15188
911.145	15062
911.259	14994
911.374	15017
911.489	14842
911.604	14731
911.718	14689
911.833	14701
911.947	14636
912.062	14465
912.176	14606
912.291	14598
912.405	14659
912.519	14815
912.633	14899
912.748	14689
912.862	14731
912.976	14564
913.09	14336
913.204	14499
913.318	14492
913.431	14667
913.545	14621
913.659	14648
913.772	14446
913.886	14469
914	14328
914.113	14400
914.226	14511
914.34	14389
914.453	14218
914.566	14381
914.68	14347
914.793	14233
914.906	14073
915.019	14031
915.132	13963
915.245	14008
915.358	14016
915.47	14005
915.583	14046
915.696	14069
915.809	14225
915.921	14119
916.034	14001
916.146	13917
916.259	13894
916.371	14020
916.483	14005
916.595	13856
916.708	13951
916.82	13822
916.932	13795
917.044	13830
917.156	13845
917.268	13811
917.38	13689
917.491	13681
917.603	13658
917.715	13677
917.826	13887
917.938	13700
918.049	13556
918.161	13719
918.272	13753
918.384	13803
918.495	13708
918.606	13571
918.717	13487
918.828	13540
918.939	13571
919.05	13316
919.161	13476
919.272	13266
919.383	13320
919.494	13472
919.604	13620
919.715	13468
919.826	13339
919.936	13438
920.047	13464
920.157	13312
920.267	13628
920.378	13476
920.488	13365
920.598	13613
920.708	13750
920.818	13616
920.928	13552
921.038	13727
921.148	13677
921.258	13415
921.368	13225
921.477	13183
921.587	13247
921.697	13080
921.806	13160
921.916	13042
922.025	12871
922.134	12825
922.244	12821
922.353	12856
922.462	12734
922.571	12593
922.68	12460
922.789	12464
922.898	12464
923.007	12509
923.116	12399
923.224	12456
923.333	12452
923.442	12407
923.55	12243
923.659	12285
923.767	12403
923.876	12171
923.984	12308
924.092	12220
924.201	12194
924.309	12175
924.417	12216
924.525	12247
924.633	12155
924.741	12951
924.849	12038
924.956	12110
925.064	11984
925.172	11874
925.279	11931
925.387	12026
925.494	11969
925.602	12045
925.709	11920
925.816	11809
925.924	11980
926.031	12057
926.138	11897
926.245	11942
926.352	11843
926.459	11965
926.566	11992
926.673	11786
926.779	11737
926.886	11665
926.993	11608
927.099	11592
927.206	11474
927.312	11478
927.419	11653
927.525	11551
927.631	11615
927.737	11429
927.843	11383
927.95	11303
928.056	11387
928.162	11414
928.267	11535
928.373	12079
928.479	11455
928.585	11261
928.69	11292
928.796	11368
928.901	11254
929.007	11132
929.112	11147
929.218	11269
929.323	11155
929.428	11075
929.533	11197
929.638	11071
929.743	11037
929.848	11094
929.953	11067
930.058	11098
930.163	10938
930.267	10953
930.372	10923
930.477	10714
930.581	10984
930.685	10900
930.79	10710
930.894	10672
930.998	10687
931.103	10790
931.207	10466
931.311	10481
931.415	10306
931.519	10067
931.623	10112
