Data from test_V78500241_1678.txt Node
Date: Fri Mar 25 15:21:32 CST 2022
User: usil
Spectrometer: V785-0024
Trigger mode: 0
Integration Time (sec): 4.000000E-1
Scans to average: 1
Nonlinearity correction enabled: false
Boxcar width: 0
Storing dark spectrum: false
XAxis mode: Wavelengths
Number of Pixels in Spectrum: 1024
>>>>>Begin Spectral Data<<<<<
801.071	27892
801.214	27956
801.356	27587
801.499	27686
801.641	27450
801.783	27519
801.926	27622
802.068	27568
802.211	27405
802.353	27439
802.496	27218
802.638	27192
802.78	27233
802.923	27135
803.065	27066
803.208	27081
803.35	27161
803.492	27268
803.635	27408
803.777	27302
803.919	27302
804.061	27625
804.204	27435
804.346	27268
804.488	27176
804.63	27260
804.773	27389
804.915	27496
805.057	27500
805.199	27435
805.341	27496
805.483	27549
805.626	27477
805.768	27435
805.91	27504
806.052	27382
806.194	27416
806.336	27793
806.478	27424
806.62	27439
806.762	27641
806.904	27739
807.046	27979
807.188	28051
807.33	28017
807.472	27972
807.614	27755
807.756	27991
807.898	27846
808.04	27614
808.182	27641
808.324	27819
808.465	27857
808.607	27968
808.749	28185
808.891	28230
809.033	28238
809.174	28044
809.316	28154
809.458	28181
809.6	28036
809.741	28185
809.883	28249
810.025	28519
810.166	28424
810.308	28497
810.45	28356
810.591	28436
810.733	28120
810.875	28086
811.016	28067
811.158	28135
811.299	28097
811.441	28135
811.582	28306
811.724	28150
811.865	28135
812.007	28048
812.148	28242
812.29	28154
812.431	28306
812.573	28497
812.714	28577
812.855	28622
812.997	28649
813.138	28911
813.279	28797
813.421	28843
813.562	28691
813.703	28478
813.845	28428
813.986	28112
814.127	27975
814.268	27842
814.41	27918
814.551	27732
814.692	27892
814.833	27880
814.974	27663
815.115	27816
815.256	27580
815.397	27739
815.539	27762
815.68	27591
815.821	27511
815.962	27717
816.103	27599
816.244	27439
816.385	27401
816.526	27412
816.666	27169
816.807	27074
816.948	27146
817.089	27241
817.23	27085
817.371	27043
817.512	27039
817.653	27024
817.793	27066
817.934	27074
818.075	27180
818.216	27150
818.356	26914
818.497	27043
818.638	26842
818.778	26746
818.919	26887
819.06	27009
819.2	27036
819.341	27093
819.481	27036
819.622	27313
819.762	27450
819.903	27348
820.043	27317
820.184	27176
820.324	27256
820.465	27260
820.605	27241
820.746	27207
820.886	27138
821.026	27268
821.167	27081
821.307	27256
821.447	27245
821.588	26937
821.728	26906
821.868	26667
822.008	26590
822.149	26571
822.289	26587
822.429	26370
822.569	26271
822.709	26195
822.849	26183
822.99	26084
823.13	26130
823.27	26046
823.41	25875
823.55	25727
823.69	25833
823.83	25982
823.97	25826
824.11	25826
824.25	25655
824.389	25818
824.529	25860
824.669	25776
824.809	25822
824.949	25830
825.089	25788
825.228	25757
825.368	25540
825.508	25422
825.648	25624
825.787	25776
825.927	25605
826.067	25525
826.206	25518
826.346	25674
826.485	25693
826.625	25685
826.765	25769
826.904	25643
827.044	25365
827.183	25479
827.323	25350
827.462	25407
827.601	25362
827.741	25217
827.88	25282
828.02	25160
828.159	25187
828.298	25244
828.437	25422
828.577	25266
828.716	25426
828.855	25365
828.994	25019
829.134	25012
829.273	25107
829.412	25103
829.551	24962
829.69	25042
829.829	25179
829.968	25076
830.107	24867
830.246	25031
830.385	25069
830.524	24882
830.663	24909
830.802	24707
830.941	24597
831.08	24703
831.219	24726
831.357	24688
831.496	24821
831.635	24734
831.774	24585
831.913	24559
832.051	24475
832.19	24407
832.329	24521
832.467	24418
832.606	24232
832.744	24190
832.883	24197
833.022	24426
833.16	24410
833.299	24342
833.437	24350
833.576	24483
833.714	24304
833.852	24494
833.991	24452
834.129	24426
834.267	24467
834.406	24311
834.544	24528
834.682	24521
834.821	24334
834.959	24517
835.097	24403
835.235	24380
835.373	24361
835.511	24460
835.65	24148
835.788	24292
835.926	24087
836.064	23988
836.202	24087
836.34	24270
836.478	24277
836.615	24213
836.753	24334
836.891	24220
837.029	24296
837.167	24197
837.305	24091
837.443	24133
837.58	24030
837.718	24163
837.856	24041
837.993	24064
838.131	24022
838.269	24018
838.406	24026
838.544	23870
838.681	23828
838.819	23726
838.956	23630
839.094	23486
839.231	23657
839.369	23714
839.506	23958
839.643	23767
839.781	23649
839.918	23558
840.055	23539
840.193	23425
840.33	23524
840.467	23524
840.604	23585
840.742	23634
840.879	23497
841.016	23463
841.153	23299
841.29	23524
841.427	23471
841.564	23455
841.701	23440
841.838	23448
841.975	23318
842.112	23406
842.249	23406
842.385	23181
842.522	23444
842.659	23128
842.796	23166
842.933	23200
843.069	23052
843.206	23250
843.343	23288
843.479	23170
843.616	23315
843.752	22968
843.889	23121
844.025	23113
844.162	23018
844.298	23079
844.435	22980
844.571	22927
844.708	23079
844.844	23193
844.98	23170
845.117	23124
845.253	23037
845.389	22885
845.525	22942
845.661	22858
845.798	22877
845.934	22778
846.07	22630
846.206	22755
846.342	22801
846.478	22675
846.614	22641
846.75	22451
846.886	22493
847.022	22554
847.158	22622
847.294	22443
847.429	22440
847.565	22512
847.701	22793
847.837	22284
847.972	22017
848.108	22303
848.244	22303
848.379	22097
848.515	22017
848.65	22006
848.786	22006
848.921	22078
849.057	22173
849.192	22040
849.328	22055
849.463	22002
849.598	21956
849.734	22025
849.869	21854
850.004	21884
850.14	21907
850.275	21789
850.41	21816
850.545	21846
850.68	21739
850.815	21785
850.95	21831
851.085	21991
851.22	21949
851.355	21888
851.49	21850
851.625	21675
851.76	21804
851.895	21739
852.03	21701
852.165	21797
852.299	21918
852.434	22002
852.569	21823
852.703	21846
852.838	21846
852.973	21937
853.107	21857
853.242	21857
853.376	21675
853.511	21557
853.645	21599
853.78	21694
853.914	21656
854.048	21606
854.183	21679
854.317	21606
854.451	21819
854.585	21759
854.72	21732
854.854	21694
854.988	21542
855.122	21686
855.256	21477
855.39	21580
855.524	21762
855.658	21759
855.792	21637
855.926	21698
856.06	21667
856.194	21762
856.327	21648
856.461	21583
856.595	21720
856.729	21538
856.862	21778
856.996	21667
857.13	21770
857.263	21732
857.397	21667
857.53	21701
857.664	21705
857.797	21705
857.931	21930
858.064	21675
858.197	21709
858.331	21625
858.464	21542
858.597	21530
858.731	21576
858.864	21667
858.997	21507
859.13	21633
859.263	21618
859.396	21770
859.529	21625
859.662	21538
859.795	21641
859.928	21652
860.061	21698
860.194	21804
860.327	21816
860.46	21732
860.592	21709
860.725	21793
860.858	21732
860.99	21572
861.123	21595
861.256	21618
861.388	21447
861.521	22329
861.653	21576
861.786	21382
861.918	21519
862.05	21504
862.183	21698
862.315	21637
862.447	21564
862.58	21370
862.712	21332
862.844	21393
862.976	21344
863.108	21428
863.24	21808
863.372	21233
863.504	21287
863.636	21405
863.768	21370
863.9	21332
864.032	21222
864.164	21325
864.296	21416
864.428	21473
864.559	21241
864.691	21481
864.823	21447
864.954	21245
865.086	21389
865.217	21237
865.349	21100
865.48	21173
865.612	21321
865.743	21287
865.875	21363
866.006	21249
866.137	21268
866.269	21150
866.4	21203
866.531	21195
866.662	21150
866.793	21142
866.924	21313
867.055	21279
867.186	21203
867.317	21119
867.448	21047
867.579	21169
867.71	20952
867.841	21173
867.972	21218
868.103	21116
868.233	21146
868.364	21093
868.495	21199
868.625	21329
868.756	21397
868.886	21283
869.017	21386
869.147	21652
869.278	21511
869.408	21492
869.539	21450
869.669	21564
869.799	21469
869.929	21534
870.06	21462
870.19	21698
870.32	21675
870.45	21663
870.58	21690
870.71	21835
870.84	21934
870.97	21850
871.1	21869
871.23	22093
871.36	22063
871.489	21846
871.619	21831
871.749	22040
871.879	22029
872.008	21972
872.138	21899
872.267	21987
872.397	21861
872.526	21854
872.656	21949
872.785	21838
872.915	22044
873.044	22093
873.173	21991
873.303	22036
873.432	22017
873.561	22135
873.69	22090
873.819	22059
873.948	22040
874.077	22135
874.206	21911
874.335	22120
874.464	22055
874.593	22131
874.722	22310
874.851	22352
874.979	22147
875.108	22265
875.237	22234
875.365	22139
875.494	22299
875.623	22291
875.751	22067
875.88	22207
876.008	22314
876.136	22360
876.265	22577
876.393	22668
876.521	22748
876.65	22763
876.778	22588
876.906	22630
877.034	22554
877.162	22626
877.29	22428
877.418	22622
877.546	22675
877.674	22485
877.802	22531
877.93	22440
878.058	22580
878.185	22379
878.313	22607
878.441	22592
878.568	22447
878.696	22523
878.824	22592
878.951	22702
879.079	22645
879.206	22831
879.333	22702
879.461	22500
879.588	22752
879.715	22809
879.842	22949
879.97	22622
880.097	22466
880.224	22516
880.351	22390
880.478	22466
880.605	22462
880.732	22424
880.859	22687
880.986	22386
881.112	22413
881.239	22295
881.366	22219
881.493	22131
881.619	21884
881.746	21926
881.872	21945
881.999	21979
882.125	21926
882.252	21937
882.378	21876
882.505	21930
882.631	21884
882.757	21766
882.883	21747
883.01	21644
883.136	21542
883.262	21641
883.388	21496
883.514	21736
883.64	21682
883.766	21599
883.892	21340
884.018	21359
884.143	21625
884.269	21663
884.395	21443
884.52	21264
884.646	21359
884.772	21279
884.897	21317
885.023	21329
885.148	21523
885.274	21405
885.399	21424
885.524	21291
885.65	21287
885.775	21203
885.9	21268
886.025	21435
886.15	21340
886.275	21184
886.4	21165
886.525	21336
886.65	21264
886.775	21192
886.9	21393
887.025	21526
887.149	21203
887.274	21116
887.399	21047
887.523	21112
887.648	21036
887.773	20918
887.897	21104
888.021	21001
888.146	20952
888.27	21173
888.395	21264
888.519	21222
888.643	21051
888.767	21096
888.891	21024
889.015	21009
889.139	20842
889.263	20758
889.387	21001
889.511	21066
889.635	20883
889.759	20823
889.883	20872
890.006	20823
890.13	20975
890.254	20750
890.377	20933
890.501	20606
890.624	20667
890.748	20606
890.871	20545
890.995	20339
891.118	20438
891.241	20602
891.364	20476
891.488	20545
891.611	20450
891.734	20374
891.857	20495
891.98	20446
892.103	20434
892.226	20438
892.349	20320
892.471	20214
892.594	20393
892.717	20347
892.839	20298
892.962	20278
893.085	20381
893.207	20298
893.33	20084
893.452	20278
893.575	20351
893.697	20244
893.819	20442
893.941	20450
894.064	20476
894.186	20259
894.308	20210
894.43	20431
894.552	20511
894.674	20415
894.796	20294
894.918	20389
895.04	20263
895.161	20377
895.283	20370
895.405	20206
895.526	20282
895.648	20263
895.769	20374
895.891	20275
896.012	20427
896.134	20389
896.255	20355
896.376	20233
896.498	20343
896.619	20332
896.74	20332
896.861	20438
896.982	20648
897.103	20773
897.224	20739
897.345	20541
897.466	20465
897.587	20602
897.708	20682
897.828	20507
897.949	20564
898.07	20370
898.19	20415
898.311	20629
898.431	20256
898.552	20492
898.672	20602
898.792	20632
898.913	20522
899.033	20366
899.153	20294
899.273	20301
899.393	20351
899.513	20408
899.633	20317
899.753	20225
899.873	20229
899.993	20248
900.113	20271
900.232	20229
900.352	20073
900.472	20065
900.591	19989
900.711	20062
900.83	19894
900.95	20180
901.069	20229
901.189	19982
901.308	19681
901.427	19616
901.546	19681
901.665	19632
901.784	19685
901.904	19487
902.023	19559
902.141	19266
902.26	19168
902.379	19289
902.498	19114
902.617	19156
902.735	19179
902.854	19057
902.973	19031
903.091	18928
903.21	18817
903.328	18837
903.446	18768
903.565	18726
903.683	18646
903.801	18475
903.919	18570
904.038	18555
904.156	18391
904.274	18422
904.392	18433
904.51	18388
904.627	18330
904.745	18414
904.863	18342
904.981	18117
905.098	18011
905.216	18098
905.334	18159
905.451	18125
905.569	18114
905.686	18087
905.803	17916
905.921	17828
906.038	17961
906.155	17859
906.272	17710
906.389	17604
906.506	17554
906.623	17604
906.74	17501
906.857	17467
906.974	17497
907.091	17680
907.208	17665
907.324	17543
907.441	17429
907.557	17311
907.674	17197
907.79	17246
907.907	17216
908.023	17227
908.139	17242
908.256	17235
908.372	17170
908.488	17170
908.604	16976
908.72	16987
908.836	16965
908.952	17022
909.068	16995
909.184	17056
909.3	16934
909.415	17014
909.531	17022
909.647	16793
909.762	16622
909.878	16763
909.993	16748
910.108	16649
910.224	16596
910.339	16744
910.454	16592
910.57	16470
910.685	16394
910.8	16744
910.915	16626
911.03	16584
911.145	16325
911.259	16379
911.374	16356
911.489	16131
911.604	16192
911.718	16036
911.833	16048
911.947	16029
912.062	15831
912.176	16048
912.291	16048
912.405	15998
912.519	16131
912.633	16219
912.748	16055
912.862	16010
912.976	15907
913.09	15728
913.204	15812
913.318	15888
913.431	16010
913.545	15934
913.659	15922
913.772	15797
913.886	15713
914	15679
914.113	15800
914.226	15831
914.34	15724
914.453	15450
914.566	15705
914.68	15507
914.793	15469
914.906	15355
915.019	15359
915.132	15256
915.245	15241
915.358	15336
915.47	15165
915.583	15317
915.696	15367
915.809	15317
915.921	15424
916.034	15154
916.146	15127
916.259	15142
916.371	15241
916.483	15245
916.595	15017
916.708	15222
916.82	15127
916.932	15070
917.044	15013
917.156	15020
917.268	14895
917.38	14944
917.491	14895
917.603	14971
917.715	15005
917.826	14906
917.938	14853
918.049	14796
918.161	14788
918.272	14895
918.384	14899
918.495	14902
918.606	14659
918.717	14667
918.828	14682
918.939	14724
919.05	14579
919.161	14682
919.272	14404
919.383	14469
919.494	14621
919.604	14830
919.715	14610
919.826	14617
919.936	14644
920.047	14613
920.157	14606
920.267	14887
920.378	14632
920.488	14625
920.598	14735
920.708	14880
920.818	14720
920.928	14655
921.038	14842
921.148	14830
921.258	14659
921.368	14537
921.477	14267
921.587	14358
921.697	14153
921.806	14355
921.916	14229
922.025	14050
922.134	14024
922.244	13936
922.353	14069
922.462	13879
922.571	13841
922.68	13559
922.789	13662
922.898	13704
923.007	13582
923.116	13719
923.224	13582
923.333	13594
923.442	13575
923.55	13392
923.659	13449
923.767	13525
923.876	13434
923.984	13468
924.092	13434
924.201	13381
924.309	13373
924.417	13308
924.525	13324
924.633	13407
924.741	13978
924.849	13080
924.956	13278
925.064	13076
925.172	13031
925.279	13072
925.387	13080
925.494	12973
925.602	13247
925.709	13050
925.816	12962
925.924	13057
926.031	13118
926.138	12977
926.245	12981
926.352	12973
926.459	13038
926.566	13091
926.673	12958
926.779	12837
926.886	12810
926.993	12650
927.099	12673
927.206	12604
927.312	12578
927.419	12658
927.525	12646
927.631	12654
927.737	12448
927.843	12532
927.95	12319
928.056	12452
928.162	12460
928.267	12479
928.373	12935
928.479	12544
928.585	12273
928.69	12388
928.796	12460
928.901	12235
929.007	12068
929.112	12388
929.218	12277
929.323	12232
929.428	12171
929.533	12277
929.638	12072
929.743	12110
929.848	12125
929.953	12155
930.058	11923
930.163	11859
930.267	11870
930.372	11969
930.477	11779
930.581	12049
930.685	11908
930.79	11718
930.894	11737
930.998	11676
931.103	11817
931.207	11471
931.311	11379
931.415	11273
931.519	11151
931.623	11151
