Data from test_V78500241_741.txt Node
Date: Fri Mar 25 15:15:01 CST 2022
User: usil
Spectrometer: V785-0024
Trigger mode: 0
Integration Time (sec): 4.000000E-1
Scans to average: 1
Nonlinearity correction enabled: false
Boxcar width: 0
Storing dark spectrum: false
XAxis mode: Wavelengths
Number of Pixels in Spectrum: 1024
>>>>>Begin Spectral Data<<<<<
801.071	27583
801.214	27412
801.356	27192
801.499	27294
801.641	27146
801.783	27150
801.926	27093
802.068	27005
802.211	26872
802.353	27024
802.496	26689
802.638	26655
802.78	26727
802.923	26708
803.065	26781
803.208	26724
803.35	26758
803.492	26800
803.635	26845
803.777	26758
803.919	26765
804.061	27070
804.204	26868
804.346	26868
804.488	26819
804.63	26781
804.773	26697
804.915	26830
805.057	26895
805.199	26769
805.341	26887
805.483	27089
805.626	27013
805.768	27058
805.91	26921
806.052	27051
806.194	26933
806.336	27176
806.478	27051
806.62	26960
806.762	27173
806.904	27184
807.046	27485
807.188	27340
807.33	27340
807.472	27359
807.614	27222
807.756	27389
807.898	27287
808.04	27165
808.182	27203
808.324	27348
808.465	27180
808.607	27481
808.749	27572
808.891	27633
809.033	27633
809.174	27759
809.316	27705
809.458	27580
809.6	27599
809.741	27819
809.883	27785
810.025	27983
810.166	27835
810.308	27793
810.45	27880
810.591	27857
810.733	27622
810.875	27553
811.016	27534
811.158	27485
811.299	27686
811.441	27827
811.582	27682
811.724	27557
811.865	27416
812.007	27644
812.148	27485
812.29	27644
812.431	27774
812.573	27949
812.714	27991
812.855	28162
812.997	28333
813.138	28303
813.279	28238
813.421	28303
813.562	28135
813.703	27964
813.845	27766
813.986	27603
814.127	27420
814.268	27249
814.41	27302
814.551	27272
814.692	27397
814.833	27287
814.974	27146
815.115	27313
815.256	27036
815.397	27180
815.539	27176
815.68	27180
815.821	27131
815.962	27085
816.103	27142
816.244	26982
816.385	26918
816.526	26876
816.666	26746
816.807	26674
816.948	26712
817.089	26640
817.23	26651
817.371	26446
817.512	26590
817.653	26492
817.793	26564
817.934	26648
818.075	26492
818.216	26598
818.356	26465
818.497	26503
818.638	26263
818.778	26336
818.919	26278
819.06	26218
819.2	26332
819.341	26571
819.481	26431
819.622	26815
819.762	26891
819.903	26887
820.043	26693
820.184	26678
820.324	26651
820.465	26739
820.605	26765
820.746	26708
820.886	26446
821.026	26659
821.167	26613
821.307	26625
821.447	26537
821.588	26457
821.728	26328
821.868	26202
822.008	26077
822.149	25959
822.289	25993
822.429	25742
822.569	25731
822.709	25757
822.849	25518
822.99	25544
823.13	25548
823.27	25464
823.41	25244
823.55	25293
823.69	25438
823.83	25308
823.97	25304
824.11	25133
824.25	25061
824.389	25137
824.529	25164
824.669	25255
824.809	25270
824.949	25251
825.089	25240
825.228	25190
825.368	25080
825.508	25031
825.648	25023
825.787	24985
825.927	25198
826.067	25015
826.206	24901
826.346	24947
826.485	25084
826.625	25084
826.765	25061
826.904	25065
827.044	24730
827.183	24772
827.323	24741
827.462	24719
827.601	24738
827.741	24658
827.88	24791
828.02	24582
828.159	24760
828.298	24776
828.437	24817
828.577	24757
828.716	24814
828.855	24681
828.994	24471
829.134	24334
829.273	24563
829.412	24464
829.551	24441
829.69	24547
829.829	24445
829.968	24555
830.107	24479
830.246	24448
830.385	24403
830.524	24376
830.663	24353
830.802	24144
830.941	24110
831.08	23954
831.219	24015
831.357	24174
831.496	24315
831.635	23954
831.774	23973
831.913	23973
832.051	23882
832.19	23821
832.329	23805
832.467	23691
832.606	23779
832.744	23657
832.883	23882
833.022	23638
833.16	23748
833.299	23950
833.437	23703
833.576	23912
833.714	23737
833.852	23813
833.991	23802
834.129	23779
834.267	23783
834.406	23764
834.544	23676
834.682	23729
834.821	23729
834.959	23931
835.097	23703
835.235	23828
835.373	23714
835.511	23672
835.65	23680
835.788	23649
835.926	23535
836.064	23425
836.202	23425
836.34	23672
836.478	23695
836.615	23668
836.753	23657
836.891	23790
837.029	23649
837.167	23630
837.305	23619
837.443	23444
837.58	23402
837.718	23429
837.856	23528
837.993	23410
838.131	23562
838.269	23292
838.406	23311
838.544	23258
838.681	23090
838.819	23132
838.956	23029
839.094	22881
839.231	23109
839.369	23189
839.506	23280
839.643	23231
839.781	22812
839.918	22759
840.055	22896
840.193	22915
840.33	22733
840.467	22858
840.604	22957
840.742	23094
840.879	22752
841.016	22805
841.153	22649
841.29	22965
841.427	22767
841.564	22858
841.701	22824
841.838	22729
841.975	22611
842.112	22618
842.249	22626
842.385	22577
842.522	22774
842.659	22596
842.796	22637
842.933	22599
843.069	22584
843.206	22542
843.343	22637
843.479	22675
843.616	22615
843.752	22432
843.889	22402
844.025	22523
844.162	22352
844.298	22504
844.435	22363
844.571	22322
844.708	22424
844.844	22451
844.98	22523
845.117	22557
845.253	22295
845.389	22238
845.525	22341
845.661	22124
845.798	22154
845.934	22112
846.07	22101
846.206	22154
846.342	22196
846.478	22086
846.614	21941
846.75	21732
846.886	21895
847.022	21842
847.158	21915
847.294	21888
847.429	21899
847.565	21846
847.701	22116
847.837	21663
847.972	21530
848.108	21644
848.244	21705
848.379	21450
848.515	21500
848.65	21359
848.786	21428
848.921	21431
849.057	21644
849.192	21473
849.328	21458
849.463	21393
849.598	21443
849.734	21351
849.869	21279
850.004	21180
850.14	21157
850.275	21264
850.41	21089
850.545	21226
850.68	21150
850.815	21245
850.95	21093
851.085	21378
851.22	21336
851.355	21207
851.49	21161
851.625	21089
851.76	21207
851.895	21081
852.03	21207
852.165	21024
852.299	21207
852.434	21283
852.569	21306
852.703	21203
852.838	21211
852.973	21386
853.107	21249
853.242	21154
853.376	21051
853.511	20902
853.645	20979
853.78	21146
853.914	21024
854.048	21047
854.183	20960
854.317	21009
854.451	21157
854.585	21013
854.72	21131
854.854	21001
854.988	20975
855.122	21028
855.256	20861
855.39	20937
855.524	21089
855.658	20975
855.792	21036
855.926	21112
856.06	21093
856.194	21123
856.327	21066
856.461	20998
856.595	20906
856.729	20944
856.862	21119
856.996	21093
857.13	21085
857.263	21024
857.397	21081
857.53	20868
857.664	21131
857.797	21062
857.931	21192
858.064	21066
858.197	21146
858.331	20933
858.464	21116
858.597	20891
858.731	20910
858.864	20925
858.997	20842
859.13	21051
859.263	21009
859.396	21169
859.529	21017
859.662	21062
859.795	20918
859.928	20960
860.061	21237
860.194	21135
860.327	21028
860.46	20899
860.592	21070
860.725	21226
860.858	21150
860.99	20929
861.123	21047
861.256	20982
861.388	21055
861.521	21686
861.653	20933
861.786	20887
861.918	20826
862.05	20986
862.183	20941
862.315	21085
862.447	21013
862.58	20982
862.712	20807
862.844	20686
862.976	20796
863.108	20849
863.24	21093
863.372	20648
863.504	20716
863.636	20739
863.768	20781
863.9	20788
864.032	20629
864.164	20697
864.296	20792
864.428	20876
864.559	20739
864.691	20864
864.823	20804
864.954	20769
865.086	20705
865.217	20682
865.349	20670
865.48	20697
865.612	20724
865.743	20743
865.875	20708
866.006	20640
866.137	20644
866.269	20602
866.4	20571
866.531	20484
866.662	20621
866.793	20579
866.924	20579
867.055	20663
867.186	20514
867.317	20522
867.448	20530
867.579	20526
867.71	20598
867.841	20480
867.972	20636
868.103	20537
868.233	20533
868.364	20480
868.495	20674
868.625	20701
868.756	20872
868.886	20674
869.017	20686
869.147	20830
869.278	20872
869.408	20876
869.539	20762
869.669	20960
869.799	20925
869.929	21039
870.06	20933
870.19	21150
870.32	21062
870.45	21165
870.58	21241
870.71	21363
870.84	21412
870.97	21230
871.1	21146
871.23	21348
871.36	21428
871.489	21405
871.619	21378
871.749	21351
871.879	21481
872.008	21595
872.138	21378
872.267	21450
872.397	21154
872.526	21249
872.656	21138
872.785	21192
872.915	21420
873.044	21450
873.173	21401
873.303	21466
873.432	21424
873.561	21591
873.69	21488
873.819	21420
873.948	21466
874.077	21500
874.206	21450
874.335	21389
874.464	21534
874.593	21682
874.722	21679
874.851	21690
874.979	21778
875.108	21618
875.237	21587
875.365	21625
875.494	21698
875.623	21644
875.751	21614
875.88	21724
876.008	21842
876.136	21831
876.265	21903
876.393	22207
876.521	22097
876.65	22238
876.778	21987
876.906	21945
877.034	22044
877.162	22059
877.29	21960
877.418	22025
877.546	22002
877.674	21983
877.802	22025
877.93	21994
878.058	22021
878.185	21915
878.313	21800
878.441	22051
878.568	21793
878.696	21968
878.824	22006
878.951	22010
879.079	22169
879.206	22367
879.333	22284
879.461	21960
879.588	22101
879.715	22215
879.842	22215
879.97	22097
880.097	21812
880.224	21781
880.351	21816
880.478	21778
880.605	21819
880.732	21736
880.859	22070
880.986	21831
881.112	21793
881.239	21686
881.366	21591
881.493	21515
881.619	21306
881.746	21481
881.872	21340
881.999	21298
882.125	21450
882.252	21416
882.378	21389
882.505	21500
882.631	21340
882.757	21150
882.883	21230
883.01	21089
883.136	21055
883.262	20948
883.388	20952
883.514	21100
883.64	21116
883.766	21013
883.892	20960
884.018	20967
884.143	21051
884.269	21173
884.395	20891
884.52	20682
884.646	20876
884.772	20754
884.897	20583
885.023	20724
885.148	20868
885.274	20914
885.399	20849
885.524	20819
885.65	20785
885.775	20872
885.9	20750
886.025	20811
886.15	20838
886.275	20769
886.4	20613
886.525	20746
886.65	20636
886.775	20667
886.9	20781
887.025	20891
887.149	20731
887.274	20594
887.399	20541
887.523	20587
887.648	20545
887.773	20495
887.897	20743
888.021	20579
888.146	20393
888.27	20629
888.395	20564
888.519	20507
888.643	20465
888.767	20480
888.891	20366
889.015	20385
889.139	20442
889.263	20286
889.387	20412
889.511	20545
889.635	20560
889.759	20328
889.883	20225
890.006	20347
890.13	20530
890.254	20290
890.377	20377
890.501	20062
890.624	19913
890.748	20069
890.871	20065
890.995	19902
891.118	19772
891.241	20016
891.364	19837
891.488	20001
891.611	19807
891.734	19860
891.857	19963
891.98	19868
892.103	19978
892.226	20031
892.349	19833
892.471	19742
892.594	19811
892.717	19871
892.839	19849
892.962	19849
893.085	19909
893.207	19727
893.33	19651
893.452	19799
893.575	19788
893.697	19738
893.819	19906
893.941	20012
894.064	19887
894.186	19742
894.308	19719
894.43	19898
894.552	19951
894.674	19868
894.796	19712
894.918	19822
895.04	19822
895.161	19909
895.283	19818
895.405	19746
895.526	19727
895.648	19746
895.769	19875
895.891	19803
896.012	19887
896.134	19967
896.255	19807
896.376	19788
896.498	19803
896.619	19944
896.74	19826
896.861	19868
896.982	20168
897.103	20317
897.224	20088
897.345	20054
897.466	20024
897.587	19970
897.708	20100
897.828	20100
897.949	20058
898.07	19826
898.19	19951
898.311	20084
898.431	19921
898.552	20046
898.672	20035
898.792	20088
898.913	20054
899.033	19936
899.153	19883
899.273	19772
899.393	19887
899.513	19841
899.633	19780
899.753	19731
899.873	19830
899.993	19852
900.113	19818
900.232	19784
900.352	19780
900.472	19655
900.591	19578
900.711	19575
900.83	19567
900.95	19597
901.069	19609
901.189	19578
901.308	19316
901.427	19126
901.546	19282
901.665	19187
901.784	19217
901.904	19129
902.023	19000
902.141	18700
902.26	18707
902.379	18696
902.498	18757
902.617	18631
902.735	18635
902.854	18707
902.973	18589
903.091	18369
903.21	18330
903.328	18338
903.446	18220
903.565	18304
903.683	18186
903.801	18072
903.919	18186
904.038	18182
904.156	17950
904.274	17984
904.392	17931
904.51	17980
904.627	17916
904.745	17954
904.863	17969
904.981	17764
905.098	17615
905.216	17532
905.334	17592
905.451	17532
905.569	17604
905.686	17672
905.803	17630
905.921	17463
906.038	17547
906.155	17414
906.272	17326
906.389	17292
906.506	17162
906.623	17174
906.74	17128
906.857	17014
906.974	16949
907.091	17136
907.208	17162
907.324	17155
907.441	16995
907.557	16847
907.674	16995
907.79	16847
907.907	16828
908.023	16801
908.139	16946
908.256	16797
908.372	16713
908.488	16641
908.604	16577
908.72	16550
908.836	16447
908.952	16538
909.068	16535
909.184	16615
909.3	16466
909.415	16580
909.531	16596
909.647	16341
909.762	16246
909.878	16284
909.993	16421
910.108	16280
910.224	16280
910.339	16337
910.454	16158
910.57	16074
910.685	16055
910.8	16284
910.915	16230
911.03	16040
911.145	15831
911.259	15926
911.374	15983
911.489	15846
911.604	15789
911.718	15633
911.833	15580
911.947	15549
912.062	15428
912.176	15667
912.291	15603
912.405	15694
912.519	15823
912.633	15838
912.748	15614
912.862	15614
912.976	15454
913.09	15382
913.204	15389
913.318	15481
913.431	15530
913.545	15458
913.659	15462
913.772	15359
913.886	15256
914	15329
914.113	15401
914.226	15321
914.34	15306
914.453	15131
914.566	15306
914.68	15169
914.793	15173
914.906	14986
915.019	14804
915.132	14830
915.245	14853
915.358	14967
915.47	14952
915.583	14906
915.696	15001
915.809	14990
915.921	15013
916.034	14712
916.146	14762
916.259	14838
916.371	14899
916.483	14826
916.595	14758
916.708	14686
916.82	14629
916.932	14670
917.044	14651
917.156	14716
917.268	14621
917.38	14629
917.491	14537
917.603	14484
917.715	14583
917.826	14689
917.938	14469
918.049	14465
918.161	14541
918.272	14621
918.384	14571
918.495	14412
918.606	14374
918.717	14206
918.828	14290
918.939	14298
919.05	14206
919.161	14320
919.272	14103
919.383	14100
919.494	14263
919.604	14457
919.715	14298
919.826	14195
919.936	14180
920.047	14503
920.157	14229
920.267	14393
920.378	14244
920.488	14259
920.598	14503
920.708	14530
920.818	14366
920.928	14328
921.038	14568
921.148	14461
921.258	14187
921.368	14065
921.477	14024
921.587	13993
921.697	13890
921.806	13932
921.916	13875
922.025	13715
922.134	13677
922.244	13662
922.353	13651
922.462	13578
922.571	13537
922.68	13358
922.789	13270
922.898	13343
923.007	13194
923.116	13377
923.224	13304
923.333	13285
923.442	13129
923.55	13072
923.659	13133
923.767	13217
923.876	13171
923.984	13164
924.092	13065
924.201	13072
924.309	13015
924.417	13031
924.525	12977
924.633	13008
924.741	13685
924.849	12814
924.956	12848
925.064	12829
925.172	12650
925.279	12650
925.387	12795
925.494	12875
925.602	12882
925.709	12798
925.816	12684
925.924	12688
926.031	12772
926.138	12639
926.245	12753
926.352	12601
926.459	12783
926.566	12738
926.673	12665
926.779	12509
926.886	12479
926.993	12338
927.099	12342
927.206	12213
927.312	12216
927.419	12342
927.525	12357
927.631	12330
927.737	12190
927.843	12167
927.95	12045
928.056	12098
928.162	12133
928.267	12140
928.373	12817
928.479	12216
928.585	11973
928.69	12194
928.796	12163
928.901	12049
929.007	11893
929.112	11954
929.218	11992
929.323	11893
929.428	11843
929.533	11984
929.638	11824
929.743	11851
929.848	11878
929.953	11824
930.058	11748
930.163	11619
930.267	11554
930.372	11672
930.477	11532
930.581	11707
930.685	11592
930.79	11467
930.894	11425
930.998	11448
931.103	11573
931.207	11159
931.311	11128
931.415	11086
931.519	10873
931.623	10847
