Data from test_V78500241_1881.txt Node
Date: Fri Mar 25 15:22:57 CST 2022
User: usil
Spectrometer: V785-0024
Trigger mode: 0
Integration Time (sec): 4.000000E-1
Scans to average: 1
Nonlinearity correction enabled: false
Boxcar width: 0
Storing dark spectrum: false
XAxis mode: Wavelengths
Number of Pixels in Spectrum: 1024
>>>>>Begin Spectral Data<<<<<
801.071	27899
801.214	27705
801.356	27504
801.499	27287
801.641	27294
801.783	27264
801.926	27256
802.068	27283
802.211	27207
802.353	27207
802.496	27013
802.638	27066
802.78	27085
802.923	27058
803.065	26834
803.208	26994
803.35	27085
803.492	27188
803.635	27203
803.777	26986
803.919	27207
804.061	27530
804.204	27203
804.346	27089
804.488	26952
804.63	27226
804.773	27093
804.915	27123
805.057	27245
805.199	27077
805.341	27020
805.483	27302
805.626	27226
805.768	27131
805.91	27249
806.052	27344
806.194	27272
806.336	27504
806.478	27249
806.62	27268
806.762	27439
806.904	27576
807.046	27717
807.188	27698
807.33	27667
807.472	27720
807.614	27633
807.756	27648
807.898	27587
808.04	27603
808.182	27515
808.324	27622
808.465	27648
808.607	27789
808.749	27800
808.891	28025
809.033	28063
809.174	27983
809.316	27793
809.458	27808
809.6	27732
809.741	28040
809.883	28006
810.025	28211
810.166	28238
810.308	28234
810.45	28074
810.591	28086
810.733	27895
810.875	27831
811.016	27648
811.158	27732
811.299	27865
811.441	27914
811.582	28025
811.724	27953
811.865	27755
812.007	27956
812.148	27800
812.29	27835
812.431	28055
812.573	28234
812.714	28348
812.855	28322
812.997	28478
813.138	28622
813.279	28489
813.421	28538
813.562	28280
813.703	28166
813.845	28265
813.986	27819
814.127	27686
814.268	27595
814.41	27534
814.551	27580
814.692	27553
814.833	27447
814.974	27405
815.115	27641
815.256	27340
815.397	27431
815.539	27572
815.68	27397
815.821	27252
815.962	27313
816.103	27332
816.244	27245
816.385	27237
816.526	27089
816.666	27043
816.807	26899
816.948	27017
817.089	26929
817.23	26929
817.371	26815
817.512	26868
817.653	26834
817.793	26830
817.934	26944
818.075	26937
818.216	26853
818.356	26914
818.497	26762
818.638	26663
818.778	26640
818.919	26541
819.06	26689
819.2	26887
819.341	27108
819.481	26864
819.622	27024
819.762	27085
819.903	27123
820.043	27051
820.184	26933
820.324	27070
820.465	27077
820.605	26982
820.746	26952
820.886	26876
821.026	27039
821.167	27062
821.307	27013
821.447	26796
821.588	26845
821.728	26587
821.868	26617
822.008	26530
822.149	26381
822.289	26351
822.429	26191
822.569	26103
822.709	25974
822.849	26008
822.99	25932
823.13	25727
823.27	25757
823.41	25693
823.55	25658
823.69	25662
823.83	25647
823.97	25575
824.11	25525
824.25	25381
824.389	25381
824.529	25483
824.669	25609
824.809	25727
824.949	25483
825.089	25620
825.228	25506
825.368	25453
825.508	25411
825.648	25620
825.787	25426
825.927	25422
826.067	25259
826.206	25419
826.346	25502
826.485	25529
826.625	25400
826.765	25540
826.904	25354
827.044	25091
827.183	25232
827.323	25072
827.462	25137
827.601	25236
827.741	25110
827.88	25129
828.02	25031
828.159	25019
828.298	25171
828.437	25069
828.577	25019
828.716	25050
828.855	24947
828.994	24844
829.134	24688
829.273	24890
829.412	24658
829.551	24741
829.69	24768
829.829	24768
829.968	24981
830.107	24825
830.246	24741
830.385	24665
830.524	24722
830.663	24608
830.802	24627
830.941	24471
831.08	24304
831.219	24528
831.357	24437
831.496	24753
831.635	24521
831.774	24281
831.913	24323
832.051	24205
832.19	24251
832.329	24201
832.467	24018
832.606	24155
832.744	24095
832.883	24038
833.022	24038
833.16	24079
833.299	24114
833.437	24102
833.576	24068
833.714	24125
833.852	24178
833.991	24117
834.129	24296
834.267	24136
834.406	24155
834.544	24186
834.682	24224
834.821	24171
834.959	24304
835.097	24068
835.235	24194
835.373	24235
835.511	24258
835.65	24015
835.788	24095
835.926	23809
836.064	23939
836.202	23847
836.34	24186
836.478	24182
836.615	23920
836.753	24079
836.891	24072
837.029	23988
837.167	23999
837.305	23859
837.443	23889
837.58	24022
837.718	23942
837.856	23870
837.993	23760
838.131	23828
838.269	23756
838.406	23695
838.544	23756
838.681	23535
838.819	23509
838.956	23455
839.094	23383
839.231	23383
839.369	23501
839.506	23783
839.643	23512
839.781	23288
839.918	23311
840.055	23440
840.193	23379
840.33	23124
840.467	23277
840.604	23235
840.742	23646
840.879	23041
841.016	23124
841.153	23216
841.29	23296
841.427	23098
841.564	23105
841.701	23265
841.838	23212
841.975	23067
842.112	23121
842.249	22961
842.385	23083
842.522	23242
842.659	23071
842.796	23079
842.933	22980
843.069	22995
843.206	22934
843.343	22946
843.479	23044
843.616	22995
843.752	22740
843.889	22782
844.025	22938
844.162	22611
844.298	22896
844.435	22892
844.571	22706
844.708	22889
844.844	22957
844.98	22972
845.117	22782
845.253	22687
845.389	22771
845.525	22698
845.661	22672
845.798	22573
845.934	22512
846.07	22592
846.206	22527
846.342	22573
846.478	22519
846.614	22287
846.75	22253
846.886	22246
847.022	22386
847.158	22341
847.294	22424
847.429	22371
847.565	22211
847.701	22432
847.837	21979
847.972	21975
848.108	22029
848.244	22139
848.379	21945
848.515	21915
848.65	21842
848.786	21861
848.921	21846
849.057	21831
849.192	21930
849.328	21930
849.463	21736
849.598	21732
849.734	21800
849.869	21736
850.004	21511
850.14	21701
850.275	21523
850.41	21568
850.545	21557
850.68	21595
850.815	21751
850.95	21587
851.085	21793
851.22	21690
851.355	21576
851.49	21690
851.625	21679
851.76	21603
851.895	21485
852.03	21526
852.165	21625
852.299	21671
852.434	21599
852.569	21656
852.703	21587
852.838	21705
852.973	21637
853.107	21671
853.242	21511
853.376	21549
853.511	21340
853.645	21454
853.78	21545
853.914	21420
854.048	21393
854.183	21374
854.317	21458
854.451	21542
854.585	21401
854.72	21367
854.854	21526
854.988	21370
855.122	21382
855.256	21264
855.39	21431
855.524	21599
855.658	21382
855.792	21408
855.926	21412
856.06	21382
856.194	21492
856.327	21443
856.461	21439
856.595	21435
856.729	21447
856.862	21572
856.996	21405
857.13	21469
857.263	21538
857.397	21439
857.53	21386
857.664	21466
857.797	21454
857.931	21549
858.064	21420
858.197	21530
858.331	21412
858.464	21496
858.597	21310
858.731	21370
858.864	21363
858.997	21359
859.13	21439
859.263	21481
859.396	21504
859.529	21408
859.662	21397
859.795	21291
859.928	21435
860.061	21564
860.194	21614
860.327	21450
860.46	21485
860.592	21515
860.725	21504
860.858	21511
860.99	21332
861.123	21374
861.256	21355
861.388	21454
861.521	22063
861.653	21237
861.786	21131
861.918	21325
862.05	21298
862.183	21355
862.315	21321
862.447	21397
862.58	21397
862.712	21138
862.844	21058
862.976	21272
863.108	21135
863.24	21564
863.372	20910
863.504	21043
863.636	20982
863.768	21218
863.9	21150
864.032	21036
864.164	21100
864.296	21226
864.428	21279
864.559	21252
864.691	21241
864.823	21142
864.954	21055
865.086	21150
865.217	20956
865.349	21058
865.48	20921
865.612	21100
865.743	21123
865.875	21104
866.006	20800
866.137	20975
866.269	21020
866.4	21055
866.531	21024
866.662	20895
866.793	20971
866.924	20899
867.055	21032
867.186	20929
867.317	20902
867.448	20762
867.579	20971
867.71	20792
867.841	20868
867.972	20883
868.103	20944
868.233	20986
868.364	21036
868.495	20952
868.625	21195
868.756	21237
868.886	21249
869.017	21294
869.147	21367
869.278	21294
869.408	21298
869.539	21294
869.669	21306
869.799	21173
869.929	21348
870.06	21256
870.19	21618
870.32	21500
870.45	21504
870.58	21603
870.71	21759
870.84	21701
870.97	21606
871.1	21511
871.23	21770
871.36	21804
871.489	21614
871.619	21941
871.749	21949
871.879	21766
872.008	21857
872.138	21686
872.267	21713
872.397	21667
872.526	21610
872.656	21705
872.785	21644
872.915	21911
873.044	21907
873.173	21789
873.303	21903
873.432	21876
873.561	21888
873.69	21816
873.819	21778
873.948	21895
874.077	21865
874.206	21804
874.335	21808
874.464	21956
874.593	22002
874.722	22112
874.851	22143
874.979	22029
875.108	22090
875.237	22017
875.365	22013
875.494	22040
875.623	22070
875.751	21998
875.88	22131
876.008	22131
876.136	22257
876.265	22436
876.393	22531
876.521	22557
876.65	22584
876.778	22474
876.906	22344
877.034	22329
877.162	22356
877.29	22398
877.418	22382
877.546	22386
877.674	22386
877.802	22322
877.93	22398
878.058	22394
878.185	22226
878.313	22238
878.441	22428
878.568	22181
878.696	22333
878.824	22344
878.951	22508
879.079	22531
879.206	22668
879.333	22504
879.461	22318
879.588	22470
879.715	22519
879.842	22557
879.97	22352
880.097	22291
880.224	22238
880.351	22158
880.478	22242
880.605	22177
880.732	22173
880.859	22428
880.986	22249
881.112	22192
881.239	22051
881.366	21831
881.493	21857
881.619	21819
881.746	21861
881.872	21762
881.999	21724
882.125	21736
882.252	21865
882.378	21720
882.505	21884
882.631	21583
882.757	21454
882.883	21641
883.01	21450
883.136	21435
883.262	21317
883.388	21264
883.514	21591
883.64	21454
883.766	21340
883.892	21245
884.018	21329
884.143	21454
884.269	21500
884.395	21317
884.52	21043
884.646	21096
884.772	21135
884.897	21066
885.023	21077
885.148	21211
885.274	21252
885.399	21344
885.524	21112
885.65	21085
885.775	21199
885.9	20998
886.025	21150
886.15	21237
886.275	21055
886.4	21017
886.525	21062
886.65	21062
886.775	20963
886.9	21230
887.025	21245
887.149	21112
887.274	20921
887.399	20925
887.523	20910
887.648	20899
887.773	20792
887.897	20960
888.021	20792
888.146	20906
888.27	21013
888.395	20948
888.519	20956
888.643	20906
888.767	20960
888.891	20853
889.015	20667
889.139	20720
889.263	20648
889.387	20826
889.511	20914
889.635	20765
889.759	20701
889.883	20701
890.006	20678
890.13	20823
890.254	20537
890.377	20541
890.501	20507
890.624	20412
890.748	20362
890.871	20324
890.995	20305
891.118	20176
891.241	20290
891.364	20237
891.488	20358
891.611	20218
891.734	20221
891.857	20317
891.98	20237
892.103	20290
892.226	20259
892.349	20248
892.471	20142
892.594	20065
892.717	20191
892.839	20157
892.962	20103
893.085	20309
893.207	20214
893.33	19997
893.452	20164
893.575	20229
893.697	20214
893.819	20164
893.941	20393
894.064	20305
894.186	20043
894.308	20039
894.43	20214
894.552	20324
894.674	20191
894.796	20111
894.918	20107
895.04	20035
895.161	20168
895.283	20248
895.405	20149
895.526	20138
895.648	20054
895.769	20172
895.891	20138
896.012	20336
896.134	20244
896.255	20149
896.376	20031
896.498	20035
896.619	20183
896.74	20107
896.861	20164
896.982	20526
897.103	20735
897.224	20415
897.345	20450
897.466	20263
897.587	20389
897.708	20450
897.828	20450
897.949	20305
898.07	20263
898.19	20374
898.311	20427
898.431	20366
898.552	20301
898.672	20480
898.792	20419
898.913	20282
899.033	20206
899.153	20031
899.273	20024
899.393	20027
899.513	20111
899.633	20183
899.753	20157
899.873	20016
899.993	20050
900.113	20062
900.232	20126
900.352	20035
900.472	19898
900.591	19807
900.711	19978
900.83	19852
900.95	19993
901.069	19978
901.189	19807
901.308	19441
901.427	19354
901.546	19419
901.665	19441
901.784	19510
901.904	19335
902.023	19179
902.141	19004
902.26	18954
902.379	19114
902.498	18932
902.617	18905
902.735	19027
902.854	18897
902.973	18894
903.091	18719
903.21	18612
903.328	18582
903.446	18528
903.565	18471
903.683	18464
903.801	18319
903.919	18506
904.038	18270
904.156	18262
904.274	18281
904.392	18262
904.51	18163
904.627	18194
904.745	18224
904.863	18365
904.981	17946
905.098	17908
905.216	17859
905.334	17927
905.451	17908
905.569	17783
905.686	17904
905.803	17790
905.921	17608
906.038	17824
906.155	17741
906.272	17699
906.389	17630
906.506	17467
906.623	17463
906.74	17444
906.857	17265
906.974	17326
907.091	17417
907.208	17566
907.324	17448
907.441	17239
907.557	17292
907.674	17231
907.79	17041
907.907	17098
908.023	17231
908.139	17109
908.256	16991
908.372	17018
908.488	16866
908.604	16877
908.72	16805
908.836	16889
908.952	16801
909.068	16934
909.184	17003
909.3	16881
909.415	16809
909.531	16885
909.647	16641
909.762	16603
909.878	16519
909.993	16550
910.108	16500
910.224	16569
910.339	16580
910.454	16409
910.57	16348
910.685	16280
910.8	16504
910.915	16561
911.03	16455
911.145	16280
911.259	16196
911.374	16215
911.489	16219
911.604	16013
911.718	15994
911.833	15808
911.947	15743
912.062	15770
912.176	15854
912.291	15804
912.405	15850
912.519	16017
912.633	16101
912.748	15918
912.862	15937
912.976	15705
913.09	15629
913.204	15724
913.318	15816
913.431	15808
913.545	15873
913.659	15888
913.772	15724
913.886	15622
914	15511
914.113	15618
914.226	15610
914.34	15591
914.453	15367
914.566	15561
914.68	15351
914.793	15397
914.906	15226
915.019	15116
915.132	15055
915.245	15085
915.358	15161
915.47	15169
915.583	15195
915.696	15169
915.809	15195
915.921	15214
916.034	15070
916.146	15043
916.259	14906
916.371	15085
916.483	15074
916.595	14956
916.708	14937
916.82	14971
916.932	14921
917.044	14891
917.156	14887
917.268	14693
917.38	14857
917.491	14644
917.603	14796
917.715	14853
917.826	14796
917.938	14807
918.049	14644
918.161	14689
918.272	14750
918.384	14826
918.495	14659
918.606	14537
918.717	14461
918.828	14484
918.939	14629
919.05	14404
919.161	14522
919.272	14385
919.383	14415
919.494	14541
919.604	14788
919.715	14568
919.826	14351
919.936	14454
920.047	14579
920.157	14450
920.267	14621
920.378	14590
920.488	14442
920.598	14762
920.708	14838
920.818	14651
920.928	14754
921.038	14705
921.148	14640
921.258	14473
921.368	14404
921.477	14271
921.587	14191
921.697	14046
921.806	14256
921.916	14153
922.025	13887
922.134	13925
922.244	13788
922.353	13947
922.462	13818
922.571	13776
922.68	13655
922.789	13586
922.898	13487
923.007	13449
923.116	13487
923.224	13533
923.333	13472
923.442	13381
923.55	13327
923.659	13430
923.767	13346
923.876	13324
923.984	13297
924.092	13198
924.201	13266
924.309	13274
924.417	13263
924.525	13175
924.633	13209
924.741	14142
924.849	13050
924.956	13118
925.064	12958
925.172	12829
925.279	12939
925.387	12947
925.494	12905
925.602	13027
925.709	12913
925.816	12897
925.924	12935
926.031	12909
926.138	12920
926.245	12962
926.352	12817
926.459	13008
926.566	12890
926.673	12772
926.779	12700
926.886	12616
926.993	12483
927.099	12490
927.206	12452
927.312	12525
927.419	12536
927.525	12517
927.631	12547
927.737	12414
927.843	12410
927.95	12133
928.056	12403
928.162	12426
928.267	12346
928.373	12901
928.479	12384
928.585	12136
928.69	12273
928.796	12330
928.901	12197
929.007	12106
929.112	12251
929.218	12121
929.323	12076
929.428	12038
929.533	12121
929.638	11866
929.743	11988
929.848	12057
929.953	11996
930.058	11866
930.163	11649
930.267	11718
930.372	11874
930.477	11657
930.581	11908
930.685	11832
930.79	11657
930.894	11634
930.998	11596
931.103	11695
931.207	11398
931.311	11318
931.415	11227
931.519	10995
931.623	11075
