Data from test_V78500241_2579.txt Node
Date: Fri Mar 25 15:27:49 CST 2022
User: usil
Spectrometer: V785-0024
Trigger mode: 0
Integration Time (sec): 4.000000E-1
Scans to average: 1
Nonlinearity correction enabled: false
Boxcar width: 0
Storing dark spectrum: false
XAxis mode: Wavelengths
Number of Pixels in Spectrum: 1024
>>>>>Begin Spectral Data<<<<<
801.071	27249
801.214	27207
801.356	26994
801.499	27028
801.641	26804
801.783	26804
801.926	26777
802.068	26743
802.211	26796
802.353	26796
802.496	26606
802.638	26499
802.78	26484
802.923	26351
803.065	26404
803.208	26347
803.35	26453
803.492	26613
803.635	26724
803.777	26404
803.919	26720
804.061	26864
804.204	26754
804.346	26598
804.488	26408
804.63	26613
804.773	26488
804.915	26629
805.057	26727
805.199	26689
805.341	26743
805.483	26693
805.626	26731
805.768	26636
805.91	26804
806.052	26712
806.194	26659
806.336	26838
806.478	26792
806.62	26819
806.762	26762
806.904	26998
807.046	27264
807.188	27154
807.33	27108
807.472	27275
807.614	27036
807.756	27066
807.898	26990
808.04	26864
808.182	26883
808.324	27005
808.465	27032
808.607	27241
808.749	27321
808.891	27256
809.033	27386
809.174	27477
809.316	27389
809.458	27431
809.6	27310
809.741	27355
809.883	27397
810.025	27701
810.166	27701
810.308	27675
810.45	27603
810.591	27557
810.733	27485
810.875	27260
811.016	27218
811.158	27268
811.299	27321
811.441	27469
811.582	27583
811.724	27481
811.865	27180
812.007	27291
812.148	27218
812.29	27329
812.431	27370
812.573	27469
812.714	27671
812.855	27808
812.997	27914
813.138	28143
813.279	27968
813.421	27778
813.562	27789
813.703	27625
813.845	27542
813.986	27211
814.127	27218
814.268	27036
814.41	26982
814.551	26963
814.692	26975
814.833	26982
814.974	26891
815.115	27009
815.256	26826
815.397	26792
815.539	26796
815.68	26651
815.821	26651
815.962	26667
816.103	26716
816.244	26632
816.385	26518
816.526	26503
816.666	26309
816.807	26263
816.948	26324
817.089	26336
817.23	26336
817.371	26115
817.512	26256
817.653	26214
817.793	26142
817.934	26142
818.075	26202
818.216	26267
818.356	26065
818.497	26149
818.638	25932
818.778	25944
818.919	25966
819.06	26096
819.2	26176
819.341	26320
819.481	26191
819.622	26332
819.762	26587
819.903	26473
820.043	26530
820.184	26374
820.324	26218
820.465	26579
820.605	26305
820.746	26259
820.886	26187
821.026	26370
821.167	26210
821.307	26385
821.447	26290
821.588	26195
821.728	26130
821.868	25963
822.008	25662
822.149	25674
822.289	25635
822.429	25392
822.569	25392
822.709	25335
822.849	25228
822.99	25285
823.13	25107
823.27	25221
823.41	25057
823.55	24916
823.69	25088
823.83	25004
823.97	24970
824.11	24772
824.25	24779
824.389	24753
824.529	24791
824.669	24779
824.809	25008
824.949	24840
825.089	24913
825.228	24932
825.368	24703
825.508	24753
825.648	24696
825.787	24779
825.927	24897
826.067	24768
826.206	24646
826.346	24939
826.485	24730
826.625	24791
826.765	24909
826.904	24776
827.044	24525
827.183	24464
827.323	24452
827.462	24467
827.601	24369
827.741	24376
827.88	24509
828.02	24399
828.159	24513
828.298	24308
828.437	24517
828.577	24471
828.716	24601
828.855	24365
828.994	24171
829.134	24190
829.273	24053
829.412	24220
829.551	24079
829.69	24133
829.829	24163
829.968	24194
830.107	24395
830.246	24095
830.385	24136
830.524	24072
830.663	24007
830.802	23832
830.941	23703
831.08	23680
831.219	23916
831.357	23771
831.496	23885
831.635	23684
831.774	23794
831.913	23653
832.051	23649
832.19	23554
832.329	23547
832.467	23429
832.606	23436
832.744	23493
832.883	23337
833.022	23383
833.16	23383
833.299	23551
833.437	23467
833.576	23459
833.714	23486
833.852	23486
833.991	23562
834.129	23642
834.267	23653
834.406	23554
834.544	23596
834.682	23581
834.821	23543
834.959	23767
835.097	23558
835.235	23611
835.373	23516
835.511	23539
835.65	23383
835.788	23254
835.926	23242
836.064	23223
836.202	23277
836.34	23417
836.478	23410
836.615	23334
836.753	23337
836.891	23467
837.029	23421
837.167	23318
837.305	23383
837.443	23288
837.58	23299
837.718	23318
837.856	23220
837.993	23075
838.131	23246
838.269	23075
838.406	23159
838.544	23064
838.681	22820
838.819	22873
838.956	22774
839.094	22740
839.231	22801
839.369	22877
839.506	23022
839.643	23033
839.781	22641
839.918	22618
840.055	22653
840.193	22668
840.33	22645
840.467	22721
840.604	22653
840.742	22850
840.879	22535
841.016	22584
841.153	22519
841.29	22790
841.427	22557
841.564	22713
841.701	22615
841.838	22443
841.975	22493
842.112	22592
842.249	22459
842.385	22447
842.522	22721
842.659	22577
842.796	22527
842.933	22405
843.069	22375
843.206	22238
843.343	22451
843.479	22519
843.616	22436
843.752	22249
843.889	22207
844.025	22405
844.162	22219
844.298	22246
844.435	22048
844.571	22124
844.708	22287
844.844	22265
844.98	22268
845.117	22325
845.253	22029
845.389	22040
845.525	22097
845.661	21991
845.798	21857
845.934	21975
846.07	21850
846.206	21934
846.342	21998
846.478	21846
846.614	21724
846.75	21625
846.886	21644
847.022	21686
847.158	21682
847.294	21743
847.429	21679
847.565	21614
847.701	21857
847.837	21348
847.972	21287
848.108	21614
848.244	21359
848.379	21283
848.515	21157
848.65	21207
848.786	21405
848.921	21161
849.057	21211
849.192	21329
849.328	21408
849.463	21146
849.598	21260
849.734	21074
849.869	21051
850.004	21062
850.14	21017
850.275	21077
850.41	21020
850.545	20941
850.68	20967
850.815	21036
850.95	20990
851.085	21119
851.22	21032
851.355	21146
851.49	21047
851.625	21036
851.76	21020
851.895	21024
852.03	20963
852.165	21077
852.299	21081
852.434	21036
852.569	21085
852.703	20982
852.838	21005
852.973	21005
853.107	21211
853.242	20956
853.376	20758
853.511	20655
853.645	20849
853.78	20899
853.914	20823
854.048	20807
854.183	20800
854.317	20944
854.451	21020
854.585	20887
854.72	20834
854.854	20952
854.988	20849
855.122	20773
855.256	20670
855.39	20921
855.524	20895
855.658	20823
855.792	20876
855.926	20967
856.06	20880
856.194	21043
856.327	20880
856.461	20746
856.595	20708
856.729	20849
856.862	20887
856.996	20788
857.13	20887
857.263	20948
857.397	20899
857.53	20864
857.664	20880
857.797	20902
857.931	20933
858.064	20895
858.197	21001
858.331	20845
858.464	20838
858.597	20575
858.731	20792
858.864	20667
858.997	20804
859.13	20765
859.263	20914
859.396	20948
859.529	20807
859.662	20735
859.795	20842
859.928	20811
860.061	21047
860.194	20986
860.327	20887
860.46	20883
860.592	20910
860.725	20933
860.858	20929
860.99	20910
861.123	20807
861.256	20667
861.388	20842
861.521	21424
861.653	20701
861.786	20579
861.918	20750
862.05	20720
862.183	20678
862.315	20796
862.447	20842
862.58	20720
862.712	20526
862.844	20431
862.976	20800
863.108	20545
863.24	21001
863.372	20434
863.504	20522
863.636	20625
863.768	20659
863.9	20530
864.032	20465
864.164	20427
864.296	20454
864.428	20644
864.559	20602
864.691	20644
864.823	20480
864.954	20617
865.086	20465
865.217	20442
865.349	20377
865.48	20499
865.612	20507
865.743	20556
865.875	20473
866.006	20415
866.137	20480
866.269	20560
866.4	20606
866.531	20450
866.662	20351
866.793	20412
866.924	20404
867.055	20454
867.186	20362
867.317	20366
867.448	20320
867.579	20313
867.71	20404
867.841	20412
867.972	20434
868.103	20438
868.233	20347
868.364	20343
868.495	20415
868.625	20571
868.756	20644
868.886	20560
869.017	20648
869.147	20667
869.278	20705
869.408	20670
869.539	20697
869.669	20731
869.799	20758
869.929	20693
870.06	20632
870.19	20998
870.32	20876
870.45	20914
870.58	21055
870.71	21089
870.84	21119
870.97	21036
871.1	21074
871.23	21180
871.36	21268
871.489	21093
871.619	21135
871.749	21207
871.879	21222
872.008	21401
872.138	21184
872.267	21256
872.397	21089
872.526	21096
872.656	21214
872.785	21062
872.915	21264
873.044	21294
873.173	21256
873.303	21370
873.432	21157
873.561	21302
873.69	21287
873.819	21252
873.948	21317
874.077	21287
874.206	21245
874.335	21287
874.464	21458
874.593	21458
874.722	21416
874.851	21481
874.979	21549
875.108	21587
875.237	21458
875.365	21492
875.494	21568
875.623	21515
875.751	21511
875.88	21519
876.008	21580
876.136	21747
876.265	21873
876.393	22048
876.521	21937
876.65	22013
876.778	21987
876.906	21918
877.034	21789
877.162	21819
877.29	21876
877.418	21804
877.546	21743
877.674	21869
877.802	21880
877.93	21800
878.058	21804
878.185	21819
878.313	21713
878.441	21759
878.568	21747
878.696	21812
878.824	21953
878.951	21964
879.079	21998
879.206	22196
879.333	21979
879.461	21964
879.588	21975
879.715	21991
879.842	22101
879.97	21903
880.097	21663
880.224	21652
880.351	21603
880.478	21759
880.605	21583
880.732	21572
880.859	21941
880.986	21694
881.112	21736
881.239	21466
881.366	21329
881.493	21348
881.619	21401
881.746	21420
881.872	21291
881.999	21233
882.125	21161
882.252	21256
882.378	21192
882.505	21424
882.631	21123
882.757	21047
882.883	21066
883.01	20998
883.136	20849
883.262	20842
883.388	20773
883.514	20944
883.64	20952
883.766	20902
883.892	20765
884.018	20796
884.143	20838
884.269	20895
884.395	20651
884.52	20537
884.646	20659
884.772	20499
884.897	20495
885.023	20629
885.148	20693
885.274	20811
885.399	20670
885.524	20617
885.65	20762
885.775	20632
885.9	20606
886.025	20670
886.15	20712
886.275	20579
886.4	20602
886.525	20495
886.65	20552
886.775	20408
886.9	20663
887.025	20792
887.149	20541
887.274	20317
887.399	20244
887.523	20431
887.648	20278
887.773	20229
887.897	20385
888.021	20351
888.146	20237
888.27	20526
888.395	20408
888.519	20332
888.643	20507
888.767	20415
888.891	20286
889.015	20187
889.139	20161
889.263	20168
889.387	20374
889.511	20469
889.635	20294
889.759	20122
889.883	20168
890.006	20248
890.13	20301
890.254	20187
890.377	20062
890.501	19871
890.624	19947
890.748	20012
890.871	19852
890.995	19750
891.118	19689
891.241	19723
891.364	19822
891.488	19875
891.611	19738
891.734	19734
891.857	19826
891.98	19655
892.103	19685
892.226	19723
892.349	19693
892.471	19491
892.594	19681
892.717	19674
892.839	19712
892.962	19548
893.085	19753
893.207	19651
893.33	19540
893.452	19575
893.575	19719
893.697	19594
893.819	19841
893.941	19921
894.064	19742
894.186	19666
894.308	19689
894.43	19677
894.552	19677
894.674	19791
894.796	19495
894.918	19674
895.04	19696
895.161	19731
895.283	19803
895.405	19677
895.526	19693
895.648	19559
895.769	19662
895.891	19696
896.012	19719
896.134	19772
896.255	19643
896.376	19727
896.498	19677
896.619	19643
896.74	19540
896.861	19738
896.982	19947
897.103	20130
897.224	19902
897.345	19890
897.466	19746
897.587	19868
897.708	20046
897.828	19986
897.949	19868
898.07	19769
898.19	19856
898.311	19940
898.431	19925
898.552	19887
898.672	20024
898.792	19940
898.913	19890
899.033	19738
899.153	19674
899.273	19537
899.393	19700
899.513	19693
899.633	19719
899.753	19719
899.873	19544
899.993	19731
900.113	19620
900.232	19620
900.352	19552
900.472	19506
900.591	19403
900.711	19578
900.83	19373
900.95	19506
901.069	19472
901.189	19293
901.308	19133
901.427	18947
901.546	19034
901.665	18920
901.784	18985
901.904	18916
902.023	18734
902.141	18684
902.26	18486
902.379	18620
902.498	18547
902.617	18422
902.735	18525
902.854	18506
902.973	18475
903.091	18327
903.21	18216
903.328	18285
903.446	18205
903.565	18091
903.683	17999
903.801	17836
903.919	17965
904.038	17954
904.156	17821
904.274	17870
904.392	17832
904.51	17828
904.627	17847
904.745	17802
904.863	17836
904.981	17577
905.098	17524
905.216	17520
905.334	17493
905.451	17440
905.569	17406
905.686	17516
905.803	17535
905.921	17239
906.038	17334
906.155	17166
906.272	17193
906.389	17143
906.506	17204
906.623	16987
906.74	16953
906.857	16919
906.974	16965
907.091	17071
907.208	17136
907.324	17128
907.441	16885
907.557	16710
907.674	16774
907.79	16645
907.907	16683
908.023	16812
908.139	16706
908.256	16611
908.372	16592
908.488	16622
908.604	16508
908.72	16443
908.836	16512
908.952	16474
909.068	16489
909.184	16478
909.3	16367
909.415	16577
909.531	16466
909.647	16143
909.762	16181
909.878	16207
909.993	16154
910.108	16166
910.224	16116
910.339	16166
910.454	16158
910.57	15941
910.685	15937
910.8	16097
910.915	16120
911.03	15911
911.145	15766
911.259	15717
911.374	15804
911.489	15641
911.604	15557
911.718	15580
911.833	15606
911.947	15557
912.062	15496
912.176	15485
912.291	15572
912.405	15610
912.519	15770
912.633	15641
912.748	15557
912.862	15526
912.976	15359
913.09	15176
913.204	15378
913.318	15298
913.431	15439
913.545	15386
913.659	15389
913.772	15294
913.886	15249
914	15150
914.113	15211
914.226	15298
914.34	15150
914.453	14941
914.566	15176
914.68	14952
914.793	14952
914.906	14819
915.019	14800
915.132	14769
915.245	14697
915.358	14830
915.47	14815
915.583	14712
915.696	14705
915.809	14902
915.921	14834
916.034	14731
916.146	14727
916.259	14693
916.371	14720
916.483	14663
916.595	14594
916.708	14556
916.82	14667
916.932	14564
917.044	14556
917.156	14495
917.268	14457
917.38	14469
917.491	14442
917.603	14499
917.715	14461
917.826	14503
917.938	14393
918.049	14210
918.161	14381
918.272	14488
918.384	14514
918.495	14336
918.606	14206
918.717	14157
918.828	14282
918.939	14252
919.05	14142
919.161	14073
919.272	13936
919.383	14035
919.494	14233
919.604	14366
919.715	14263
919.826	14100
919.936	14096
920.047	14267
920.157	14180
920.267	14244
920.378	14199
920.488	14172
920.598	14294
920.708	14358
920.818	14313
920.928	14233
921.038	14446
921.148	14404
921.258	14126
921.368	14081
921.477	13944
921.587	13913
921.697	13803
921.806	13909
921.916	13742
922.025	13715
922.134	13636
922.244	13559
922.353	13624
922.462	13483
922.571	13362
922.68	13259
922.789	13209
922.898	13240
923.007	13141
923.116	13225
923.224	13190
923.333	13171
923.442	13084
923.55	13034
923.659	13069
923.767	13099
923.876	12947
923.984	13069
924.092	12943
924.201	12947
924.309	12935
924.417	12981
924.525	12890
924.633	12905
924.741	13833
924.849	12749
924.956	12787
925.064	12696
925.172	12597
925.279	12593
925.387	12688
925.494	12635
925.602	12817
925.709	12665
925.816	12517
925.924	12658
926.031	12623
926.138	12585
926.245	12635
926.352	12513
926.459	12646
926.566	12688
926.673	12483
926.779	12429
926.886	12422
926.993	12296
927.099	12239
927.206	12133
927.312	12133
927.419	12277
927.525	12117
927.631	12178
927.737	12125
927.843	12060
927.95	11942
928.056	12007
928.162	12038
928.267	12095
928.373	12608
928.479	12041
928.585	11904
928.69	11950
928.796	12045
928.901	11958
929.007	11824
929.112	11912
929.218	11931
929.323	11794
929.428	11798
929.533	11889
929.638	11722
929.743	11714
929.848	11634
929.953	11672
930.058	11661
930.163	11444
930.267	11474
930.372	11535
930.477	11372
930.581	11680
930.685	11486
930.79	11372
930.894	11353
930.998	11258
931.103	11474
931.207	11151
931.311	11006
931.415	10858
931.519	10691
931.623	10763
