Data from test_V78500241_2328.txt Node
Date: Fri Mar 25 15:26:04 CST 2022
User: usil
Spectrometer: V785-0024
Trigger mode: 0
Integration Time (sec): 4.000000E-1
Scans to average: 1
Nonlinearity correction enabled: false
Boxcar width: 0
Storing dark spectrum: false
XAxis mode: Wavelengths
Number of Pixels in Spectrum: 1024
>>>>>Begin Spectral Data<<<<<
801.071	27481
801.214	27576
801.356	27306
801.499	27176
801.641	27081
801.783	27058
801.926	27058
802.068	27081
802.211	26910
802.353	26864
802.496	26792
802.638	26712
802.78	26598
802.923	26602
803.065	26579
803.208	26598
803.35	26712
803.492	26796
803.635	26826
803.777	26830
803.919	26857
804.061	27184
804.204	26788
804.346	26788
804.488	26921
804.63	26944
804.773	26876
804.915	26956
805.057	27096
805.199	26765
805.341	26887
805.483	26895
805.626	26944
805.768	26948
805.91	26929
806.052	26979
806.194	26963
806.336	27135
806.478	27081
806.62	26990
806.762	27089
806.904	27386
807.046	27416
807.188	27313
807.33	27477
807.472	27507
807.614	27317
807.756	27481
807.898	27302
808.04	27157
808.182	27199
808.324	27355
808.465	27348
808.607	27557
808.749	27519
808.891	27614
809.033	27709
809.174	27610
809.316	27538
809.458	27500
809.6	27663
809.741	27622
809.883	27812
810.025	27835
810.166	27964
810.308	27888
810.45	27899
810.591	27728
810.733	27599
810.875	27496
811.016	27519
811.158	27348
811.299	27618
811.441	27781
811.582	27831
811.724	27595
811.865	27637
812.007	27530
812.148	27469
812.29	27576
812.431	27720
812.573	27895
812.714	28040
812.855	28048
812.997	28249
813.138	28226
813.279	28284
813.421	28029
813.562	28120
813.703	27968
813.845	27720
813.986	27557
814.127	27431
814.268	27279
814.41	27348
814.551	27184
814.692	27325
814.833	27188
814.974	27233
815.115	27150
815.256	27074
815.397	26998
815.539	27146
815.68	27017
815.821	26986
815.962	27119
816.103	27051
816.244	26960
816.385	26712
816.526	26891
816.666	26533
816.807	26575
816.948	26575
817.089	26731
817.23	26651
817.371	26606
817.512	26473
817.653	26549
817.793	26511
817.934	26560
818.075	26674
818.216	26590
818.356	26423
818.497	26453
818.638	26244
818.778	26275
818.919	26305
819.06	26351
819.2	26526
819.341	26488
819.481	26503
819.622	26712
819.762	26758
819.903	26762
820.043	26762
820.184	26682
820.324	26606
820.465	26686
820.605	26560
820.746	26495
820.886	26522
821.026	26598
821.167	26564
821.307	26758
821.447	26507
821.588	26393
821.728	26324
821.868	26145
822.008	25989
822.149	26126
822.289	26039
822.429	25833
822.569	25734
822.709	25597
822.849	25529
822.99	25575
823.13	25449
823.27	25514
823.41	25255
823.55	25171
823.69	25350
823.83	25225
823.97	25278
824.11	25194
824.25	25168
824.389	25164
824.529	25141
824.669	25069
824.809	25145
824.949	25225
825.089	25190
825.228	25187
825.368	24996
825.508	24863
825.648	24905
825.787	25004
825.927	25004
826.067	24985
826.206	24943
826.346	24981
826.485	25061
826.625	24951
826.765	25103
826.904	25008
827.044	24783
827.183	24806
827.323	24791
827.462	24741
827.601	24673
827.741	24665
827.88	24707
828.02	24544
828.159	24757
828.298	24787
828.437	24764
828.577	24616
828.716	24825
828.855	24555
828.994	24403
829.134	24361
829.273	24494
829.412	24448
829.551	24270
829.69	24327
829.829	24464
829.968	24559
830.107	24429
830.246	24460
830.385	24399
830.524	24391
830.663	24163
830.802	24102
830.941	24060
831.08	24174
831.219	24220
831.357	24182
831.496	24232
831.635	23996
831.774	24018
831.913	23863
832.051	23726
832.19	23863
832.329	23828
832.467	23691
832.606	23783
832.744	23585
832.883	23680
833.022	23646
833.16	23733
833.299	23672
833.437	23771
833.576	23805
833.714	23760
833.852	23832
833.991	23901
834.129	23859
834.267	23805
834.406	23771
834.544	23714
834.682	23699
834.821	23554
834.959	23904
835.097	23627
835.235	23882
835.373	23657
835.511	23676
835.65	23646
835.788	23570
835.926	23512
836.064	23478
836.202	23448
836.34	23562
836.478	23745
836.615	23596
836.753	23531
836.891	23611
837.029	23596
837.167	23596
837.305	23471
837.443	23577
837.58	23387
837.718	23383
837.856	23330
837.993	23398
838.131	23395
838.269	23216
838.406	23383
838.544	23178
838.681	23067
838.819	23159
838.956	23018
839.094	23022
839.231	22896
839.369	22987
839.506	23280
839.643	23117
839.781	22862
839.918	22805
840.055	22919
840.193	22934
840.33	22778
840.467	22786
840.604	22812
840.742	23200
840.879	22698
841.016	22759
841.153	22679
841.29	22961
841.427	22847
841.564	22934
841.701	22790
841.838	22786
841.975	22698
842.112	22607
842.249	22531
842.385	22508
842.522	22801
842.659	22694
842.796	22455
842.933	22596
843.069	22580
843.206	22466
843.343	22596
843.479	22531
843.616	22432
843.752	22337
843.889	22409
844.025	22462
844.162	22470
844.298	22314
844.435	22253
844.571	22382
844.708	22466
844.844	22481
844.98	22440
845.117	22508
845.253	22272
845.389	22230
845.525	22215
845.661	22150
845.798	22021
845.934	22109
846.07	21979
846.206	22116
846.342	22246
846.478	22097
846.614	21857
846.75	21747
846.886	21827
847.022	21884
847.158	21838
847.294	21804
847.429	21854
847.565	21842
847.701	22017
847.837	21511
847.972	21530
848.108	21576
848.244	21618
848.379	21428
848.515	21332
848.65	21329
848.786	21538
848.921	21389
849.057	21500
849.192	21496
849.328	21492
849.463	21428
849.598	21431
849.734	21317
849.869	21211
850.004	21157
850.14	21298
850.275	21188
850.41	21066
850.545	21157
850.68	21116
850.815	21108
850.95	21157
851.085	21443
851.22	21329
851.355	21184
851.49	21051
851.625	21032
851.76	21131
851.895	21058
852.03	21157
852.165	21192
852.299	21207
852.434	21294
852.569	21268
852.703	21096
852.838	21264
852.973	21302
853.107	21310
853.242	21123
853.376	21020
853.511	20914
853.645	20933
853.78	21032
853.914	21058
854.048	20910
854.183	20994
854.317	21104
854.451	21173
854.585	21024
854.72	20941
854.854	21081
854.988	21070
855.122	21013
855.256	20872
855.39	20906
855.524	21013
855.658	21013
855.792	20895
855.926	21024
856.06	20979
856.194	21020
856.327	20963
856.461	20979
856.595	20937
856.729	20975
856.862	21157
856.996	21036
857.13	21036
857.263	21104
857.397	21017
857.53	20887
857.664	21135
857.797	21127
857.931	21077
858.064	21028
858.197	21142
858.331	21100
858.464	20921
858.597	20883
858.731	20899
858.864	20994
858.997	20941
859.13	21028
859.263	21062
859.396	21062
859.529	21001
859.662	21066
859.795	20933
859.928	21058
860.061	21093
860.194	21203
860.327	21017
860.46	20925
860.592	21146
860.725	21085
860.858	21093
860.99	21005
861.123	20914
861.256	20880
861.388	20891
861.521	21591
861.653	20960
861.786	20754
861.918	20769
862.05	20925
862.183	20891
862.315	20963
862.447	20929
862.58	20876
862.712	20655
862.844	20655
862.976	20838
863.108	20788
863.24	21180
863.372	20720
863.504	20720
863.636	20754
863.768	20765
863.9	20636
864.032	20587
864.164	20796
864.296	20708
864.428	20800
864.559	20788
864.691	20800
864.823	20731
864.954	20781
865.086	20571
865.217	20743
865.349	20579
865.48	20629
865.612	20674
865.743	20868
865.875	20625
866.006	20651
866.137	20716
866.269	20621
866.4	20659
866.531	20724
866.662	20575
866.793	20514
866.924	20579
867.055	20640
867.186	20640
867.317	20522
867.448	20533
867.579	20533
867.71	20507
867.841	20446
867.972	20781
868.103	20587
868.233	20598
868.364	20613
868.495	20655
868.625	20716
868.756	20849
868.886	20746
869.017	20800
869.147	20880
869.278	21001
869.408	20868
869.539	20750
869.669	20842
869.799	20842
869.929	20952
870.06	20918
870.19	21146
870.32	21074
870.45	21093
870.58	21188
870.71	21351
870.84	21237
870.97	21157
871.1	21165
871.23	21313
871.36	21439
871.489	21287
871.619	21363
871.749	21477
871.879	21416
872.008	21580
872.138	21485
872.267	21534
872.397	21382
872.526	21317
872.656	21325
872.785	21211
872.915	21462
873.044	21507
873.173	21386
873.303	21496
873.432	21496
873.561	21542
873.69	21450
873.819	21462
873.948	21420
874.077	21458
874.206	21450
874.335	21279
874.464	21526
874.593	21637
874.722	21652
874.851	21648
874.979	21759
875.108	21736
875.237	21618
875.365	21580
875.494	21652
875.623	21675
875.751	21675
875.88	21781
876.008	21857
876.136	21937
876.265	22017
876.393	22109
876.521	22150
876.65	22169
876.778	22112
876.906	22036
877.034	22048
877.162	22059
877.29	21972
877.418	22097
877.546	22093
877.674	22044
877.802	22025
877.93	22082
878.058	22032
878.185	21835
878.313	22051
878.441	21991
878.568	21854
878.696	21956
878.824	22017
878.951	22032
879.079	22169
879.206	22211
879.333	22242
879.461	22067
879.588	21991
879.715	22154
879.842	22268
879.97	22097
880.097	21861
880.224	21789
880.351	21876
880.478	21888
880.605	21717
880.732	21770
880.859	22059
880.986	21911
881.112	21857
881.239	21724
881.366	21557
881.493	21545
881.619	21424
881.746	21401
881.872	21370
881.999	21389
882.125	21348
882.252	21466
882.378	21351
882.505	21466
882.631	21264
882.757	21157
882.883	21214
883.01	21100
883.136	21085
883.262	20994
883.388	20971
883.514	21138
883.64	21173
883.766	21070
883.892	20895
884.018	20952
884.143	21001
884.269	21074
884.395	20868
884.52	20731
884.646	20800
884.772	20678
884.897	20629
885.023	20701
885.148	20868
885.274	20994
885.399	20956
885.524	20902
885.65	20743
885.775	20804
885.9	20769
886.025	20990
886.15	20826
886.275	20853
886.4	20549
886.525	20807
886.65	20705
886.775	20712
886.9	20746
887.025	20948
887.149	20716
887.274	20629
887.399	20575
887.523	20594
887.648	20492
887.773	20438
887.897	20689
888.021	20499
888.146	20564
888.27	20625
888.395	20568
888.519	20590
888.643	20575
888.767	20613
888.891	20370
889.015	20347
889.139	20393
889.263	20332
889.387	20503
889.511	20549
889.635	20514
889.759	20404
889.883	20389
890.006	20358
890.13	20488
890.254	20153
890.377	20180
890.501	20122
890.624	19967
890.748	20191
890.871	20024
890.995	19879
891.118	19826
891.241	20065
891.364	19925
891.488	20027
891.611	19894
891.734	19959
891.857	20012
891.98	19894
892.103	20107
892.226	19959
892.349	19860
892.471	19776
892.594	19894
892.717	19932
892.839	19776
892.962	19734
893.085	19989
893.207	19799
893.33	19674
893.452	19753
893.575	19944
893.697	19784
893.819	19951
893.941	20054
894.064	20005
894.186	19772
894.308	19681
894.43	19932
894.552	19997
894.674	19837
894.796	19696
894.918	19753
895.04	19795
895.161	20058
895.283	19822
895.405	19746
895.526	19807
895.648	19776
895.769	19852
895.891	19845
896.012	19902
896.134	19841
896.255	19864
896.376	19849
896.498	19776
896.619	19890
896.74	19852
896.861	19852
896.982	20077
897.103	20309
897.224	20199
897.345	20084
897.466	19986
897.587	20027
897.708	20096
897.828	20001
897.949	19921
898.07	19925
898.19	20050
898.311	20199
898.431	20001
898.552	19951
898.672	20145
898.792	20134
898.913	20069
899.033	19936
899.153	19906
899.273	19818
899.393	19871
899.513	19811
899.633	19803
899.753	19833
899.873	19719
899.993	19772
900.113	19696
900.232	19818
900.352	19655
900.472	19578
900.591	19613
900.711	19632
900.83	19643
900.95	19575
901.069	19791
901.189	19499
901.308	19270
901.427	19225
901.546	19236
901.665	19247
901.784	19213
901.904	19034
902.023	18909
902.141	18806
902.26	18711
902.379	18779
902.498	18730
902.617	18589
902.735	18696
902.854	18722
902.973	18642
903.091	18369
903.21	18399
903.328	18433
903.446	18178
903.565	18258
903.683	18197
903.801	18117
903.919	18053
904.038	18102
904.156	17931
904.274	18171
904.392	17939
904.51	17843
904.627	17969
904.745	18038
904.863	18079
904.981	17745
905.098	17714
905.216	17634
905.334	17771
905.451	17608
905.569	17608
905.686	17668
905.803	17646
905.921	17372
906.038	17379
906.155	17353
906.272	17337
906.389	17345
906.506	17178
906.623	17208
906.74	17090
906.857	17010
906.974	17105
907.091	17277
907.208	17296
907.324	17178
907.441	17071
907.557	16972
907.674	16862
907.79	16824
907.907	16873
908.023	16885
908.139	16858
908.256	16733
908.372	16736
908.488	16771
908.604	16630
908.72	16485
908.836	16675
908.952	16455
909.068	16615
909.184	16733
909.3	16523
909.415	16596
909.531	16577
909.647	16325
909.762	16287
909.878	16223
909.993	16329
910.108	16303
910.224	16200
910.339	16268
910.454	16253
910.57	16101
910.685	16082
910.8	16352
910.915	16226
911.03	16116
911.145	16021
911.259	15857
911.374	15949
911.489	15838
911.604	15751
911.718	15622
911.833	15587
911.947	15637
912.062	15462
912.176	15633
912.291	15671
912.405	15667
912.519	15827
912.633	15789
912.748	15644
912.862	15557
912.976	15580
913.09	15408
913.204	15344
913.318	15466
913.431	15568
913.545	15553
913.659	15553
913.772	15428
913.886	15397
914	15321
914.113	15279
914.226	15374
914.34	15374
914.453	15264
914.566	15279
914.68	15039
914.793	15150
914.906	14925
915.019	14944
915.132	14762
915.245	14826
915.358	14796
915.47	14868
915.583	14842
915.696	14864
915.809	15036
915.921	15028
916.034	14838
916.146	14750
916.259	14731
916.371	14880
916.483	14819
916.595	14712
916.708	14743
916.82	14750
916.932	14739
917.044	14598
917.156	14632
917.268	14606
917.38	14560
917.491	14507
917.603	14514
917.715	14518
917.826	14522
917.938	14457
918.049	14263
918.161	14454
918.272	14583
918.384	14640
918.495	14495
918.606	14309
918.717	14290
918.828	14301
918.939	14355
919.05	14180
919.161	14298
919.272	14088
919.383	14191
919.494	14396
919.604	14476
919.715	14282
919.826	14206
919.936	14237
920.047	14412
920.157	14267
920.267	14434
920.378	14332
920.488	14229
920.598	14347
920.708	14560
920.818	14263
920.928	14328
921.038	14541
921.148	14461
921.258	14301
921.368	14065
921.477	14073
921.587	13970
921.697	13883
921.806	13925
921.916	13849
922.025	13685
922.134	13662
922.244	13590
922.353	13742
922.462	13460
922.571	13521
922.68	13308
922.789	13266
922.898	13285
923.007	13198
923.116	13403
923.224	13293
923.333	13285
923.442	13160
923.55	13183
923.659	13190
923.767	13190
923.876	13076
923.984	13240
924.092	13027
924.201	13050
924.309	13061
924.417	13008
924.525	12882
924.633	12905
924.741	13894
924.849	12696
924.956	12943
925.064	12730
925.172	12650
925.279	12726
925.387	12787
925.494	12673
925.602	12791
925.709	12757
925.816	12703
925.924	12669
926.031	12817
926.138	12692
926.245	12745
926.352	12555
926.459	12654
926.566	12700
926.673	12620
926.779	12479
926.886	12521
926.993	12266
927.099	12327
927.206	12292
927.312	12213
927.419	12399
927.525	12292
927.631	12285
927.737	12186
927.843	12117
927.95	12129
928.056	12041
928.162	12148
928.267	12110
928.373	12810
928.479	12228
928.585	12053
928.69	12125
928.796	12148
928.901	11961
929.007	11847
929.112	11980
929.218	11927
929.323	11783
929.428	11824
929.533	12076
929.638	11927
929.743	11821
929.848	11889
929.953	11798
930.058	11729
930.163	11638
930.267	11520
930.372	11695
930.477	11486
930.581	11699
930.685	11600
930.79	11417
930.894	11524
930.998	11429
931.103	11570
931.207	11197
931.311	11162
931.415	11136
931.519	10854
931.623	10763
