Data from test_V78500241_1181.txt Node
Date: Fri Mar 25 15:18:04 CST 2022
User: usil
Spectrometer: V785-0024
Trigger mode: 0
Integration Time (sec): 4.000000E-1
Scans to average: 1
Nonlinearity correction enabled: false
Boxcar width: 0
Storing dark spectrum: false
XAxis mode: Wavelengths
Number of Pixels in Spectrum: 1024
>>>>>Begin Spectral Data<<<<<
801.071	27557
801.214	27595
801.356	27302
801.499	27317
801.641	27039
801.783	27214
801.926	27264
802.068	27135
802.211	27184
802.353	27058
802.496	26944
802.638	26746
802.78	26937
802.923	26769
803.065	26629
803.208	26594
803.35	26895
803.492	26899
803.635	27157
803.777	26830
803.919	27051
804.061	27351
804.204	27081
804.346	26933
804.488	26891
804.63	26990
804.773	26750
804.915	27032
805.057	27176
805.199	26948
805.341	27043
805.483	27188
805.626	27325
805.768	27055
805.91	27150
806.052	27192
806.194	26971
806.336	27344
806.478	27214
806.62	27161
806.762	27283
806.904	27389
807.046	27583
807.188	27534
807.33	27492
807.472	27469
807.614	27443
807.756	27580
807.898	27427
808.04	27359
808.182	27420
808.324	27553
808.465	27427
808.607	27603
808.749	27800
808.891	27857
809.033	28010
809.174	27854
809.316	27713
809.458	27793
809.6	27675
809.741	27964
809.883	27899
810.025	28070
810.166	28090
810.308	28025
810.45	27941
810.591	27953
810.733	27842
810.875	27983
811.016	27644
811.158	27709
811.299	27842
811.441	27800
811.582	27724
811.724	27751
811.865	27625
812.007	27797
812.148	27751
812.29	27766
812.431	27930
812.573	28013
812.714	28101
812.855	28204
812.997	28333
813.138	28417
813.279	28459
813.421	28253
813.562	28371
813.703	28154
813.845	27964
813.986	27724
814.127	27496
814.268	27477
814.41	27583
814.551	27283
814.692	27572
814.833	27401
814.974	27283
815.115	27439
815.256	27344
815.397	27329
815.539	27264
815.68	27275
815.821	27165
815.962	27222
816.103	27104
816.244	27176
816.385	27131
816.526	27070
816.666	26906
816.807	26773
816.948	26811
817.089	26788
817.23	26765
817.371	26720
817.512	26606
817.653	26735
817.793	26746
817.934	26838
818.075	26845
818.216	26689
818.356	26746
818.497	26556
818.638	26412
818.778	26396
818.919	26450
819.06	26587
819.2	26575
819.341	26788
819.481	26659
819.622	26861
819.762	27043
819.903	26937
820.043	26857
820.184	26876
820.324	26815
820.465	26785
820.605	26906
820.746	26842
820.886	26632
821.026	26796
821.167	26826
821.307	26868
821.447	26636
821.588	26621
821.728	26492
821.868	26389
822.008	26259
822.149	26176
822.289	26278
822.429	26031
822.569	25966
822.709	25887
822.849	25639
822.99	25704
823.13	25765
823.27	25635
823.41	25586
823.55	25491
823.69	25499
823.83	25476
823.97	25419
824.11	25422
824.25	25270
824.389	25396
824.529	25556
824.669	25384
824.809	25609
824.949	25476
825.089	25441
825.228	25422
825.368	25274
825.508	25228
825.648	25278
825.787	25255
825.927	25384
826.067	25152
826.206	25221
826.346	25274
826.485	25377
826.625	25175
826.765	25445
826.904	25278
827.044	25015
827.183	24958
827.323	24909
827.462	24951
827.601	24886
827.741	24970
827.88	24913
828.02	24894
828.159	24913
828.298	24935
828.437	25084
828.577	24890
828.716	25000
828.855	24844
828.994	24791
829.134	24707
829.273	24684
829.412	24559
829.551	24547
829.69	24711
829.829	24593
829.968	24783
830.107	24681
830.246	24741
830.385	24661
830.524	24570
830.663	24502
830.802	24456
830.941	24186
831.08	24228
831.219	24369
831.357	24448
831.496	24642
831.635	24266
831.774	24163
831.913	24171
832.051	24083
832.19	23950
832.329	24159
832.467	24041
832.606	23942
832.744	23878
832.883	24015
833.022	23904
833.16	23965
833.299	24007
833.437	24022
833.576	23996
833.714	24030
833.852	24163
833.991	24045
834.129	24049
834.267	24152
834.406	24064
834.544	24030
834.682	23999
834.821	23904
834.959	24216
835.097	24022
835.235	24148
835.373	24022
835.511	24068
835.65	23824
835.788	23942
835.926	23779
836.064	23672
836.202	23642
836.34	23745
836.478	23950
836.615	23882
836.753	23889
836.891	24003
837.029	23870
837.167	23779
837.305	23863
837.443	23741
837.58	23752
837.718	23920
837.856	23767
837.993	23657
838.131	23604
838.269	23646
838.406	23722
838.544	23600
838.681	23349
838.819	23387
838.956	23181
839.094	23212
839.231	23345
839.369	23406
839.506	23581
839.643	23455
839.781	23258
839.918	23090
840.055	23090
840.193	23174
840.33	23178
840.467	23193
840.604	23193
840.742	23395
840.879	22987
841.016	22927
841.153	23056
841.29	23216
841.427	23010
841.564	23124
841.701	23083
841.838	23033
841.975	22915
842.112	23056
842.249	22892
842.385	22812
842.522	23041
842.659	23048
842.796	22797
842.933	22847
843.069	22847
843.206	22847
843.343	22999
843.479	22915
843.616	22774
843.752	22622
843.889	22706
844.025	22713
844.162	22740
844.298	22828
844.435	22706
844.571	22550
844.708	22691
844.844	22702
844.98	22691
845.117	22713
845.253	22599
845.389	22535
845.525	22656
845.661	22436
845.798	22409
845.934	22440
846.07	22341
846.206	22360
846.342	22363
846.478	22322
846.614	22314
846.75	22101
846.886	22173
847.022	22139
847.158	22200
847.294	22128
847.429	22143
847.565	22135
847.701	22432
847.837	21880
847.972	21930
848.108	21857
848.244	21876
848.379	21797
848.515	21618
848.65	21759
848.786	21728
848.921	21705
849.057	21781
849.192	21770
849.328	21812
849.463	21751
849.598	21701
849.734	21690
849.869	21511
850.004	21500
850.14	21473
850.275	21466
850.41	21553
850.545	21504
850.68	21416
850.815	21553
850.95	21557
851.085	21694
851.22	21496
851.355	21329
851.49	21492
851.625	21450
851.76	21397
851.895	21405
852.03	21424
852.165	21549
852.299	21530
852.434	21500
852.569	21534
852.703	21450
852.838	21492
852.973	21705
853.107	21591
853.242	21317
853.376	21344
853.511	21344
853.645	21169
853.78	21325
853.914	21291
854.048	21249
854.183	21260
854.317	21325
854.451	21466
854.585	21222
854.72	21306
854.854	21340
854.988	21180
855.122	21226
855.256	21222
855.39	21389
855.524	21462
855.658	21313
855.792	21397
855.926	21302
856.06	21279
856.194	21367
856.327	21226
856.461	21199
856.595	21344
856.729	21226
856.862	21447
856.996	21199
857.13	21481
857.263	21504
857.397	21397
857.53	21359
857.664	21393
857.797	21428
857.931	21443
858.064	21249
858.197	21485
858.331	21283
858.464	21211
858.597	21051
858.731	21317
858.864	21154
858.997	21055
859.13	21233
859.263	21393
859.396	21302
859.529	21306
859.662	21180
859.795	21211
859.928	21283
860.061	21420
860.194	21534
860.327	21275
860.46	21367
860.592	21393
860.725	21507
860.858	21485
860.99	21374
861.123	21165
861.256	21252
861.388	21237
861.521	22082
861.653	21199
861.786	21051
861.918	21173
862.05	21233
862.183	21203
862.315	21222
862.447	21268
862.58	21199
862.712	21077
862.844	21032
862.976	21093
863.108	21100
863.24	21443
863.372	21013
863.504	21070
863.636	20918
863.768	21093
863.9	20921
864.032	20944
864.164	20990
864.296	21116
864.428	21127
864.559	21146
864.691	21062
864.823	21077
864.954	21036
865.086	20960
865.217	20937
865.349	20811
865.48	20883
865.612	20906
865.743	20986
865.875	21005
866.006	20686
866.137	20853
866.269	20963
866.4	20921
866.531	20796
866.662	20823
866.793	20849
866.924	20819
867.055	20941
867.186	20823
867.317	20731
867.448	20796
867.579	20823
867.71	20720
867.841	20815
867.972	20712
868.103	20838
868.233	20686
868.364	20823
868.495	20963
868.625	21036
868.756	21142
868.886	20994
869.017	20929
869.147	21226
869.278	21184
869.408	21146
869.539	21062
869.669	21081
869.799	21142
869.929	21180
870.06	21237
870.19	21355
870.32	21237
870.45	21397
870.58	21412
870.71	21431
870.84	21519
870.97	21450
871.1	21447
871.23	21622
871.36	21656
871.489	21542
871.619	21641
871.749	21568
871.879	21774
872.008	21720
872.138	21724
872.267	21671
872.397	21504
872.526	21515
872.656	21545
872.785	21599
872.915	21770
873.044	21797
873.173	21732
873.303	21766
873.432	21823
873.561	21736
873.69	21732
873.819	21739
873.948	21823
874.077	21778
874.206	21641
874.335	21743
874.464	21800
874.593	22017
874.722	21899
874.851	21956
874.979	21884
875.108	22078
875.237	21895
875.365	21857
875.494	21899
875.623	22070
875.751	21983
875.88	22090
876.008	22002
876.136	22097
876.265	22261
876.393	22489
876.521	22409
876.65	22333
876.778	22261
876.906	22249
877.034	22318
877.162	22242
877.29	22295
877.418	22287
877.546	22344
877.674	22325
877.802	22325
877.93	22386
878.058	22242
878.185	22082
878.313	22234
878.441	22219
878.568	22154
878.696	22150
878.824	22265
878.951	22333
879.079	22573
879.206	22687
879.333	22599
879.461	22261
879.588	22382
879.715	22599
879.842	22615
879.97	22341
880.097	22120
880.224	22150
880.351	22265
880.478	22109
880.605	22067
880.732	22219
880.859	22325
880.986	22082
881.112	22169
881.239	22112
881.366	21861
881.493	21823
881.619	21667
881.746	21720
881.872	21641
881.999	21709
882.125	21686
882.252	21739
882.378	21545
882.505	21728
882.631	21679
882.757	21367
882.883	21542
883.01	21374
883.136	21355
883.262	21340
883.388	21245
883.514	21523
883.64	21408
883.766	21386
883.892	21233
884.018	21192
884.143	21359
884.269	21443
884.395	21180
884.52	20948
884.646	21108
884.772	21055
884.897	20918
885.023	21066
885.148	21077
885.274	21249
885.399	21116
885.524	21081
885.65	20956
885.775	21009
885.9	21017
886.025	21195
886.15	21104
886.275	20986
886.4	20929
886.525	20986
886.65	20872
886.775	20998
886.9	21116
887.025	21214
887.149	20906
887.274	20804
887.399	20781
887.523	20758
887.648	20769
887.773	20746
887.897	20845
888.021	20781
888.146	20727
888.27	20902
888.395	20872
888.519	20849
888.643	20849
888.767	20834
888.891	20670
889.015	20663
889.139	20659
889.263	20598
889.387	20697
889.511	20693
889.635	20697
889.759	20583
889.883	20503
890.006	20571
890.13	20613
890.254	20480
890.377	20507
890.501	20396
890.624	20389
890.748	20423
890.871	20149
890.995	20176
891.118	20100
891.241	20218
891.364	20134
891.488	20290
891.611	20153
891.734	20172
891.857	20206
891.98	20202
892.103	20187
892.226	20218
892.349	20130
892.471	19963
892.594	20161
892.717	20050
892.839	20069
892.962	20043
893.085	20092
893.207	20054
893.33	19955
893.452	20054
893.575	20130
893.697	20153
893.819	20271
893.941	20259
894.064	20191
894.186	20016
894.308	20054
894.43	20180
894.552	20145
894.674	20199
894.796	19928
894.918	20073
895.04	20050
895.161	20084
895.283	20191
895.405	19978
895.526	20058
895.648	20115
895.769	20134
895.891	20031
896.012	20221
896.134	20096
896.255	20122
896.376	20035
896.498	20119
896.619	20149
896.74	20043
896.861	20100
896.982	20419
897.103	20454
897.224	20317
897.345	20259
897.466	20187
897.587	20206
897.708	20446
897.828	20332
897.949	20233
898.07	20058
898.19	20161
898.311	20343
898.431	20256
898.552	20275
898.672	20423
898.792	20454
898.913	20351
899.033	20263
899.153	20100
899.273	20012
899.393	20020
899.513	19986
899.633	20035
899.753	20077
899.873	20012
899.993	19986
900.113	20024
900.232	19997
900.352	20134
900.472	19898
900.591	19681
900.711	19883
900.83	19700
900.95	20084
901.069	19871
901.189	19628
901.308	19441
901.427	19445
901.546	19502
901.665	19510
901.784	19438
901.904	19331
902.023	19183
902.141	18920
902.26	18909
902.379	19091
902.498	18985
902.617	18837
902.735	18951
902.854	18833
902.973	18867
903.091	18623
903.21	18555
903.328	18612
903.446	18517
903.565	18388
903.683	18353
903.801	18254
903.919	18273
904.038	18323
904.156	18247
904.274	18209
904.392	18194
904.51	18087
904.627	18163
904.745	18228
904.863	18148
904.981	17988
905.098	17798
905.216	17878
905.334	17786
905.451	17965
905.569	17748
905.686	17824
905.803	17828
905.921	17589
906.038	17668
906.155	17710
906.272	17467
906.389	17547
906.506	17402
906.623	17292
906.74	17402
906.857	17254
906.974	17273
907.091	17402
907.208	17440
907.324	17364
907.441	17322
907.557	17090
907.674	17086
907.79	17121
907.907	17037
908.023	17064
908.139	17174
908.256	17033
908.372	17014
908.488	16961
908.604	16831
908.72	16733
908.836	16999
908.952	16778
909.068	16850
909.184	16904
909.3	16645
909.415	16759
909.531	16831
909.647	16573
909.762	16672
909.878	16500
909.993	16565
910.108	16569
910.224	16493
910.339	16428
910.454	16341
910.57	16421
910.685	16207
910.8	16538
910.915	16360
911.03	16421
911.145	16192
911.259	16090
911.374	16173
911.489	16131
911.604	15911
911.718	15869
911.833	15854
911.947	15686
912.062	15724
912.176	15823
912.291	15884
912.405	15793
912.519	16082
912.633	16071
912.748	15736
912.862	15850
912.976	15671
913.09	15591
913.204	15720
913.318	15625
913.431	15675
913.545	15709
913.659	15766
913.772	15564
913.886	15500
914	15511
914.113	15580
914.226	15610
914.34	15507
914.453	15237
914.566	15355
914.68	15389
914.793	15355
914.906	15100
915.019	15108
915.132	15017
915.245	15085
915.358	15127
915.47	15161
915.583	15154
915.696	15127
915.809	15138
915.921	15287
916.034	15028
916.146	14960
916.259	14990
916.371	15036
916.483	15047
916.595	14952
916.708	14906
916.82	14887
916.932	14872
917.044	14944
917.156	14838
917.268	14739
917.38	14796
917.491	14758
917.603	14807
917.715	14807
917.826	14883
917.938	14678
918.049	14610
918.161	14648
918.272	14739
918.384	14705
918.495	14701
918.606	14488
918.717	14457
918.828	14488
918.939	14514
919.05	14442
919.161	14511
919.272	14240
919.383	14355
919.494	14457
919.604	14731
919.715	14465
919.826	14301
919.936	14465
920.047	14522
920.157	14427
920.267	14621
920.378	14438
920.488	14454
920.598	14617
920.708	14830
920.818	14583
920.928	14495
921.038	14708
921.148	14739
921.258	14343
921.368	14347
921.477	14183
921.587	14081
921.697	14054
921.806	14115
921.916	14084
922.025	13890
922.134	13788
922.244	13807
922.353	13917
922.462	13750
922.571	13712
922.68	13544
922.789	13415
922.898	13487
923.007	13464
923.116	13502
923.224	13384
923.333	13464
923.442	13289
923.55	13308
923.659	13400
923.767	13388
923.876	13247
923.984	13350
924.092	13164
924.201	13175
924.309	13232
924.417	13168
924.525	13179
924.633	13168
924.741	14024
924.849	12935
924.956	13091
925.064	12856
925.172	12802
925.279	12954
925.387	12943
925.494	12882
925.602	12993
925.709	12943
925.816	12871
925.924	12814
926.031	12894
926.138	12817
926.245	12886
926.352	12658
926.459	12833
926.566	12840
926.673	12738
926.779	12662
926.886	12684
926.993	12555
927.099	12483
927.206	12395
927.312	12395
927.419	12483
927.525	12490
927.631	12532
927.737	12342
927.843	12296
927.95	12270
928.056	12304
928.162	12277
928.267	12350
928.373	12798
928.479	12467
928.585	12140
928.69	12190
928.796	12273
928.901	12228
929.007	12045
929.112	12125
929.218	12114
929.323	12007
929.428	11961
929.533	12125
929.638	11904
929.743	11950
929.848	11988
929.953	11870
930.058	11821
930.163	11646
930.267	11741
930.372	11760
930.477	11649
930.581	11878
930.685	11828
930.79	11478
930.894	11627
930.998	11543
931.103	11688
931.207	11425
931.311	11307
931.415	11201
931.519	10965
931.623	10991
