Data from test_V78500241_522.txt Node
Date: Fri Mar 25 15:13:29 CST 2022
User: usil
Spectrometer: V785-0024
Trigger mode: 0
Integration Time (sec): 4.000000E-1
Scans to average: 1
Nonlinearity correction enabled: false
Boxcar width: 0
Storing dark spectrum: false
XAxis mode: Wavelengths
Number of Pixels in Spectrum: 1024
>>>>>Begin Spectral Data<<<<<
801.071	27671
801.214	27496
801.356	27214
801.499	27226
801.641	27062
801.783	27116
801.926	27089
802.068	27096
802.211	26910
802.353	26910
802.496	26743
802.638	26674
802.78	26773
802.923	26781
803.065	26705
803.208	26705
803.35	26804
803.492	26918
803.635	26876
803.777	26735
803.919	26872
804.061	27165
804.204	26940
804.346	26743
804.488	26693
804.63	26971
804.773	26815
804.915	26940
805.057	26952
805.199	26921
805.341	26857
805.483	27020
805.626	26758
805.768	26883
805.91	27077
806.052	26956
806.194	27028
806.336	27203
806.478	27157
806.62	27081
806.762	27154
806.904	27462
807.046	27545
807.188	27485
807.33	27336
807.472	27458
807.614	27325
807.756	27287
807.898	27348
808.04	27150
808.182	27226
808.324	27131
808.465	27195
808.607	27439
808.749	27610
808.891	27671
809.033	27743
809.174	27717
809.316	27568
809.458	27538
809.6	27530
809.741	27618
809.883	27751
810.025	27861
810.166	27972
810.308	27956
810.45	27945
810.591	27751
810.733	27800
810.875	27599
811.016	27534
811.158	27530
811.299	27701
811.441	27743
811.582	27785
811.724	27545
811.865	27408
812.007	27709
812.148	27603
812.29	27492
812.431	27808
812.573	27899
812.714	28112
812.855	28169
812.997	28246
813.138	28299
813.279	28451
813.421	28211
813.562	28135
813.703	27953
813.845	28025
813.986	27488
814.127	27447
814.268	27264
814.41	27405
814.551	27180
814.692	27397
814.833	27256
814.974	27283
815.115	27310
815.256	27036
815.397	27165
815.539	27062
815.68	27077
815.821	27051
815.962	27074
816.103	27100
816.244	26929
816.385	26792
816.526	26906
816.666	26632
816.807	26613
816.948	26701
817.089	26758
817.23	26575
817.371	26587
817.512	26674
817.653	26606
817.793	26438
817.934	26594
818.075	26659
818.216	26640
818.356	26571
818.497	26495
818.638	26343
818.778	26343
818.919	26282
819.06	26351
819.2	26446
819.341	26735
819.481	26587
819.622	26716
819.762	26914
819.903	26823
820.043	26796
820.184	26693
820.324	26739
820.465	26651
820.605	26678
820.746	26655
820.886	26537
821.026	26815
821.167	26606
821.307	26876
821.447	26670
821.588	26446
821.728	26339
821.868	26336
822.008	26062
822.149	25925
822.289	25989
822.429	25784
822.569	25635
822.709	25738
822.849	25445
822.99	25734
823.13	25464
823.27	25575
823.41	25266
823.55	25259
823.69	25362
823.83	25407
823.97	25304
824.11	25244
824.25	25171
824.389	25179
824.529	25259
824.669	25171
824.809	25251
824.949	25194
825.089	25358
825.228	25244
825.368	25042
825.508	24985
825.648	25023
825.787	24996
825.927	25126
826.067	24977
826.206	25027
826.346	25198
826.485	24981
826.625	24970
826.765	25179
826.904	25156
827.044	24837
827.183	24757
827.323	24787
827.462	24863
827.601	24821
827.741	24749
827.88	24817
828.02	24582
828.159	24806
828.298	24787
828.437	24871
828.577	24665
828.716	24791
828.855	24665
828.994	24505
829.134	24555
829.273	24433
829.412	24414
829.551	24513
829.69	24498
829.829	24532
829.968	24490
830.107	24498
830.246	24540
830.385	24380
830.524	24407
830.663	24342
830.802	24224
830.941	24117
831.08	24098
831.219	24186
831.357	24254
831.496	24304
831.635	24079
831.774	24030
831.913	24007
832.051	24011
832.19	23916
832.329	23961
832.467	23783
832.606	23710
832.744	23718
832.883	23752
833.022	23843
833.16	23760
833.299	23908
833.437	23813
833.576	23863
833.714	23840
833.852	23942
833.991	23771
834.129	23988
834.267	23847
834.406	23942
834.544	23889
834.682	23824
834.821	23817
834.959	23836
835.097	23672
835.235	23908
835.373	23874
835.511	23752
835.65	23699
835.788	23790
835.926	23558
836.064	23486
836.202	23535
836.34	23760
836.478	23699
836.615	23672
836.753	23786
836.891	23783
837.029	23760
837.167	23554
837.305	23581
837.443	23554
837.58	23474
837.718	23558
837.856	23505
837.993	23482
838.131	23474
838.269	23501
838.406	23425
838.544	23284
838.681	23277
838.819	23216
838.956	22987
839.094	22984
839.231	22957
839.369	23178
839.506	23353
839.643	23223
839.781	22957
839.918	22927
840.055	22976
840.193	23025
840.33	22965
840.467	23025
840.604	22930
840.742	23140
840.879	22786
841.016	22862
841.153	22729
841.29	23071
841.427	22972
841.564	22858
841.701	22915
841.838	22831
841.975	22805
842.112	22854
842.249	22797
842.385	22755
842.522	22953
842.659	22850
842.796	22721
842.933	22767
843.069	22641
843.206	22653
843.343	22812
843.479	22607
843.616	22641
843.752	22405
843.889	22596
844.025	22573
844.162	22447
844.298	22611
844.435	22409
844.571	22402
844.708	22504
844.844	22622
844.98	22542
845.117	22516
845.253	22371
845.389	22246
845.525	22268
845.661	22379
845.798	22211
845.934	22272
846.07	22074
846.206	22257
846.342	22268
846.478	22131
846.614	21987
846.75	21846
846.886	21987
847.022	21945
847.158	21895
847.294	22017
847.429	21911
847.565	21865
847.701	22124
847.837	21614
847.972	21644
848.108	21766
848.244	21774
848.379	21564
848.515	21625
848.65	21332
848.786	21450
848.921	21519
849.057	21542
849.192	21614
849.328	21458
849.463	21641
849.598	21538
849.734	21447
849.869	21291
850.004	21393
850.14	21252
850.275	21268
850.41	21222
850.545	21241
850.68	21192
850.815	21252
850.95	21367
851.085	21587
851.22	21435
851.355	21180
851.49	21329
851.625	21256
851.76	21317
851.895	21294
852.03	21112
852.165	21268
852.299	21279
852.434	21302
852.569	21340
852.703	21249
852.838	21367
852.973	21431
853.107	21473
853.242	21222
853.376	21108
853.511	21047
853.645	21028
853.78	21275
853.914	21116
854.048	21005
854.183	21077
854.317	21116
854.451	21237
854.585	21150
854.72	21039
854.854	21150
854.988	21066
855.122	21055
855.256	21017
855.39	21066
855.524	21180
855.658	21150
855.792	21173
855.926	21146
856.06	21233
856.194	21116
856.327	21127
856.461	21062
856.595	21116
856.729	21131
856.862	21192
856.996	21138
857.13	21188
857.263	21249
857.397	21214
857.53	21104
857.664	21184
857.797	21169
857.931	21169
858.064	21081
858.197	21211
858.331	21081
858.464	21077
858.597	21032
858.731	21005
858.864	20990
858.997	20990
859.13	20956
859.263	21089
859.396	21260
859.529	20956
859.662	21100
859.795	21009
859.928	21032
860.061	21131
860.194	21351
860.327	21157
860.46	21093
860.592	21218
860.725	21176
860.858	21233
860.99	21116
861.123	20960
861.256	20963
861.388	21116
861.521	21835
861.653	21074
861.786	20887
861.918	20941
862.05	21009
862.183	21013
862.315	21070
862.447	21005
862.58	21116
862.712	20857
862.844	20708
862.976	20937
863.108	20899
863.24	21237
863.372	20781
863.504	20823
863.636	20975
863.768	20918
863.9	20746
864.032	20796
864.164	20864
864.296	20807
864.428	20933
864.559	20902
864.691	20731
864.823	20792
864.954	20826
865.086	20830
865.217	20716
865.349	20720
865.48	20708
865.612	20746
865.743	20880
865.875	20674
866.006	20674
866.137	20781
866.269	20750
866.4	20651
866.531	20682
866.662	20621
866.793	20754
866.924	20758
867.055	20712
867.186	20678
867.317	20609
867.448	20579
867.579	20549
867.71	20602
867.841	20549
867.972	20644
868.103	20571
868.233	20655
868.364	20663
868.495	20788
868.625	20777
868.756	21055
868.886	21032
869.017	20899
869.147	21081
869.278	21058
869.408	20834
869.539	20929
869.669	20982
869.799	20796
869.929	20994
870.06	20986
870.19	21127
870.32	21100
870.45	21264
870.58	21195
870.71	21351
870.84	21405
870.97	21294
871.1	21268
871.23	21496
871.36	21408
871.489	21355
871.619	21435
871.749	21534
871.879	21519
872.008	21622
872.138	21530
872.267	21408
872.397	21439
872.526	21336
872.656	21329
872.785	21283
872.915	21454
873.044	21538
873.173	21382
873.303	21519
873.432	21526
873.561	21713
873.69	21507
873.819	21523
873.948	21663
874.077	21492
874.206	21317
874.335	21462
874.464	21542
874.593	21686
874.722	21747
874.851	21838
874.979	21823
875.108	21732
875.237	21739
875.365	21603
875.494	21800
875.623	21838
875.751	21701
875.88	21698
876.008	21873
876.136	21892
876.265	22116
876.393	22272
876.521	22143
876.65	22196
876.778	22234
876.906	22082
877.034	22051
877.162	22040
877.29	21934
877.418	22185
877.546	21907
877.674	22105
877.802	22010
877.93	22109
878.058	22143
878.185	21949
878.313	21911
878.441	22139
878.568	22116
878.696	22078
878.824	22166
878.951	22169
879.079	22367
879.206	22337
879.333	22318
879.461	22048
879.588	22360
879.715	22249
879.842	22257
879.97	22223
880.097	21869
880.224	21956
880.351	21991
880.478	22029
880.605	21884
880.732	21979
880.859	22101
880.986	21968
881.112	21934
881.239	21690
881.366	21751
881.493	21599
881.619	21454
881.746	21431
881.872	21564
881.999	21557
882.125	21424
882.252	21496
882.378	21424
882.505	21564
882.631	21443
882.757	21237
882.883	21260
883.01	21218
883.136	21009
883.262	20971
883.388	21043
883.514	21100
883.64	21218
883.766	21104
883.892	21036
884.018	20956
884.143	21085
884.269	21268
884.395	20849
884.52	20769
884.646	20823
884.772	20807
884.897	20758
885.023	20788
885.148	20902
885.274	21047
885.399	20857
885.524	20895
885.65	20853
885.775	20910
885.9	20830
886.025	20925
886.15	20990
886.275	20864
886.4	20727
886.525	20857
886.65	20785
886.775	20712
886.9	20914
887.025	20963
887.149	20807
887.274	20629
887.399	20530
887.523	20606
887.648	20495
887.773	20545
887.897	20674
888.021	20727
888.146	20606
888.27	20659
888.395	20716
888.519	20674
888.643	20659
888.767	20594
888.891	20476
889.015	20454
889.139	20408
889.263	20377
889.387	20552
889.511	20663
889.635	20461
889.759	20427
889.883	20305
890.006	20526
890.13	20511
890.254	20366
890.377	20252
890.501	20138
890.624	20115
890.748	20214
890.871	20054
890.995	19970
891.118	19978
891.241	19989
891.364	20031
891.488	19997
891.611	19925
891.734	19970
891.857	20142
891.98	20103
892.103	20058
892.226	19970
892.349	19890
892.471	19845
892.594	19989
892.717	19944
892.839	19791
892.962	19852
893.085	19967
893.207	19883
893.33	19727
893.452	19753
893.575	19944
893.697	19936
893.819	19955
893.941	20027
894.064	20050
894.186	19898
894.308	19849
894.43	19890
894.552	20039
894.674	19917
894.796	19719
894.918	19841
895.04	19845
895.161	19925
895.283	19883
895.405	19852
895.526	19811
895.648	19799
895.769	19879
895.891	19894
896.012	19917
896.134	20081
896.255	19784
896.376	19784
896.498	19845
896.619	19894
896.74	19814
896.861	19928
896.982	20221
897.103	20377
897.224	20164
897.345	20020
897.466	19928
897.587	19978
897.708	20195
897.828	20176
897.949	20016
898.07	19978
898.19	20024
898.311	20081
898.431	19955
898.552	20081
898.672	20199
898.792	20111
898.913	20161
899.033	20062
899.153	19860
899.273	19811
899.393	19955
899.513	19944
899.633	19833
899.753	19944
899.873	19742
899.993	19860
900.113	19795
900.232	19776
900.352	19715
900.472	19693
900.591	19685
900.711	19674
900.83	19586
900.95	19750
901.069	19655
901.189	19499
901.308	19259
901.427	19160
901.546	19346
901.665	19221
901.784	19160
901.904	19190
902.023	19042
902.141	18825
902.26	18798
902.379	18814
902.498	18707
902.617	18593
902.735	18779
902.854	18677
902.973	18597
903.091	18346
903.21	18490
903.328	18372
903.446	18224
903.565	18353
903.683	18197
903.801	18186
903.919	18224
904.038	18155
904.156	18038
904.274	18197
904.392	17946
904.51	17920
904.627	17954
904.745	18148
904.863	17988
904.981	17912
905.098	17627
905.216	17668
905.334	17703
905.451	17691
905.569	17577
905.686	17642
905.803	17600
905.921	17421
906.038	17619
906.155	17501
906.272	17318
906.389	17486
906.506	17250
906.623	17197
906.74	17273
906.857	17052
906.974	17029
907.091	17223
907.208	17318
907.324	17197
907.441	17102
907.557	16850
907.674	17006
907.79	16866
907.907	16900
908.023	16987
908.139	16904
908.256	16801
908.372	16835
908.488	16755
908.604	16717
908.72	16641
908.836	16675
908.952	16656
909.068	16668
909.184	16752
909.3	16641
909.415	16660
909.531	16679
909.647	16268
909.762	16402
909.878	16299
909.993	16295
910.108	16360
910.224	16318
910.339	16310
910.454	16276
910.57	16192
910.685	16112
910.8	16405
910.915	16272
911.03	16196
911.145	15930
911.259	15979
911.374	15926
911.489	15964
911.604	15808
911.718	15717
911.833	15701
911.947	15614
912.062	15458
912.176	15701
912.291	15698
912.405	15584
912.519	15842
912.633	15903
912.748	15698
912.862	15633
912.976	15606
913.09	15435
913.204	15435
913.318	15485
913.431	15564
913.545	15587
913.659	15633
913.772	15488
913.886	15397
914	15275
914.113	15382
914.226	15420
914.34	15344
914.453	15184
914.566	15252
914.68	15279
914.793	15135
914.906	14937
915.019	14986
915.132	14956
915.245	14910
915.358	14994
915.47	14956
915.583	14933
915.696	14864
915.809	15020
915.921	15017
916.034	14994
916.146	14777
916.259	14868
916.371	14891
916.483	14853
916.595	14811
916.708	14781
916.82	14648
916.932	14743
917.044	14800
917.156	14667
917.268	14602
917.38	14693
917.491	14503
917.603	14610
917.715	14594
917.826	14568
917.938	14564
918.049	14404
918.161	14625
918.272	14682
918.384	14640
918.495	14518
918.606	14454
918.717	14366
918.828	14377
918.939	14396
919.05	14221
919.161	14256
919.272	14290
919.383	14168
919.494	14343
919.604	14522
919.715	14332
919.826	14202
919.936	14336
920.047	14385
920.157	14286
920.267	14488
920.378	14370
920.488	14336
920.598	14438
920.708	14602
920.818	14537
920.928	14530
921.038	14640
921.148	14511
921.258	14286
921.368	14221
921.477	13989
921.587	14005
921.697	13955
921.806	14062
921.916	13879
922.025	13788
922.134	13715
922.244	13696
922.353	13727
922.462	13677
922.571	13552
922.68	13285
922.789	13346
922.898	13343
923.007	13301
923.116	13316
923.224	13358
923.333	13301
923.442	13236
923.55	13171
923.659	13263
923.767	13221
923.876	13240
923.984	13183
924.092	13133
924.201	13099
924.309	13088
924.417	13069
924.525	13015
924.633	13000
924.741	13822
924.849	12867
924.956	12958
925.064	12738
925.172	12700
925.279	12867
925.387	12787
925.494	12810
925.602	12871
925.709	12837
925.816	12734
925.924	12719
926.031	12764
926.138	12734
926.245	12757
926.352	12681
926.459	12783
926.566	12730
926.673	12589
926.779	12456
926.886	12448
926.993	12380
927.099	12388
927.206	12311
927.312	12239
927.419	12357
927.525	12380
927.631	12251
927.737	12277
927.843	12232
927.95	12087
928.056	12121
928.162	12117
928.267	12247
928.373	12749
928.479	12201
928.585	12019
928.69	12190
928.796	12148
928.901	12060
929.007	11992
929.112	12019
929.218	12060
929.323	11988
929.428	11958
929.533	11980
929.638	11771
929.743	11786
929.848	11946
929.953	11882
930.058	11726
930.163	11611
930.267	11592
930.372	11775
930.477	11535
930.581	11756
930.685	11653
930.79	11608
930.894	11551
930.998	11528
931.103	11596
931.207	11239
931.311	11155
931.415	11102
931.519	10854
931.623	10953
