Data from test_V78500241_820.txt Node
Date: Fri Mar 25 15:15:34 CST 2022
User: usil
Spectrometer: V785-0024
Trigger mode: 0
Integration Time (sec): 4.000000E-1
Scans to average: 1
Nonlinearity correction enabled: false
Boxcar width: 0
Storing dark spectrum: false
XAxis mode: Wavelengths
Number of Pixels in Spectrum: 1024
>>>>>Begin Spectral Data<<<<<
801.071	28295
801.214	28215
801.356	27937
801.499	27949
801.641	27755
801.783	27873
801.926	27838
802.068	27880
802.211	27717
802.353	27564
802.496	27519
802.638	27435
802.78	27542
802.923	27355
803.065	27504
803.208	27496
803.35	27450
803.492	27561
803.635	27633
803.777	27682
803.919	27720
804.061	28013
804.204	27797
804.346	27789
804.488	27545
804.63	27739
804.773	27709
804.915	27713
805.057	27873
805.199	27637
805.341	27861
805.483	27838
805.626	27728
805.768	27819
805.91	27724
806.052	27968
806.194	27819
806.336	27945
806.478	28040
806.62	27865
806.762	28044
806.904	28120
807.046	28295
807.188	28459
807.33	28325
807.472	28200
807.614	28291
807.756	28367
807.898	28207
808.04	28154
808.182	28040
808.324	28223
808.465	28150
808.607	28341
808.749	28542
808.891	28451
809.033	28618
809.174	28584
809.316	28394
809.458	28550
809.6	28637
809.741	28691
809.883	28736
810.025	28790
810.166	28816
810.308	28809
810.45	28877
810.591	28736
810.733	28592
810.875	28489
811.016	28607
811.158	28481
811.299	28603
811.441	28653
811.582	28611
811.724	28519
811.865	28421
812.007	28462
812.148	28428
812.29	28565
812.431	28717
812.573	28797
812.714	28938
812.855	29056
812.997	29102
813.138	29250
813.279	29102
813.421	29094
813.562	29117
813.703	28877
813.845	28885
813.986	28497
814.127	28401
814.268	28230
814.41	28238
814.551	28333
814.692	28314
814.833	28101
814.974	28196
815.115	28211
815.256	28158
815.397	28166
815.539	28211
815.68	28078
815.821	28002
815.962	28032
816.103	28120
816.244	27937
816.385	27705
816.526	27812
816.666	27774
816.807	27591
816.948	27671
817.089	27816
817.23	27545
817.371	27641
817.512	27709
817.653	27583
817.793	27511
817.934	27606
818.075	27679
818.216	27614
818.356	27660
818.497	27443
818.638	27458
818.778	27306
818.919	27306
819.06	27553
819.2	27466
819.341	27568
819.481	27580
819.622	27781
819.762	28097
819.903	27797
820.043	27766
820.184	27766
820.324	27736
820.465	27633
820.605	27667
820.746	27641
820.886	27637
821.026	27622
821.167	27625
821.307	27800
821.447	27595
821.588	27466
821.728	27367
821.868	27123
822.008	27096
822.149	27024
822.289	26906
822.429	26792
822.569	26533
822.709	26750
822.849	26438
822.99	26583
823.13	26522
823.27	26465
823.41	26419
823.55	26206
823.69	26434
823.83	26320
823.97	26313
824.11	26145
824.25	26206
824.389	26347
824.529	26324
824.669	26202
824.809	26282
824.949	26278
825.089	26343
825.228	26252
825.368	25936
825.508	26122
825.648	26062
825.787	26214
825.927	26206
826.067	26069
826.206	26008
826.346	26134
826.485	26191
826.625	25997
826.765	26248
826.904	26191
827.044	25894
827.183	25814
827.323	25841
827.462	25890
827.601	25879
827.741	25906
827.88	25761
828.02	25655
828.159	25883
828.298	25765
828.437	25925
828.577	25753
828.716	25868
828.855	25837
828.994	25559
829.134	25624
829.273	25544
829.412	25525
829.551	25464
829.69	25559
829.829	25605
829.968	25685
830.107	25510
830.246	25563
830.385	25495
830.524	25502
830.663	25304
830.802	25225
830.941	25183
831.08	25301
831.219	25129
831.357	25221
831.496	25392
831.635	25076
831.774	25137
831.913	25004
832.051	24932
832.19	25027
832.329	24958
832.467	24916
832.606	24798
832.744	24837
832.883	24741
833.022	24768
833.16	24806
833.299	24875
833.437	24947
833.576	24886
833.714	24844
833.852	25000
833.991	24909
834.129	25095
834.267	24814
834.406	24913
834.544	24897
834.682	25000
834.821	24863
834.959	25065
835.097	24916
835.235	24992
835.373	24753
835.511	24909
835.65	24673
835.788	24817
835.926	24677
836.064	24521
836.202	24536
836.34	24817
836.478	24802
836.615	24502
836.753	24467
836.891	24757
837.029	24677
837.167	24593
837.305	24578
837.443	24471
837.58	24585
837.718	24589
837.856	24532
837.993	24346
838.131	24464
838.269	24464
838.406	24505
838.544	24239
838.681	24292
838.819	24159
838.956	24030
839.094	24064
839.231	24148
839.369	24167
839.506	24407
839.643	24232
839.781	23961
839.918	23942
840.055	24022
840.193	23893
840.33	23969
840.467	23893
840.604	23992
840.742	24148
840.879	23790
841.016	23714
841.153	23760
841.29	23847
841.427	23874
841.564	23897
841.701	23832
841.838	23954
841.975	23703
842.112	23733
842.249	23851
842.385	23608
842.522	23893
842.659	23649
842.796	23668
842.933	23600
843.069	23566
843.206	23589
843.343	23737
843.479	23653
843.616	23695
843.752	23379
843.889	23448
844.025	23619
844.162	23433
844.298	23581
844.435	23497
844.571	23379
844.708	23459
844.844	23444
844.98	23520
845.117	23547
845.253	23341
845.389	23299
845.525	23345
845.661	23345
845.798	23223
845.934	23140
846.07	23155
846.206	23197
846.342	23303
846.478	23056
846.614	22946
846.75	22824
846.886	22862
847.022	22927
847.158	22862
847.294	22869
847.429	22831
847.565	22881
847.701	23140
847.837	22607
847.972	22649
848.108	22675
848.244	22630
848.379	22481
848.515	22489
848.65	22409
848.786	22455
848.921	22535
849.057	22626
849.192	22580
849.328	22516
849.463	22500
849.598	22367
849.734	22371
849.869	22523
850.004	22287
850.14	22303
850.275	22150
850.41	22147
850.545	22223
850.68	22207
850.815	22242
850.95	22185
851.085	22280
851.22	22348
851.355	22314
851.49	22223
851.625	22272
851.76	22181
851.895	22272
852.03	22135
852.165	22242
852.299	22341
852.434	22375
852.569	22249
852.703	22268
852.838	22166
852.973	22424
853.107	22440
853.242	22162
853.376	22078
853.511	22002
853.645	21998
853.78	22143
853.914	22063
854.048	22040
854.183	22017
854.317	22120
854.451	22287
854.585	22101
854.72	22063
854.854	22051
854.988	22006
855.122	22086
855.256	21945
855.39	22078
855.524	22097
855.658	22055
855.792	22044
855.926	22097
856.06	22105
856.194	22185
856.327	22162
856.461	22116
856.595	22010
856.729	22082
856.862	22158
856.996	22150
857.13	22173
857.263	22112
857.397	22162
857.53	22101
857.664	22181
857.797	22131
857.931	22177
858.064	22116
858.197	22105
858.331	22048
858.464	21987
858.597	21922
858.731	21968
858.864	21945
858.997	21937
859.13	22059
859.263	22036
859.396	22169
859.529	22002
859.662	21922
859.795	22116
859.928	22120
860.061	22257
860.194	22276
860.327	22059
860.46	21972
860.592	22188
860.725	22192
860.858	22112
860.99	22067
861.123	21892
861.256	22185
861.388	22013
861.521	22889
861.653	21926
861.786	21827
861.918	21873
862.05	21937
862.183	21994
862.315	21994
862.447	22051
862.58	21979
862.712	21648
862.844	21888
862.976	21835
863.108	21827
863.24	22082
863.372	21671
863.504	21781
863.636	21759
863.768	21816
863.9	21781
864.032	21694
864.164	21576
864.296	21709
864.428	21755
864.559	21850
864.691	21846
864.823	21797
864.954	21755
865.086	21743
865.217	21538
865.349	21644
865.48	21606
865.612	21724
865.743	21846
865.875	21679
866.006	21587
866.137	21587
866.269	21736
866.4	21644
866.531	21534
866.662	21583
866.793	21530
866.924	21599
867.055	21576
867.186	21610
867.317	21625
867.448	21485
867.579	21481
867.71	21526
867.841	21545
867.972	21644
868.103	21511
868.233	21511
868.364	21698
868.495	21648
868.625	21743
868.756	21831
868.886	21720
869.017	21724
869.147	21892
869.278	21873
869.408	21873
869.539	21816
869.669	21789
869.799	21823
869.929	21960
870.06	21880
870.19	22109
870.32	22063
870.45	22192
870.58	22139
870.71	22276
870.84	22314
870.97	22162
871.1	22120
871.23	22272
871.36	22413
871.489	22287
871.619	22291
871.749	22394
871.879	22386
872.008	22443
872.138	22291
872.267	22306
872.397	22272
872.526	22291
872.656	22246
872.785	22268
872.915	22440
873.044	22519
873.173	22322
873.303	22462
873.432	22508
873.561	22474
873.69	22405
873.819	22318
873.948	22455
874.077	22462
874.206	22337
874.335	22386
874.464	22466
874.593	22618
874.722	22519
874.851	22721
874.979	22611
875.108	22706
875.237	22622
875.365	22599
875.494	22698
875.623	22649
875.751	22519
875.88	22653
876.008	22725
876.136	22812
876.265	23044
876.393	23181
876.521	23029
876.65	23067
876.778	23044
876.906	22999
877.034	22915
877.162	23029
877.29	22919
877.418	23014
877.546	22930
877.674	23006
877.802	22980
877.93	23006
878.058	22938
878.185	22862
878.313	22957
878.441	22923
878.568	22752
878.696	22976
878.824	23006
878.951	22991
879.079	23151
879.206	23246
879.333	23208
879.461	22915
879.588	23060
879.715	23041
879.842	23223
879.97	23041
880.097	22839
880.224	22729
880.351	22854
880.478	22771
880.605	22767
880.732	22812
880.859	22930
880.986	22869
881.112	22725
881.239	22637
881.366	22565
881.493	22421
881.619	22318
881.746	22443
881.872	22329
881.999	22295
882.125	22185
882.252	22284
882.378	22318
882.505	22265
882.631	22162
882.757	22082
882.883	22173
883.01	22128
883.136	21998
883.262	21991
883.388	21941
883.514	22131
883.64	22059
883.766	22021
883.892	21698
884.018	21994
884.143	22059
884.269	22086
884.395	21747
884.52	21671
884.646	21762
884.772	21622
884.897	21534
885.023	21743
885.148	21762
885.274	21930
885.399	21675
885.524	21633
885.65	21724
885.775	21564
885.9	21610
886.025	21789
886.15	21720
886.275	21637
886.4	21500
886.525	21663
886.65	21610
886.775	21564
886.9	21747
887.025	21778
887.149	21682
887.274	21424
887.399	21382
887.523	21504
887.648	21435
887.773	21355
887.897	21580
888.021	21431
888.146	21439
888.27	21549
888.395	21469
888.519	21466
888.643	21397
888.767	21553
888.891	21340
889.015	21283
889.139	21313
889.263	21359
889.387	21389
889.511	21389
889.635	21351
889.759	21207
889.883	21405
890.006	21302
890.13	21291
890.254	21146
890.377	21077
890.501	20887
890.624	20849
890.748	21047
890.871	20910
890.995	20727
891.118	20826
891.241	20785
891.364	20838
891.488	21036
891.611	20880
891.734	20735
891.857	20910
891.98	20739
892.103	20834
892.226	20785
892.349	20781
892.471	20560
892.594	20743
892.717	20697
892.839	20727
892.962	20697
893.085	20777
893.207	20629
893.33	20530
893.452	20499
893.575	20674
893.697	20667
893.819	20868
893.941	20823
894.064	20838
894.186	20659
894.308	20644
894.43	20655
894.552	20739
894.674	20800
894.796	20522
894.918	20670
895.04	20781
895.161	20701
895.283	20731
895.405	20712
895.526	20750
895.648	20583
895.769	20765
895.891	20754
896.012	20765
896.134	20629
896.255	20655
896.376	20575
896.498	20640
896.619	20648
896.74	20644
896.861	20659
896.982	21074
897.103	21055
897.224	20880
897.345	20807
897.466	20697
897.587	20773
897.708	21005
897.828	20804
897.949	20807
898.07	20598
898.19	20746
898.311	20910
898.431	20788
898.552	20960
898.672	20990
898.792	20921
898.913	20941
899.033	20857
899.153	20804
899.273	20522
899.393	20651
899.513	20632
899.633	20537
899.753	20663
899.873	20507
899.993	20613
900.113	20609
900.232	20579
900.352	20454
900.472	20415
900.591	20168
900.711	20351
900.83	20423
900.95	20419
901.069	20442
901.189	20259
901.308	19974
901.427	20031
901.546	19830
901.665	19906
901.784	19970
901.904	19860
902.023	19605
902.141	19495
902.26	19597
902.379	19643
902.498	19499
902.617	19445
902.735	19472
902.854	19464
902.973	19460
903.091	19141
903.21	19160
903.328	19122
903.446	19008
903.565	19012
903.683	18943
903.801	18783
903.919	18920
904.038	18779
904.156	18612
904.274	18665
904.392	18696
904.51	18696
904.627	18726
904.745	18768
904.863	18810
904.981	18498
905.098	18353
905.216	18395
905.334	18441
905.451	18410
905.569	18361
905.686	18342
905.803	18357
905.921	18209
906.038	18228
906.155	18174
906.272	18076
906.389	18091
906.506	17950
906.623	17859
906.74	17878
906.857	17649
906.974	17821
907.091	17912
907.208	18060
907.324	18019
907.441	17771
907.557	17573
907.674	17577
907.79	17520
907.907	17562
908.023	17646
908.139	17566
908.256	17486
908.372	17520
908.488	17554
908.604	17311
908.72	17261
908.836	17326
908.952	17189
909.068	17337
909.184	17497
909.3	17277
909.415	17364
909.531	17246
909.647	17064
909.762	16946
909.878	17025
909.993	17033
910.108	17109
910.224	17014
910.339	16930
910.454	16930
910.57	16839
910.685	16733
910.8	17071
910.915	16915
911.03	16843
911.145	16637
911.259	16565
911.374	16546
911.489	16531
911.604	16440
911.718	16341
911.833	16310
911.947	16268
912.062	16211
912.176	16367
912.291	16314
912.405	16280
912.519	16588
912.633	16519
912.748	16352
912.862	16303
912.976	16166
913.09	16029
913.204	16048
913.318	16093
913.431	16211
913.545	16310
913.659	16272
913.772	16090
913.886	15934
914	15945
914.113	16021
914.226	16021
914.34	15998
914.453	15838
914.566	15987
914.68	15846
914.793	15827
914.906	15717
915.019	15507
915.132	15542
915.245	15526
915.358	15591
915.47	15485
915.583	15587
915.696	15576
915.809	15580
915.921	15713
916.034	15523
916.146	15370
916.259	15481
916.371	15462
916.483	15538
916.595	15359
916.708	15359
916.82	15367
916.932	15332
917.044	15378
917.156	15214
917.268	15146
917.38	15203
917.491	15081
917.603	15230
917.715	15283
917.826	15313
917.938	15070
918.049	15085
918.161	15142
918.272	15180
918.384	15222
918.495	15047
918.606	14963
918.717	14914
918.828	14872
918.939	14998
919.05	14853
919.161	15028
919.272	14765
919.383	14705
919.494	14944
919.604	15119
919.715	14899
919.826	14872
919.936	14899
920.047	14979
920.157	14956
920.267	15093
920.378	14891
920.488	14769
920.598	15028
920.708	15138
920.818	15039
920.928	15043
921.038	15135
921.148	15195
921.258	14845
921.368	14701
921.477	14678
921.587	14560
921.697	14492
921.806	14556
921.916	14434
922.025	14328
922.134	14214
922.244	14172
922.353	14263
922.462	14103
922.571	14103
922.68	13909
922.789	13860
922.898	13894
923.007	13860
923.116	13788
923.224	13780
923.333	13830
923.442	13738
923.55	13632
923.659	13727
923.767	13818
923.876	13689
923.984	13750
924.092	13548
924.201	13662
924.309	13632
924.417	13620
924.525	13605
924.633	13537
924.741	14267
924.849	13358
924.956	13487
925.064	13316
925.172	13198
925.279	13270
925.387	13289
925.494	13251
925.602	13343
925.709	13369
925.816	13168
925.924	13198
926.031	13251
926.138	13137
926.245	13251
926.352	13069
926.459	13320
926.566	13327
926.673	13118
926.779	13023
926.886	12932
926.993	12909
927.099	12848
927.206	12867
927.312	12829
927.419	12844
927.525	12779
927.631	12840
927.737	12772
927.843	12700
927.95	12608
928.056	12589
928.162	12692
928.267	12608
928.373	13362
928.479	12703
928.585	12464
928.69	12642
928.796	12639
928.901	12460
929.007	12369
929.112	12452
929.218	12536
929.323	12384
929.428	12395
929.533	12517
929.638	12277
929.743	12388
929.848	12372
929.953	12319
930.058	12228
930.163	12121
930.267	12057
930.372	12224
930.477	11996
930.581	12213
930.685	12155
930.79	11946
930.894	12019
930.998	11916
931.103	12015
931.207	11722
931.311	11566
931.415	11421
931.519	11391
931.623	11284
