Data from test_V78500241_3524.txt Node
Date: Fri Mar 25 15:34:23 CST 2022
User: usil
Spectrometer: V785-0024
Trigger mode: 0
Integration Time (sec): 4.000000E-1
Scans to average: 1
Nonlinearity correction enabled: false
Boxcar width: 0
Storing dark spectrum: false
XAxis mode: Wavelengths
Number of Pixels in Spectrum: 1024
>>>>>Begin Spectral Data<<<<<
801.071	27431
801.214	27310
801.356	27138
801.499	26998
801.641	26975
801.783	26887
801.926	26929
802.068	26845
802.211	26834
802.353	26864
802.496	26655
802.638	26602
802.78	26644
802.923	26419
803.065	26484
803.208	26533
803.35	26427
803.492	26655
803.635	26625
803.777	26636
803.919	26830
804.061	27089
804.204	26823
804.346	26598
804.488	26446
804.63	26564
804.773	26674
804.915	26663
805.057	26743
805.199	26701
805.341	26773
805.483	26857
805.626	26830
805.768	26739
805.91	26838
806.052	26868
806.194	26876
806.336	27043
806.478	26823
806.62	26758
806.762	26876
806.904	27142
807.046	27279
807.188	27230
807.33	27180
807.472	27332
807.614	27077
807.756	27020
807.898	27036
808.04	26940
808.182	27135
808.324	27119
808.465	27142
808.607	27233
808.749	27389
808.891	27504
809.033	27580
809.174	27439
809.316	27298
809.458	27408
809.6	27329
809.741	27481
809.883	27511
810.025	27671
810.166	27538
810.308	27865
810.45	27675
810.591	27660
810.733	27450
810.875	27534
811.016	27218
811.158	27348
811.299	27431
811.441	27587
811.582	27477
811.724	27405
811.865	27542
812.007	27397
812.148	27367
812.29	27553
812.431	27538
812.573	27812
812.714	27854
812.855	27892
812.997	27949
813.138	28124
813.279	28139
813.421	27979
813.562	27892
813.703	27698
813.845	27637
813.986	27363
814.127	27195
814.268	27116
814.41	27173
814.551	27192
814.692	27077
814.833	27165
814.974	26914
815.115	27028
815.256	26967
815.397	26960
815.539	26967
815.68	26811
815.821	26792
815.962	26853
816.103	26804
816.244	26720
816.385	26648
816.526	26716
816.666	26408
816.807	26320
816.948	26343
817.089	26343
817.23	26431
817.371	26370
817.512	26271
817.653	26396
817.793	26415
817.934	26393
818.075	26332
818.216	26355
818.356	26423
818.497	26298
818.638	26122
818.778	25982
818.919	26122
819.06	26172
819.2	26275
819.341	26225
819.481	26423
819.622	26438
819.762	26689
819.903	26594
820.043	26469
820.184	26461
820.324	26465
820.465	26583
820.605	26499
820.746	26541
820.886	26199
821.026	26408
821.167	26374
821.307	26381
821.447	26336
821.588	26172
821.728	26176
821.868	26001
822.008	25894
822.149	25772
822.289	25795
822.429	25658
822.569	25441
822.709	25445
822.849	25331
822.99	25331
823.13	25381
823.27	25198
823.41	25152
823.55	25160
823.69	25282
823.83	25247
823.97	25114
824.11	25008
824.25	24886
824.389	24932
824.529	25080
824.669	25031
824.809	25088
824.949	25042
825.089	25069
825.228	25110
825.368	24795
825.508	24810
825.648	24932
825.787	24905
825.927	24840
826.067	24833
826.206	24859
826.346	24996
826.485	24977
826.625	24882
826.765	24920
826.904	24791
827.044	24646
827.183	24677
827.323	24540
827.462	24669
827.601	24612
827.741	24601
827.88	24509
828.02	24563
828.159	24559
828.298	24585
828.437	24635
828.577	24608
828.716	24631
828.855	24433
828.994	24304
829.134	24235
829.273	24353
829.412	24399
829.551	24323
829.69	24376
829.829	24441
829.968	24391
830.107	24407
830.246	24194
830.385	24178
830.524	24186
830.663	24106
830.802	23965
830.941	24007
831.08	24030
831.219	24034
831.357	24011
831.496	24178
831.635	23870
831.774	23927
831.913	23828
832.051	23710
832.19	23752
832.329	23665
832.467	23672
832.606	23634
832.744	23429
832.883	23505
833.022	23570
833.16	23604
833.299	23577
833.437	23646
833.576	23771
833.714	23672
833.852	23687
833.991	23703
834.129	23737
834.267	23775
834.406	23634
834.544	23805
834.682	23748
834.821	23653
834.959	23748
835.097	23493
835.235	23623
835.373	23611
835.511	23684
835.65	23535
835.788	23547
835.926	23444
836.064	23318
836.202	23235
836.34	23395
836.478	23566
836.615	23410
836.753	23509
836.891	23726
837.029	23372
837.167	23482
837.305	23391
837.443	23356
837.58	23299
837.718	23452
837.856	23497
837.993	23368
838.131	23459
838.269	23265
838.406	23383
838.544	23277
838.681	23102
838.819	22980
838.956	22946
839.094	22892
839.231	22847
839.369	22915
839.506	23208
839.643	22953
839.781	22957
839.918	22763
840.055	22869
840.193	22812
840.33	22729
840.467	22892
840.604	22786
840.742	23204
840.879	22675
841.016	22641
841.153	22683
841.29	22934
841.427	22721
841.564	22904
841.701	22778
841.838	22672
841.975	22573
842.112	22596
842.249	22694
842.385	22584
842.522	22790
842.659	22607
842.796	22550
842.933	22637
843.069	22542
843.206	22554
843.343	22603
843.479	22424
843.616	22573
843.752	22382
843.889	22200
844.025	22485
844.162	22261
844.298	22375
844.435	22402
844.571	22287
844.708	22257
844.844	22436
844.98	22394
845.117	22462
845.253	22226
845.389	22318
845.525	22166
845.661	22143
845.798	22063
845.934	22055
846.07	22048
846.206	22059
846.342	22173
846.478	22029
846.614	21762
846.75	21774
846.886	21793
847.022	21831
847.158	21816
847.294	21778
847.429	21926
847.565	21751
847.701	21968
847.837	21549
847.972	21606
848.108	21545
848.244	21618
848.379	21462
848.515	21405
848.65	21329
848.786	21462
848.921	21351
849.057	21492
849.192	21428
849.328	21378
849.463	21325
849.598	21393
849.734	21306
849.869	21306
850.004	21135
850.14	21279
850.275	21176
850.41	21051
850.545	21154
850.68	21127
850.815	21154
850.95	20979
851.085	21408
851.22	21233
851.355	21093
851.49	21180
851.625	21142
851.76	21085
851.895	21074
852.03	21074
852.165	21199
852.299	21138
852.434	21157
852.569	21169
852.703	21043
852.838	21260
852.973	21233
853.107	21317
853.242	21154
853.376	21001
853.511	20952
853.645	20864
853.78	21100
853.914	20944
854.048	20971
854.183	20864
854.317	21032
854.451	21135
854.585	21001
854.72	20857
854.854	21074
854.988	20895
855.122	20902
855.256	20796
855.39	20906
855.524	21081
855.658	20994
855.792	20937
855.926	20975
856.06	21024
856.194	21020
856.327	20952
856.461	20826
856.595	20960
856.729	20815
856.862	21043
856.996	20944
857.13	21005
857.263	20982
857.397	21150
857.53	20921
857.664	20929
857.797	21013
857.931	21020
858.064	21096
858.197	21070
858.331	20990
858.464	21001
858.597	20811
858.731	20815
858.864	20876
858.997	20899
859.13	20823
859.263	21062
859.396	21119
859.529	20864
859.662	20952
859.795	20899
859.928	20941
860.061	21051
860.194	21146
860.327	20944
860.46	21009
860.592	21036
860.725	21222
860.858	20963
860.99	20990
861.123	20838
861.256	20994
861.388	20921
861.521	21823
861.653	20876
861.786	20823
861.918	20826
862.05	20842
862.183	20891
862.315	20952
862.447	20864
862.58	20872
862.712	20720
862.844	20693
862.976	20834
863.108	20617
863.24	21039
863.372	20746
863.504	20777
863.636	20587
863.768	20655
863.9	20724
864.032	20625
864.164	20575
864.296	20697
864.428	20838
864.559	20800
864.691	20746
864.823	20609
864.954	20762
865.086	20659
865.217	20522
865.349	20419
865.48	20575
865.612	20499
865.743	20575
865.875	20636
866.006	20507
866.137	20533
866.269	20465
866.4	20587
866.531	20480
866.662	20412
866.793	20507
866.924	20465
867.055	20503
867.186	20480
867.317	20396
867.448	20393
867.579	20336
867.71	20484
867.841	20461
867.972	20571
868.103	20579
868.233	20492
868.364	20450
868.495	20556
868.625	20826
868.756	20826
868.886	20701
869.017	20804
869.147	20910
869.278	20910
869.408	20849
869.539	20765
869.669	20853
869.799	20804
869.929	20887
870.06	20838
870.19	21032
870.32	21058
870.45	21100
870.58	21104
870.71	21203
870.84	21264
870.97	21203
871.1	21252
871.23	21439
871.36	21405
871.489	21294
871.619	21275
871.749	21207
871.879	21378
872.008	21523
872.138	21393
872.267	21329
872.397	21199
872.526	21268
872.656	21222
872.785	21165
872.915	21370
873.044	21561
873.173	21477
873.303	21485
873.432	21367
873.561	21469
873.69	21317
873.819	21473
873.948	21374
874.077	21359
874.206	21317
874.335	21378
874.464	21523
874.593	21614
874.722	21622
874.851	21652
874.979	21629
875.108	21682
875.237	21618
875.365	21553
875.494	21648
875.623	21629
875.751	21603
875.88	21606
876.008	21789
876.136	21930
876.265	22097
876.393	22204
876.521	22040
876.65	22120
876.778	22048
876.906	22097
877.034	22032
877.162	22021
877.29	21903
877.418	21972
877.546	22002
877.674	21911
877.802	21979
877.93	21934
878.058	21937
878.185	21903
878.313	21975
878.441	21968
878.568	21770
878.696	21808
878.824	21972
878.951	22063
879.079	22166
879.206	22306
879.333	22044
879.461	21975
879.588	22116
879.715	22059
879.842	22166
879.97	22036
880.097	21842
880.224	21797
880.351	21968
880.478	21816
880.605	21663
880.732	21732
880.859	22025
880.986	21838
881.112	21736
881.239	21724
881.366	21591
881.493	21515
881.619	21359
881.746	21431
881.872	21458
881.999	21222
882.125	21332
882.252	21351
882.378	21329
882.505	21317
882.631	21283
882.757	21032
882.883	21226
883.01	21135
883.136	20906
883.262	20895
883.388	20933
883.514	21112
883.64	21047
883.766	20952
883.892	20883
884.018	20971
884.143	21013
884.269	21119
884.395	20849
884.52	20640
884.646	20678
884.772	20617
884.897	20560
885.023	20655
885.148	20781
885.274	20830
885.399	20754
885.524	20686
885.65	20701
885.775	20701
885.9	20769
886.025	20853
886.15	20830
886.275	20674
886.4	20629
886.525	20659
886.65	20583
886.775	20693
886.9	20746
887.025	20918
887.149	20590
887.274	20613
887.399	20404
887.523	20427
887.648	20514
887.773	20427
887.897	20609
888.021	20495
888.146	20404
888.27	20545
888.395	20552
888.519	20590
888.643	20579
888.767	20655
888.891	20480
889.015	20347
889.139	20278
889.263	20248
889.387	20412
889.511	20598
889.635	20324
889.759	20229
889.883	20263
890.006	20305
890.13	20393
890.254	20084
890.377	20233
890.501	19993
890.624	19894
890.748	20096
890.871	19936
890.995	19944
891.118	19875
891.241	19913
891.364	19917
891.488	20088
891.611	19883
891.734	19852
891.857	19963
891.98	19894
892.103	19925
892.226	19753
892.349	19822
892.471	19594
892.594	19833
892.717	19860
892.839	19712
892.962	19780
893.085	19860
893.207	19788
893.33	19609
893.452	19677
893.575	19856
893.697	19719
893.819	19921
893.941	20039
894.064	19921
894.186	19811
894.308	19731
894.43	19932
894.552	19959
894.674	19993
894.796	19658
894.918	19826
895.04	19712
895.161	19997
895.283	19704
895.405	19734
895.526	19776
895.648	19780
895.769	19822
895.891	19780
896.012	19883
896.134	19849
896.255	19837
896.376	19750
896.498	19803
896.619	19845
896.74	19757
896.861	19887
896.982	20031
897.103	20168
897.224	20122
897.345	19989
897.466	20043
897.587	20031
897.708	20134
897.828	19978
897.949	19951
898.07	19845
898.19	19856
898.311	20016
898.431	19978
898.552	19967
898.672	20073
898.792	20107
898.913	20005
899.033	19871
899.153	19784
899.273	19788
899.393	19765
899.513	19811
899.633	19833
899.753	19814
899.873	19666
899.993	19750
900.113	19647
900.232	19769
900.352	19616
900.472	19586
900.591	19571
900.711	19468
900.83	19388
900.95	19575
901.069	19601
901.189	19464
901.308	19228
901.427	19069
901.546	19190
901.665	19133
901.784	19187
901.904	19015
902.023	18722
902.141	18593
902.26	18639
902.379	18783
902.498	18646
902.617	18631
902.735	18661
902.854	18536
902.973	18608
903.091	18300
903.21	18361
903.328	18270
903.446	18220
903.565	18201
903.683	18087
903.801	18045
903.919	18133
904.038	17996
904.156	17931
904.274	18011
904.392	17901
904.51	17927
904.627	17889
904.745	18060
904.863	18026
904.981	17638
905.098	17585
905.216	17528
905.334	17714
905.451	17657
905.569	17505
905.686	17665
905.803	17535
905.921	17391
906.038	17334
906.155	17387
906.272	17254
906.389	17345
906.506	17098
906.623	17185
906.74	17075
906.857	16957
906.974	16987
907.091	17185
907.208	17269
907.324	17273
907.441	16946
907.557	16812
907.674	16816
907.79	16706
907.907	16786
908.023	16736
908.139	16938
908.256	16778
908.372	16668
908.488	16752
908.604	16626
908.72	16535
908.836	16550
908.952	16535
909.068	16584
909.184	16592
909.3	16504
909.415	16584
909.531	16523
909.647	16371
909.762	16287
909.878	16192
909.993	16295
910.108	16181
910.224	16128
910.339	16310
910.454	16238
910.57	16086
910.685	15968
910.8	16242
910.915	16200
911.03	16124
911.145	15930
911.259	15895
911.374	15911
911.489	15793
911.604	15774
911.718	15637
911.833	15614
911.947	15511
912.062	15538
912.176	15633
912.291	15629
912.405	15671
912.519	15793
912.633	15728
912.748	15587
912.862	15481
912.976	15481
913.09	15298
913.204	15431
913.318	15435
913.431	15519
913.545	15530
913.659	15466
913.772	15420
913.886	15321
914	15313
914.113	15332
914.226	15355
914.34	15252
914.453	15142
914.566	15173
914.68	15169
914.793	15169
914.906	14910
915.019	14845
915.132	14765
915.245	14807
915.358	14845
915.47	14906
915.583	14842
915.696	14910
915.809	15024
915.921	15024
916.034	14655
916.146	14712
916.259	14765
916.371	14792
916.483	14811
916.595	14640
916.708	14613
916.82	14758
916.932	14636
917.044	14659
917.156	14590
917.268	14473
917.38	14533
917.491	14423
917.603	14594
917.715	14530
917.826	14541
917.938	14404
918.049	14317
918.161	14404
918.272	14655
918.384	14610
918.495	14385
918.606	14290
918.717	14256
918.828	14256
918.939	14267
919.05	14248
919.161	14252
919.272	14050
919.383	14077
919.494	14225
919.604	14419
919.715	14240
919.826	14195
919.936	14275
920.047	14408
920.157	14225
920.267	14396
920.378	14301
920.488	14252
920.598	14400
920.708	14537
920.818	14419
920.928	14412
921.038	14476
921.148	14492
921.258	14267
921.368	14187
921.477	14046
921.587	13963
921.697	13746
921.806	14005
921.916	13849
922.025	13704
922.134	13677
922.244	13605
922.353	13632
922.462	13567
922.571	13506
922.68	13320
922.789	13339
922.898	13293
923.007	13232
923.116	13282
923.224	13316
923.333	13270
923.442	13175
923.55	13168
923.659	13133
923.767	13247
923.876	13031
923.984	13149
924.092	13012
924.201	13053
924.309	13057
924.417	13000
924.525	12962
924.633	12863
924.741	13750
924.849	12810
924.956	12814
925.064	12795
925.172	12631
925.279	12692
925.387	12707
925.494	12722
925.602	12795
925.709	12757
925.816	12566
925.924	12639
926.031	12749
926.138	12612
926.245	12696
926.352	12532
926.459	12654
926.566	12772
926.673	12658
926.779	12528
926.886	12498
926.993	12395
927.099	12350
927.206	12273
927.312	12232
927.419	12270
927.525	12270
927.631	12327
927.737	12163
927.843	12060
927.95	12098
928.056	12064
928.162	12133
928.267	12106
928.373	12696
928.479	12197
928.585	11954
928.69	12079
928.796	12129
928.901	11980
929.007	11794
929.112	11946
929.218	12030
929.323	11942
929.428	11805
929.533	11980
929.638	11771
929.743	11790
929.848	11779
929.953	11794
930.058	11630
930.163	11505
930.267	11532
930.372	11771
930.477	11497
930.581	11699
930.685	11471
930.79	11444
930.894	11463
930.998	11452
931.103	11516
931.207	11181
931.311	11128
931.415	11003
931.519	10831
931.623	10748
