Data from test_V78500241_47.txt Node
Date: Fri Mar 25 15:10:11 CST 2022
User: usil
Spectrometer: V785-0024
Trigger mode: 0
Integration Time (sec): 4.000000E-1
Scans to average: 1
Nonlinearity correction enabled: false
Boxcar width: 0
Storing dark spectrum: false
XAxis mode: Wavelengths
Number of Pixels in Spectrum: 1024
>>>>>Begin Spectral Data<<<<<
801.071	28573
801.214	28683
801.356	28405
801.499	28344
801.641	28261
801.783	28158
801.926	28257
802.068	28154
802.211	28139
802.353	28120
802.496	27899
802.638	27827
802.78	27766
802.923	27759
803.065	27720
803.208	27804
803.35	27724
803.492	28013
803.635	27983
803.777	27903
803.919	27998
804.061	28272
804.204	27907
804.346	27934
804.488	27850
804.63	27926
804.773	27892
804.915	27975
805.057	27998
805.199	27827
805.341	27892
805.483	28112
805.626	27987
805.768	27842
805.91	28025
806.052	28177
806.194	27880
806.336	28128
806.478	28063
806.62	27911
806.762	28177
806.904	28097
807.046	28344
807.188	28310
807.33	28181
807.472	28474
807.614	28318
807.756	28158
807.898	28188
808.04	28169
808.182	28188
808.324	28124
808.465	28055
808.607	28257
808.749	28329
808.891	28599
809.033	28573
809.174	28569
809.316	28443
809.458	28344
809.6	28363
809.741	28588
809.883	28428
810.025	28725
810.166	28793
810.308	28717
810.45	28622
810.591	28599
810.733	28401
810.875	28413
811.016	28265
811.158	28139
811.299	28478
811.441	28508
811.582	28527
811.724	28424
811.865	28409
812.007	28379
812.148	28356
812.29	28268
812.431	28542
812.573	28645
812.714	28736
812.855	28892
812.997	29029
813.138	29075
813.279	29014
813.421	28923
813.562	28759
813.703	28565
813.845	28516
813.986	28185
814.127	28139
814.268	27945
814.41	27998
814.551	28051
814.692	28032
814.833	27914
814.974	27804
815.115	27998
815.256	27827
815.397	27759
815.539	27717
815.68	27690
815.821	27557
815.962	27713
816.103	27644
816.244	27485
816.385	27412
816.526	27477
816.666	27233
816.807	27222
816.948	27150
817.089	27211
817.23	27245
817.371	27264
817.512	26994
817.653	27039
817.793	27180
817.934	27135
818.075	27062
818.216	27028
818.356	26963
818.497	27085
818.638	26769
818.778	26785
818.919	26834
819.06	26918
819.2	26925
819.341	27055
819.481	26929
819.622	27112
819.762	27336
819.903	27173
820.043	27066
820.184	27176
820.324	27051
820.465	27146
820.605	27169
820.746	26940
820.886	26929
821.026	27096
821.167	26963
821.307	27226
821.447	26857
821.588	26967
821.728	26876
821.868	26564
822.008	26438
822.149	26415
822.289	26404
822.429	26153
822.569	26122
822.709	26111
822.849	25940
822.99	25940
823.13	25784
823.27	25849
823.41	25681
823.55	25727
823.69	25586
823.83	25784
823.97	25670
824.11	25552
824.25	25476
824.389	25605
824.529	25472
824.669	25419
824.809	25666
824.949	25567
825.089	25544
825.228	25544
825.368	25312
825.508	25346
825.648	25282
825.787	25221
825.927	25346
826.067	25221
826.206	25183
826.346	25365
826.485	25304
826.625	25316
826.765	25312
826.904	25259
827.044	24981
827.183	24894
827.323	24966
827.462	24992
827.601	25046
827.741	24867
827.88	24951
828.02	24814
828.159	24806
828.298	24932
828.437	25012
828.577	24677
828.716	25107
828.855	24913
828.994	24745
829.134	24525
829.273	24498
829.412	24551
829.551	24357
829.69	24494
829.829	24536
829.968	24677
830.107	24730
830.246	24642
830.385	24369
830.524	24384
830.663	24319
830.802	24117
830.941	24190
831.08	24194
831.219	24182
831.357	24171
831.496	24418
831.635	24121
831.774	24034
831.913	24087
832.051	23920
832.19	23859
832.329	23885
832.467	23775
832.606	23722
832.744	23691
832.883	23710
833.022	23592
833.16	23752
833.299	23729
833.437	23615
833.576	23855
833.714	23691
833.852	23813
833.991	23836
834.129	23832
834.267	23687
834.406	23813
834.544	23901
834.682	23840
834.821	23676
834.959	23931
835.097	23596
835.235	23767
835.373	23783
835.511	23661
835.65	23638
835.788	23531
835.926	23448
836.064	23391
836.202	23360
836.34	23524
836.478	23543
836.615	23478
836.753	23627
836.891	23581
837.029	23615
837.167	23558
837.305	23497
837.443	23440
837.58	23341
837.718	23421
837.856	23452
837.993	23425
838.131	23349
838.269	23265
838.406	23360
838.544	23269
838.681	23018
838.819	22930
838.956	22908
839.094	22854
839.231	22809
839.369	23029
839.506	23227
839.643	23060
839.781	22790
839.918	22679
840.055	22812
840.193	22710
840.33	22755
840.467	22782
840.604	22668
840.742	22877
840.879	22546
841.016	22618
841.153	22622
841.29	22763
841.427	22706
841.564	22679
841.701	22698
841.838	22577
841.975	22497
842.112	22611
842.249	22557
842.385	22360
842.522	22615
842.659	22459
842.796	22341
842.933	22363
843.069	22257
843.206	22196
843.343	22497
843.479	22341
843.616	22421
843.752	22070
843.889	22116
844.025	22284
844.162	21979
844.298	22265
844.435	22131
844.571	21964
844.708	22173
844.844	22150
844.98	22230
845.117	22261
845.253	22006
845.389	22040
845.525	22002
845.661	22059
845.798	21907
845.934	21960
846.07	21701
846.206	21880
846.342	21861
846.478	21827
846.614	21648
846.75	21401
846.886	21606
847.022	21606
847.158	21576
847.294	21534
847.429	21656
847.565	21500
847.701	21842
847.837	21260
847.972	21211
848.108	21397
848.244	21401
848.379	21252
848.515	21108
848.65	21051
848.786	21214
848.921	21062
849.057	21222
849.192	21211
849.328	21096
849.463	21123
849.598	21032
849.734	21013
849.869	21066
850.004	20975
850.14	20979
850.275	20891
850.41	20765
850.545	20785
850.68	20746
850.815	20887
850.95	20765
851.085	21001
851.22	20902
851.355	20754
851.49	20811
851.625	20788
851.76	20781
851.895	20731
852.03	20758
852.165	20743
852.299	20902
852.434	20845
852.569	20849
852.703	20811
852.838	20872
852.973	20868
853.107	20887
853.242	20762
853.376	20625
853.511	20488
853.645	20587
853.78	20739
853.914	20609
854.048	20640
854.183	20495
854.317	20606
854.451	20731
854.585	20629
854.72	20636
854.854	20632
854.988	20511
855.122	20541
855.256	20461
855.39	20682
855.524	20674
855.658	20632
855.792	20613
855.926	20636
856.06	20727
856.194	20659
856.327	20617
856.461	20495
856.595	20480
856.729	20644
856.862	20701
856.996	20617
857.13	20606
857.263	20697
857.397	20712
857.53	20480
857.664	20602
857.797	20678
857.931	20602
858.064	20674
858.197	20739
858.331	20537
858.464	20450
858.597	20343
858.731	20537
858.864	20545
858.997	20541
859.13	20541
859.263	20541
859.396	20678
859.529	20473
859.662	20495
859.795	20404
859.928	20579
860.061	20716
860.194	20651
860.327	20488
860.46	20438
860.592	20659
860.725	20625
860.858	20667
860.99	20659
861.123	20499
861.256	20492
861.388	20495
861.521	21081
861.653	20275
861.786	20317
861.918	20374
862.05	20454
862.183	20442
862.315	20644
862.447	20629
862.58	20499
862.712	20381
862.844	20282
862.976	20431
863.108	20218
863.24	20743
863.372	20267
863.504	20180
863.636	20180
863.768	20290
863.9	20145
864.032	20180
864.164	20092
864.296	20180
864.428	20168
864.559	20233
864.691	20309
864.823	20218
864.954	20195
865.086	20202
865.217	20031
865.349	20062
865.48	20157
865.612	20107
865.743	20233
865.875	20134
866.006	20069
866.137	20130
866.269	20027
866.4	20168
866.531	20008
866.662	19940
866.793	19921
866.924	20065
867.055	20008
867.186	20149
867.317	20084
867.448	19963
867.579	19925
867.71	19970
867.841	19951
867.972	19997
868.103	19970
868.233	19997
868.364	20164
868.495	20210
868.625	20256
868.756	20427
868.886	20107
869.017	20256
869.147	20370
869.278	20309
869.408	20400
869.539	20202
869.669	20423
869.799	20313
869.929	20343
870.06	20404
870.19	20587
870.32	20568
870.45	20606
870.58	20678
870.71	20826
870.84	20800
870.97	20651
871.1	20629
871.23	20842
871.36	20880
871.489	20823
871.619	20762
871.749	20815
871.879	20895
872.008	20971
872.138	20754
872.267	20804
872.397	20644
872.526	20678
872.656	20678
872.785	20746
872.915	20918
873.044	21047
873.173	20887
873.303	20956
873.432	20868
873.561	21058
873.69	20819
873.819	20982
873.948	20933
874.077	20921
874.206	20773
874.335	20872
874.464	20906
874.593	21100
874.722	21108
874.851	21199
874.979	21199
875.108	21329
875.237	21116
875.365	21093
875.494	20982
875.623	21214
875.751	21173
875.88	21157
876.008	21264
876.136	21393
876.265	21523
876.393	21671
876.521	21416
876.65	21652
876.778	21576
876.906	21530
877.034	21492
877.162	21504
877.29	21428
877.418	21545
877.546	21595
877.674	21447
877.802	21595
877.93	21523
878.058	21488
878.185	21310
878.313	21504
878.441	21557
878.568	21291
878.696	21370
878.824	21599
878.951	21576
879.079	21663
879.206	21823
879.333	21583
879.461	21595
879.588	21553
879.715	21633
879.842	21781
879.97	21599
880.097	21363
880.224	21264
880.351	21412
880.478	21336
880.605	21211
880.732	21317
880.859	21610
880.986	21180
881.112	21370
881.239	21146
881.366	21062
881.493	21020
881.619	20895
881.746	20963
881.872	20933
881.999	20876
882.125	20914
882.252	20906
882.378	20811
882.505	20948
882.631	20834
882.757	20758
882.883	20731
883.01	20693
883.136	20552
883.262	20530
883.388	20473
883.514	20640
883.64	20678
883.766	20720
883.892	20423
884.018	20377
884.143	20541
884.269	20693
884.395	20362
884.52	20244
884.646	20427
884.772	20126
884.897	20218
885.023	20259
885.148	20408
885.274	20385
885.399	20480
885.524	20206
885.65	20328
885.775	20317
885.9	20237
886.025	20454
886.15	20305
886.275	20252
886.4	20130
886.525	20347
886.65	20092
886.775	20180
886.9	20324
887.025	20469
887.149	20202
887.274	20138
887.399	20073
887.523	20088
887.648	20027
887.773	19909
887.897	20073
888.021	20054
888.146	19913
888.27	20145
888.395	20054
888.519	20100
888.643	20065
888.767	20092
888.891	19917
889.015	19788
889.139	19868
889.263	19856
889.387	19833
889.511	20020
889.635	19951
889.759	19845
889.883	19727
890.006	19776
890.13	19822
890.254	19685
890.377	19708
890.501	19533
890.624	19480
890.748	19548
890.871	19441
890.995	19430
891.118	19282
891.241	19426
891.364	19331
891.488	19575
891.611	19362
891.734	19422
891.857	19388
891.98	19430
892.103	19400
892.226	19544
892.349	19331
892.471	19236
892.594	19365
892.717	19255
892.839	19304
892.962	19331
893.085	19327
893.207	19354
893.33	19187
893.452	19251
893.575	19373
893.697	19244
893.819	19548
893.941	19537
894.064	19426
894.186	19122
894.308	19339
894.43	19441
894.552	19476
894.674	19453
894.796	19293
894.918	19320
895.04	19217
895.161	19373
895.283	19358
895.405	19304
895.526	19297
895.648	19289
895.769	19324
895.891	19396
896.012	19453
896.134	19358
896.255	19339
896.376	19274
896.498	19411
896.619	19453
896.74	19403
896.861	19460
896.982	19772
897.103	19860
897.224	19700
897.345	19689
897.466	19582
897.587	19506
897.708	19708
897.828	19590
897.949	19510
898.07	19434
898.19	19445
898.311	19643
898.431	19506
898.552	19578
898.672	19571
898.792	19601
898.913	19582
899.033	19426
899.153	19282
899.273	19175
899.393	19244
899.513	19362
899.633	19160
899.753	19308
899.873	19171
899.993	19331
900.113	19152
900.232	19240
900.352	19251
900.472	19198
900.591	19012
900.711	19137
900.83	19091
900.95	19228
901.069	19072
901.189	18924
901.308	18783
901.427	18734
901.546	18612
901.665	18673
901.784	18745
901.904	18559
902.023	18479
902.141	18243
902.26	18289
902.379	18292
902.498	18228
902.617	18163
902.735	18224
902.854	18053
902.973	18171
903.091	17935
903.21	17904
903.328	17901
903.446	17733
903.565	17684
903.683	17668
903.801	17501
903.919	17608
904.038	17562
904.156	17463
904.274	17543
904.392	17452
904.51	17463
904.627	17448
904.745	17486
904.863	17410
904.981	17292
905.098	17067
905.216	17121
905.334	17189
905.451	17071
905.569	17079
905.686	17143
905.803	17006
905.921	16843
906.038	16915
906.155	16908
906.272	16748
906.389	16866
906.506	16664
906.623	16706
906.74	16622
906.857	16569
906.974	16588
907.091	16698
907.208	16706
907.324	16679
907.441	16679
907.557	16402
907.674	16322
907.79	16242
907.907	16379
908.023	16386
908.139	16341
908.256	16257
908.372	16226
908.488	16234
908.604	16071
908.72	16067
908.836	16044
908.952	16032
909.068	16093
909.184	16074
909.3	16040
909.415	16051
909.531	16105
909.647	15861
909.762	15739
909.878	15663
909.993	15762
910.108	15793
910.224	15774
910.339	15739
910.454	15644
910.57	15504
910.685	15507
910.8	15835
910.915	15618
911.03	15591
911.145	15336
911.259	15386
911.374	15382
911.489	15199
911.604	15237
911.718	15039
911.833	15032
911.947	14925
912.062	14895
912.176	15020
912.291	15039
912.405	15077
912.519	15214
912.633	15214
912.748	15062
912.862	15062
912.976	14918
913.09	14735
913.204	14883
913.318	14918
913.431	14982
913.545	14914
913.659	14967
913.772	14830
913.886	14777
914	14773
914.113	14826
914.226	14883
914.34	14773
914.453	14689
914.566	14777
914.68	14617
914.793	14632
914.906	14438
915.019	14389
915.132	14320
915.245	14305
915.358	14400
915.47	14366
915.583	14358
915.696	14461
915.809	14514
915.921	14552
916.034	14225
916.146	14313
916.259	14218
916.371	14343
916.483	14351
916.595	14202
916.708	14149
916.82	14172
916.932	14191
917.044	14157
917.156	14115
917.268	14016
917.38	14107
917.491	13986
917.603	14088
917.715	14027
917.826	14058
917.938	14024
918.049	13830
918.161	13974
918.272	14126
918.384	14164
918.495	14050
918.606	13864
918.717	13753
918.828	13712
918.939	13738
919.05	13613
919.161	13830
919.272	13643
919.383	13677
919.494	13761
919.604	13978
919.715	13753
919.826	13734
919.936	13753
920.047	13803
920.157	13822
920.267	13951
920.378	13871
920.488	13715
920.598	13917
920.708	13989
920.818	13807
920.928	13833
921.038	14035
921.148	13993
921.258	13620
921.368	13624
921.477	13480
921.587	13457
921.697	13381
921.806	13563
921.916	13392
922.025	13247
922.134	13190
922.244	13152
922.353	13160
922.462	12890
922.571	12935
922.68	12814
922.789	12840
922.898	12753
923.007	12779
923.116	12764
923.224	12681
923.333	12681
923.442	12696
923.55	12612
923.659	12662
923.767	12658
923.876	12589
923.984	12601
924.092	12486
924.201	12486
924.309	12574
924.417	12566
924.525	12391
924.633	12525
924.741	13297
924.849	12304
924.956	12521
925.064	12277
925.172	12034
925.279	12136
925.387	12190
925.494	12224
925.602	12342
925.709	12277
925.816	12125
925.924	12182
926.031	12289
926.138	12171
926.245	12209
926.352	12098
926.459	12129
926.566	12243
926.673	12087
926.779	11980
926.886	11912
926.993	11824
927.099	11901
927.206	11863
927.312	11767
927.419	11817
927.525	11760
927.631	11851
927.737	11726
927.843	11657
927.95	11486
928.056	11672
928.162	11699
928.267	11767
928.373	12380
928.479	11798
928.585	11455
928.69	11608
928.796	11562
928.901	11558
929.007	11376
929.112	11524
929.218	11493
929.323	11410
929.428	11516
929.533	11543
929.638	11322
929.743	11387
929.848	11417
929.953	11296
930.058	11223
930.163	11033
930.267	11048
930.372	11250
930.477	11003
930.581	11265
930.685	11147
930.79	10923
930.894	10976
930.998	10942
931.103	11143
931.207	10649
931.311	10592
931.415	10630
931.519	10379
931.623	10356
