Data from test_V78500241_3224.txt Node
Date: Fri Mar 25 15:32:18 CST 2022
User: usil
Spectrometer: V785-0024
Trigger mode: 0
Integration Time (sec): 4.000000E-1
Scans to average: 1
Nonlinearity correction enabled: false
Boxcar width: 0
Storing dark spectrum: false
XAxis mode: Wavelengths
Number of Pixels in Spectrum: 1024
>>>>>Begin Spectral Data<<<<<
801.071	27226
801.214	27135
801.356	26804
801.499	27009
801.641	26735
801.783	26758
801.926	26792
802.068	26895
802.211	26659
802.353	26606
802.496	26385
802.638	26469
802.78	26332
802.923	26324
803.065	26267
803.208	26126
803.35	26370
803.492	26480
803.635	26552
803.777	26355
803.919	26514
804.061	26788
804.204	26560
804.346	26492
804.488	26309
804.63	26488
804.773	26366
804.915	26533
805.057	26651
805.199	26396
805.341	26632
805.483	26651
805.626	26708
805.768	26556
805.91	26659
806.052	26629
806.194	26613
806.336	26804
806.478	26606
806.62	26689
806.762	26792
806.904	26963
807.046	27112
807.188	27081
807.33	27066
807.472	27192
807.614	26990
807.756	26963
807.898	26815
808.04	26883
808.182	26815
808.324	26842
808.465	26971
808.607	26971
808.749	27157
808.891	27287
809.033	27420
809.174	27321
809.316	27058
809.458	27203
809.6	27199
809.741	27283
809.883	27283
810.025	27443
810.166	27454
810.308	27523
810.45	27538
810.591	27374
810.733	27340
810.875	27226
811.016	27252
811.158	27218
811.299	27294
811.441	27557
811.582	27310
811.724	27264
811.865	27180
812.007	27142
812.148	27268
812.29	27192
812.431	27321
812.573	27397
812.714	27526
812.855	27717
812.997	27705
813.138	27827
813.279	27785
813.421	27698
813.562	27682
813.703	27473
813.845	27420
813.986	27070
814.127	26982
814.268	26876
814.41	26910
814.551	26762
814.692	26910
814.833	26765
814.974	26937
815.115	26857
815.256	26648
815.397	26750
815.539	26689
815.68	26819
815.821	26602
815.962	26708
816.103	26613
816.244	26514
816.385	26446
816.526	26465
816.666	26294
816.807	26142
816.948	26191
817.089	26259
817.23	26081
817.371	26210
817.512	26161
817.653	26233
817.793	26206
817.934	26096
818.075	26278
818.216	26339
818.356	26103
818.497	25963
818.638	25784
818.778	25856
818.919	25822
819.06	25959
819.2	25951
819.341	26020
819.481	26039
819.622	26122
819.762	26400
819.903	26294
820.043	26366
820.184	26221
820.324	26286
820.465	26240
820.605	26164
820.746	26210
820.886	26050
821.026	26221
821.167	26153
821.307	26305
821.447	26111
821.588	25989
821.728	25932
821.868	25666
822.008	25658
822.149	25655
822.289	25601
822.429	25320
822.569	25266
822.709	25377
822.849	24977
822.99	25042
823.13	25171
823.27	24951
823.41	25012
823.55	24943
823.69	24890
823.83	24962
823.97	24867
824.11	24719
824.25	24661
824.389	24783
824.529	24810
824.669	24673
824.809	24928
824.949	24783
825.089	24859
825.228	24669
825.368	24551
825.508	24456
825.648	24578
825.787	24700
825.927	24707
826.067	24513
826.206	24547
826.346	24658
826.485	24681
826.625	24661
826.765	24745
826.904	24703
827.044	24391
827.183	24342
827.323	24209
827.462	24437
827.601	24384
827.741	24178
827.88	24277
828.02	24125
828.159	24327
828.298	24251
828.437	24414
828.577	24209
828.716	24403
828.855	24254
828.994	24076
829.134	23977
829.273	24060
829.412	23946
829.551	23996
829.69	24022
829.829	23916
829.968	24076
830.107	24197
830.246	24041
830.385	24083
830.524	23965
830.663	23840
830.802	23775
830.941	23634
831.08	23657
831.219	23729
831.357	23543
831.496	23794
831.635	23748
831.774	23653
831.913	23642
832.051	23486
832.19	23505
832.329	23307
832.467	23280
832.606	23356
832.744	23277
832.883	23398
833.022	23178
833.16	23296
833.299	23421
833.437	23311
833.576	23360
833.714	23292
833.852	23497
833.991	23433
834.129	23493
834.267	23387
834.406	23459
834.544	23467
834.682	23395
834.821	23337
834.959	23520
835.097	23391
835.235	23379
835.373	23444
835.511	23421
835.65	23273
835.788	23258
835.926	23113
836.064	23048
836.202	23018
836.34	23235
836.478	23261
836.615	23037
836.753	23174
836.891	23280
837.029	23246
837.167	23189
837.305	23117
837.443	23193
837.58	23098
837.718	23204
837.856	23140
837.993	23060
838.131	23166
838.269	22965
838.406	23086
838.544	22911
838.681	22752
838.819	22740
838.956	22683
839.094	22599
839.231	22660
839.369	22755
839.506	22892
839.643	22824
839.781	22611
839.918	22569
840.055	22599
840.193	22573
840.33	22436
840.467	22546
840.604	22466
840.742	22828
840.879	22318
841.016	22363
841.153	22348
841.29	22596
841.427	22596
841.564	22580
841.701	22428
841.838	22504
841.975	22405
842.112	22443
842.249	22390
842.385	22295
842.522	22565
842.659	22310
842.796	22226
842.933	22196
843.069	22200
843.206	22177
843.343	22348
843.479	22375
843.616	22314
843.752	22112
843.889	22116
844.025	22242
844.162	22002
844.298	22188
844.435	21949
844.571	22086
844.708	21956
844.844	22044
844.98	22124
845.117	22219
845.253	22078
845.389	21861
845.525	21934
845.661	21895
845.798	21797
845.934	21880
846.07	21751
846.206	21785
846.342	21827
846.478	21675
846.614	21599
846.75	21519
846.886	21564
847.022	21701
847.158	21564
847.294	21572
847.429	21591
847.565	21564
847.701	21785
847.837	21294
847.972	21317
848.108	21291
848.244	21348
848.379	21150
848.515	21104
848.65	21112
848.786	21074
848.921	21096
849.057	21211
849.192	21154
849.328	21188
849.463	21173
849.598	21074
849.734	21047
849.869	21005
850.004	20941
850.14	21013
850.275	20895
850.41	20788
850.545	20902
850.68	20872
850.815	20998
850.95	20982
851.085	21070
851.22	21051
851.355	20998
851.49	20861
851.625	20994
851.76	20845
851.895	20857
852.03	20800
852.165	20880
852.299	20979
852.434	20979
852.569	20861
852.703	20902
852.838	21005
852.973	21036
853.107	21173
853.242	20807
853.376	20750
853.511	20492
853.645	20712
853.78	20868
853.914	20785
854.048	20804
854.183	20769
854.317	20777
854.451	20887
854.585	20689
854.72	20765
854.854	20686
854.988	20682
855.122	20819
855.256	20674
855.39	20815
855.524	20849
855.658	20800
855.792	20769
855.926	20708
856.06	20682
856.194	20804
856.327	20697
856.461	20594
856.595	20625
856.729	20712
856.862	20864
856.996	20746
857.13	20762
857.263	20861
857.397	20861
857.53	20640
857.664	20716
857.797	20811
857.931	20849
858.064	20731
858.197	20880
858.331	20785
858.464	20697
858.597	20716
858.731	20796
858.864	20621
858.997	20693
859.13	20758
859.263	20785
859.396	20758
859.529	20708
859.662	20743
859.795	20754
859.928	20670
860.061	20929
860.194	20914
860.327	20807
860.46	20788
860.592	20838
860.725	20906
860.858	20914
860.99	20746
861.123	20644
861.256	20644
861.388	20807
861.521	21222
861.653	20590
861.786	20522
861.918	20587
862.05	20587
862.183	20549
862.315	20663
862.447	20762
862.58	20735
862.712	20400
862.844	20541
862.976	20594
863.108	20564
863.24	20804
863.372	20396
863.504	20488
863.636	20431
863.768	20461
863.9	20465
864.032	20362
864.164	20419
864.296	20503
864.428	20541
864.559	20507
864.691	20541
864.823	20423
864.954	20492
865.086	20461
865.217	20294
865.349	20271
865.48	20298
865.612	20298
865.743	20518
865.875	20237
866.006	20385
866.137	20431
866.269	20317
866.4	20343
866.531	20313
866.662	20263
866.793	20370
866.924	20313
867.055	20267
867.186	20396
867.317	20328
867.448	20218
867.579	20339
867.71	20142
867.841	20252
867.972	20225
868.103	20206
868.233	20278
868.364	20305
868.495	20412
868.625	20583
868.756	20750
868.886	20465
869.017	20590
869.147	20602
869.278	20743
869.408	20678
869.539	20621
869.669	20564
869.799	20587
869.929	20670
870.06	20587
870.19	20842
870.32	20792
870.45	21001
870.58	20941
870.71	20902
870.84	21017
870.97	20887
871.1	21009
871.23	21112
871.36	21116
871.489	20986
871.619	21138
871.749	21100
871.879	21157
872.008	21214
872.138	21142
872.267	21176
872.397	21036
872.526	20906
872.656	20910
872.785	20941
872.915	21199
873.044	21298
873.173	21150
873.303	21237
873.432	21222
873.561	21294
873.69	21154
873.819	21150
873.948	21264
874.077	21192
874.206	21150
874.335	21157
874.464	21230
874.593	21378
874.722	21336
874.851	21386
874.979	21519
875.108	21458
875.237	21329
875.365	21279
875.494	21367
875.623	21447
875.751	21462
875.88	21462
876.008	21561
876.136	21618
876.265	21831
876.393	21983
876.521	21857
876.65	21918
876.778	21804
876.906	21819
877.034	21789
877.162	21709
877.29	21701
877.418	21808
877.546	21838
877.674	21663
877.802	21808
877.93	21717
878.058	21694
878.185	21614
878.313	21717
878.441	21690
878.568	21686
878.696	21800
878.824	21675
878.951	21953
879.079	21846
879.206	21941
879.333	21861
879.461	21804
879.588	21819
879.715	21842
879.842	22090
879.97	21823
880.097	21530
880.224	21610
880.351	21724
880.478	21682
880.605	21591
880.732	21587
880.859	21804
880.986	21656
881.112	21614
881.239	21393
881.366	21340
881.493	21214
881.619	21264
881.746	21260
881.872	21188
881.999	21218
882.125	21096
882.252	21351
882.378	21116
882.505	21169
882.631	21013
882.757	20872
882.883	20975
883.01	20849
883.136	20853
883.262	20781
883.388	20792
883.514	20956
883.64	20952
883.766	20746
883.892	20632
884.018	20644
884.143	20887
884.269	20872
884.395	20522
884.52	20457
884.646	20545
884.772	20571
884.897	20469
885.023	20598
885.148	20602
885.274	20777
885.399	20636
885.524	20507
885.65	20511
885.775	20454
885.9	20419
886.025	20609
886.15	20545
886.275	20556
886.4	20438
886.525	20568
886.65	20412
886.775	20469
886.9	20674
887.025	20746
887.149	20434
887.274	20309
887.399	20332
887.523	20351
887.648	20138
887.773	20218
887.897	20393
888.021	20298
888.146	20252
888.27	20393
888.395	20400
888.519	20317
888.643	20298
888.767	20317
888.891	20176
889.015	20039
889.139	20252
889.263	20008
889.387	20119
889.511	20206
889.635	20206
889.759	20164
889.883	20077
890.006	20058
890.13	20259
890.254	20024
890.377	20122
890.501	19799
890.624	19784
890.748	19879
890.871	19906
890.995	19658
891.118	19685
891.241	19731
891.364	19693
891.488	19727
891.611	19689
891.734	19772
891.857	19685
891.98	19544
892.103	19746
892.226	19639
892.349	19685
892.471	19468
892.594	19666
892.717	19586
892.839	19571
892.962	19540
893.085	19753
893.207	19559
893.33	19457
893.452	19453
893.575	19578
893.697	19559
893.819	19814
893.941	19750
894.064	19723
894.186	19518
894.308	19540
894.43	19647
894.552	19712
894.674	19696
894.796	19556
894.918	19521
895.04	19563
895.161	19609
895.283	19575
895.405	19533
895.526	19586
895.648	19556
895.769	19609
895.891	19738
896.012	19727
896.134	19616
896.255	19655
896.376	19696
896.498	19662
896.619	19696
896.74	19563
896.861	19586
896.982	19818
897.103	20069
897.224	19959
897.345	19909
897.466	19784
897.587	19772
897.708	19902
897.828	19852
897.949	19795
898.07	19590
898.19	19715
898.311	19769
898.431	19852
898.552	19875
898.672	19856
898.792	19944
898.913	19761
899.033	19799
899.153	19647
899.273	19525
899.393	19712
899.513	19594
899.633	19495
899.753	19624
899.873	19544
899.993	19632
900.113	19548
900.232	19483
900.352	19415
900.472	19274
900.591	19293
900.711	19369
900.83	19403
900.95	19514
901.069	19476
901.189	19110
901.308	19084
901.427	18977
901.546	18970
901.665	18989
901.784	19042
901.904	18867
902.023	18760
902.141	18604
902.26	18612
902.379	18555
902.498	18509
902.617	18452
902.735	18597
902.854	18418
902.973	18369
903.091	18232
903.21	18022
903.328	18148
903.446	18152
903.565	18064
903.683	17988
903.801	17920
903.919	17980
904.038	17946
904.156	17649
904.274	17866
904.392	17703
904.51	17558
904.627	17707
904.745	17699
904.863	17707
904.981	17433
905.098	17417
905.216	17406
905.334	17532
905.451	17364
905.569	17334
905.686	17482
905.803	17334
905.921	17280
906.038	17208
906.155	17200
906.272	17094
906.389	17094
906.506	16961
906.623	16972
906.74	16968
906.857	16828
906.974	16858
907.091	16991
907.208	17033
907.324	16980
907.441	16896
907.557	16710
907.674	16645
907.79	16687
907.907	16607
908.023	16641
908.139	16622
908.256	16622
908.372	16554
908.488	16527
908.604	16485
908.72	16367
908.836	16447
908.952	16405
909.068	16413
909.184	16580
909.3	16371
909.415	16428
909.531	16246
909.647	16120
909.762	16112
909.878	16059
909.993	16158
910.108	15994
910.224	16105
910.339	15998
910.454	16051
910.57	16010
910.685	15850
910.8	16211
910.915	16059
911.03	15934
911.145	15679
911.259	15686
911.374	15633
911.489	15606
911.604	15587
911.718	15477
911.833	15405
911.947	15367
912.062	15252
912.176	15435
912.291	15473
912.405	15386
912.519	15610
912.633	15720
912.748	15545
912.862	15378
912.976	15348
913.09	15138
913.204	15256
913.318	15317
913.431	15294
913.545	15336
913.659	15355
913.772	15241
913.886	15135
914	15192
914.113	15176
914.226	15127
914.34	15108
914.453	15024
914.566	15028
914.68	14891
914.793	14937
914.906	14750
915.019	14667
915.132	14682
915.245	14648
915.358	14606
915.47	14552
915.583	14712
915.696	14693
915.809	14834
915.921	14895
916.034	14697
916.146	14606
916.259	14522
916.371	14636
916.483	14686
916.595	14583
916.708	14629
916.82	14564
916.932	14537
917.044	14450
917.156	14514
917.268	14461
917.38	14488
917.491	14389
917.603	14343
917.715	14476
917.826	14393
917.938	14313
918.049	14305
918.161	14343
918.272	14522
918.384	14408
918.495	14389
918.606	14286
918.717	14119
918.828	14237
918.939	14187
919.05	14027
919.161	14164
919.272	13887
919.383	14077
919.494	14187
919.604	14358
919.715	14172
919.826	14024
919.936	14035
920.047	14172
920.157	14153
920.267	14278
920.378	14199
920.488	14157
920.598	14309
920.708	14374
920.818	14267
920.928	14259
921.038	14484
921.148	14366
921.258	14062
921.368	13967
921.477	13932
921.587	13765
921.697	13700
921.806	13826
921.916	13738
922.025	13559
922.134	13601
922.244	13502
922.353	13540
922.462	13358
922.571	13426
922.68	13171
922.789	13152
922.898	13129
923.007	13190
923.116	13171
923.224	13217
923.333	13160
923.442	12875
923.55	13053
923.659	13012
923.767	13031
923.876	12951
923.984	13065
924.092	12882
924.201	13008
924.309	12966
924.417	12977
924.525	12905
924.633	12867
924.741	13765
924.849	12658
924.956	12787
925.064	12631
925.172	12627
925.279	12582
925.387	12601
925.494	12684
925.602	12802
925.709	12662
925.816	12547
925.924	12570
926.031	12585
926.138	12536
926.245	12650
926.352	12494
926.459	12620
926.566	12623
926.673	12555
926.779	12380
926.886	12384
926.993	12171
927.099	12209
927.206	12171
927.312	12133
927.419	12224
927.525	12292
927.631	12224
927.737	12114
927.843	12003
927.95	11904
928.056	11984
928.162	12087
928.267	12095
928.373	12684
928.479	12041
928.585	11802
928.69	11942
928.796	12030
928.901	11847
929.007	11737
929.112	11885
929.218	11889
929.323	11748
929.428	11733
929.533	11805
929.638	11668
929.743	11722
929.848	11680
929.953	11767
930.058	11528
930.163	11436
930.267	11433
930.372	11554
930.477	11417
930.581	11623
930.685	11459
930.79	11368
930.894	11406
930.998	11341
931.103	11452
931.207	11075
931.311	11006
931.415	10911
931.519	10740
931.623	10702
