Data from test_V78500241_2743.txt Node
Date: Fri Mar 25 15:28:57 CST 2022
User: usil
Spectrometer: V785-0024
Trigger mode: 0
Integration Time (sec): 4.000000E-1
Scans to average: 1
Nonlinearity correction enabled: false
Boxcar width: 0
Storing dark spectrum: false
XAxis mode: Wavelengths
Number of Pixels in Spectrum: 1024
>>>>>Begin Spectral Data<<<<<
801.071	27157
801.214	26998
801.356	26800
801.499	26788
801.641	26613
801.783	26724
801.926	26689
802.068	26754
802.211	26613
802.353	26514
802.496	26328
802.638	26366
802.78	26275
802.923	26199
803.065	26096
803.208	26149
803.35	26362
803.492	26465
803.635	26564
803.777	26328
803.919	26461
804.061	26781
804.204	26476
804.346	26248
804.488	26332
804.63	26495
804.773	26294
804.915	26434
805.057	26632
805.199	26343
805.341	26389
805.483	26556
805.626	26556
805.768	26629
805.91	26465
806.052	26522
806.194	26453
806.336	26769
806.478	26450
806.62	26678
806.762	26651
806.904	26819
807.046	27024
807.188	27039
807.33	27043
807.472	26952
807.614	26830
807.756	26823
807.898	26872
808.04	26807
808.182	26750
808.324	26781
808.465	26929
808.607	26986
808.749	27195
808.891	27127
809.033	27287
809.174	27135
809.316	27036
809.458	27074
809.6	27119
809.741	27340
809.883	27192
810.025	27313
810.166	27564
810.308	27481
810.45	27321
810.591	27272
810.733	27169
810.875	27142
811.016	26975
811.158	26929
811.299	27222
811.441	27367
811.582	27272
811.724	27077
811.865	27161
812.007	27104
812.148	27062
812.29	27089
812.431	27374
812.573	27405
812.714	27549
812.855	27671
812.997	27781
813.138	27785
813.279	27838
813.421	27709
813.562	27477
813.703	27408
813.845	27245
813.986	27074
814.127	26940
814.268	26876
814.41	26811
814.551	26769
814.692	26902
814.833	26701
814.974	26731
815.115	26701
815.256	26686
815.397	26648
815.539	26598
815.68	26667
815.821	26461
815.962	26613
816.103	26507
816.244	26404
816.385	26377
816.526	26332
816.666	26180
816.807	25982
816.948	26024
817.089	26107
817.23	26027
817.371	26031
817.512	26031
817.653	25989
817.793	25936
817.934	26180
818.075	26012
818.216	25978
818.356	25913
818.497	25947
818.638	25791
818.778	25769
818.919	25841
819.06	25944
819.2	25856
819.341	25986
819.481	25833
819.622	26210
819.762	26313
819.903	26221
820.043	26305
820.184	26096
820.324	26237
820.465	26271
820.605	26313
820.746	26027
820.886	25890
821.026	26195
821.167	26092
821.307	26142
821.447	26050
821.588	25955
821.728	25841
821.868	25647
822.008	25544
822.149	25407
822.289	25369
822.429	25225
822.569	25240
822.709	25236
822.849	25095
822.99	24962
823.13	25027
823.27	24954
823.41	24875
823.55	24703
823.69	24783
823.83	24810
823.97	24783
824.11	24707
824.25	24517
824.389	24768
824.529	24760
824.669	24650
824.809	24658
824.949	24627
825.089	24749
825.228	24616
825.368	24445
825.508	24395
825.648	24388
825.787	24532
825.927	24639
826.067	24426
826.206	24467
826.346	24460
826.485	24422
826.625	24563
826.765	24601
826.904	24502
827.044	24144
827.183	24330
827.323	24243
827.462	24300
827.601	24228
827.741	24106
827.88	24285
828.02	24068
828.159	24201
828.298	24258
828.437	24232
828.577	24224
828.716	24194
828.855	24018
828.994	23920
829.134	23824
829.273	23992
829.412	24038
829.551	23790
829.69	23870
829.829	24049
829.968	23920
830.107	23802
830.246	23809
830.385	23847
830.524	23885
830.663	23581
830.802	23566
830.941	23547
831.08	23486
831.219	23649
831.357	23646
831.496	23684
831.635	23524
831.774	23433
831.913	23402
832.051	23318
832.19	23280
832.329	23265
832.467	23220
832.606	23254
832.744	23124
832.883	23102
833.022	23197
833.16	23155
833.299	23261
833.437	23166
833.576	23296
833.714	23239
833.852	23265
833.991	23364
834.129	23326
834.267	23421
834.406	23376
834.544	23265
834.682	23395
834.821	23208
834.959	23387
835.097	23052
835.235	23292
835.373	23239
835.511	23288
835.65	23185
835.788	23094
835.926	22908
836.064	22877
836.202	22904
836.34	23094
836.478	23220
836.615	23083
836.753	23060
836.891	23258
837.029	23113
837.167	23060
837.305	22972
837.443	22995
837.58	23136
837.718	22995
837.856	22885
837.993	22949
838.131	22915
838.269	22866
838.406	22953
838.544	22721
838.681	22523
838.819	22649
838.956	22436
839.094	22478
839.231	22535
839.369	22569
839.506	22949
839.643	22748
839.781	22394
839.918	22421
840.055	22379
840.193	22356
840.33	22375
840.467	22360
840.604	22478
840.742	22645
840.879	22284
841.016	22394
841.153	22257
841.29	22428
841.427	22272
841.564	22306
841.701	22405
841.838	22333
841.975	22124
842.112	22341
842.249	22204
842.385	22242
842.522	22474
842.659	22166
842.796	22021
842.933	22120
843.069	22086
843.206	22063
843.343	22261
843.479	22120
843.616	22006
843.752	21911
843.889	21880
844.025	22078
844.162	21804
844.298	22002
844.435	21941
844.571	21880
844.708	21941
844.844	22074
844.98	22131
845.117	21968
845.253	21724
845.389	21759
845.525	21770
845.661	21713
845.798	21587
845.934	21629
846.07	21633
846.206	21690
846.342	21713
846.478	21641
846.614	21450
846.75	21424
846.886	21336
847.022	21454
847.158	21496
847.294	21340
847.429	21386
847.565	21435
847.701	21728
847.837	21047
847.972	21127
848.108	21176
848.244	21055
848.379	20937
848.515	20914
848.65	20918
848.786	20902
848.921	21032
849.057	21043
849.192	21017
849.328	21055
849.463	20921
849.598	20918
849.734	20952
849.869	20716
850.004	20796
850.14	20781
850.275	20644
850.41	20636
850.545	20674
850.68	20655
850.815	20777
850.95	20689
851.085	20887
851.22	20743
851.355	20788
851.49	20663
851.625	20743
851.76	20777
851.895	20613
852.03	20739
852.165	20705
852.299	20765
852.434	20853
852.569	20762
852.703	20606
852.838	20739
852.973	20925
853.107	20868
853.242	20606
853.376	20587
853.511	20427
853.645	20492
853.78	20689
853.914	20617
854.048	20556
854.183	20492
854.317	20518
854.451	20693
854.585	20541
854.72	20575
854.854	20651
854.988	20412
855.122	20518
855.256	20412
855.39	20514
855.524	20636
855.658	20678
855.792	20667
855.926	20602
856.06	20697
856.194	20606
856.327	20579
856.461	20457
856.595	20484
856.729	20579
856.862	20720
856.996	20625
857.13	20541
857.263	20727
857.397	20617
857.53	20526
857.664	20587
857.797	20663
857.931	20686
858.064	20434
858.197	20712
858.331	20507
858.464	20450
858.597	20347
858.731	20461
858.864	20499
858.997	20560
859.13	20659
859.263	20590
859.396	20720
859.529	20564
859.662	20560
859.795	20552
859.928	20602
860.061	20720
860.194	20750
860.327	20552
860.46	20568
860.592	20640
860.725	20701
860.858	20724
860.99	20670
861.123	20484
861.256	20492
861.388	20545
861.521	21199
861.653	20507
861.786	20282
861.918	20347
862.05	20427
862.183	20461
862.315	20556
862.447	20571
862.58	20454
862.712	20366
862.844	20317
862.976	20415
863.108	20412
863.24	20651
863.372	20237
863.504	20347
863.636	20278
863.768	20229
863.9	20298
864.032	20202
864.164	20305
864.296	20259
864.428	20404
864.559	20370
864.691	20259
864.823	20122
864.954	20267
865.086	20362
865.217	20180
865.349	20142
865.48	20142
865.612	20183
865.743	20221
865.875	20142
866.006	20153
866.137	20191
866.269	20278
866.4	20168
866.531	20122
866.662	20073
866.793	20073
866.924	20031
867.055	20176
867.186	20161
867.317	20054
867.448	20016
867.579	20111
867.71	20008
867.841	20016
867.972	20054
868.103	20134
868.233	20161
868.364	20073
868.495	20176
868.625	20248
868.756	20488
868.886	20385
869.017	20332
869.147	20511
869.278	20412
869.408	20381
869.539	20305
869.669	20457
869.799	20473
869.929	20469
870.06	20465
870.19	20655
870.32	20526
870.45	20678
870.58	20788
870.71	20857
870.84	20842
870.97	20670
871.1	20739
871.23	20887
871.36	20971
871.489	20868
871.619	20876
871.749	20929
871.879	20986
872.008	21077
872.138	21081
872.267	21055
872.397	20857
872.526	20834
872.656	20788
872.785	20944
872.915	20941
873.044	21135
873.173	20929
873.303	21009
873.432	21104
873.561	21066
873.69	20963
873.819	21077
873.948	21119
874.077	21005
874.206	20937
874.335	20925
874.464	21138
874.593	21051
874.722	21150
874.851	21291
874.979	21283
875.108	21302
875.237	21256
875.365	21066
875.494	21260
875.623	21294
875.751	21161
875.88	21275
876.008	21408
876.136	21359
876.265	21580
876.393	21728
876.521	21679
876.65	21648
876.778	21671
876.906	21542
877.034	21614
877.162	21504
877.29	21492
877.418	21500
877.546	21587
877.674	21492
877.802	21523
877.93	21462
878.058	21492
878.185	21492
878.313	21519
878.441	21564
878.568	21416
878.696	21644
878.824	21500
878.951	21622
879.079	21686
879.206	21846
879.333	21682
879.461	21675
879.588	21610
879.715	21717
879.842	21816
879.97	21686
880.097	21469
880.224	21443
880.351	21363
880.478	21443
880.605	21393
880.732	21431
880.859	21652
880.986	21462
881.112	21408
881.239	21275
881.366	21127
881.493	21066
881.619	20944
881.746	21013
881.872	21032
881.999	21028
882.125	20899
882.252	21013
882.378	20960
882.505	20963
882.631	20830
882.757	20716
882.883	20819
883.01	20724
883.136	20617
883.262	20587
883.388	20457
883.514	20674
883.64	20788
883.766	20522
883.892	20492
884.018	20526
884.143	20632
884.269	20769
884.395	20431
884.52	20336
884.646	20358
884.772	20324
884.897	20176
885.023	20396
885.148	20514
885.274	20450
885.399	20442
885.524	20355
885.65	20298
885.775	20412
885.9	20244
886.025	20499
886.15	20370
886.275	20294
886.4	20149
886.525	20309
886.65	20206
886.775	20237
886.9	20488
887.025	20499
887.149	20362
887.274	20096
887.399	20134
887.523	20145
887.648	20046
887.773	20031
887.897	20271
888.021	20172
888.146	20084
888.27	20259
888.395	20244
888.519	20134
888.643	20229
888.767	20096
888.891	20008
889.015	20020
889.139	20012
889.263	19989
889.387	20081
889.511	20122
889.635	20119
889.759	19894
889.883	19936
890.006	20024
890.13	20065
890.254	19830
890.377	19890
890.501	19674
890.624	19514
890.748	19780
890.871	19556
890.995	19514
891.118	19441
891.241	19499
891.364	19597
891.488	19609
891.611	19518
891.734	19491
891.857	19552
891.98	19495
892.103	19476
892.226	19460
892.349	19434
892.471	19422
892.594	19518
892.717	19483
892.839	19422
892.962	19506
893.085	19464
893.207	19377
893.33	19354
893.452	19263
893.575	19521
893.697	19419
893.819	19559
893.941	19609
894.064	19575
894.186	19441
894.308	19343
894.43	19502
894.552	19491
894.674	19525
894.796	19354
894.918	19491
895.04	19392
895.161	19506
895.283	19601
895.405	19445
895.526	19525
895.648	19491
895.769	19438
895.891	19464
896.012	19403
896.134	19468
896.255	19548
896.376	19274
896.498	19403
896.619	19457
896.74	19468
896.861	19571
896.982	19753
897.103	19875
897.224	19674
897.345	19670
897.466	19601
897.587	19677
897.708	19753
897.828	19655
897.949	19727
898.07	19594
898.19	19575
898.311	19864
898.431	19639
898.552	19753
898.672	19772
898.792	19742
898.913	19693
899.033	19567
899.153	19552
899.273	19487
899.393	19392
899.513	19445
899.633	19548
899.753	19388
899.873	19350
899.993	19388
900.113	19377
900.232	19403
900.352	19244
900.472	19335
900.591	19107
900.711	19221
900.83	19145
900.95	19152
901.069	19236
901.189	19110
901.308	18837
901.427	18768
901.546	18859
901.665	18840
901.784	18825
901.904	18719
902.023	18593
902.141	18403
902.26	18490
902.379	18479
902.498	18338
902.617	18235
902.735	18330
902.854	18376
902.973	18228
903.091	17942
903.21	18022
903.328	18045
903.446	17893
903.565	17927
903.683	17805
903.801	17764
903.919	17699
904.038	17684
904.156	17646
904.274	17577
904.392	17638
904.51	17657
904.627	17589
904.745	17611
904.863	17676
904.981	17368
905.098	17231
905.216	17258
905.334	17326
905.451	17216
905.569	17296
905.686	17269
905.803	17288
905.921	17083
906.038	17265
906.155	17086
906.272	16999
906.389	16896
906.506	16881
906.623	16904
906.74	16835
906.857	16672
906.974	16706
907.091	16839
907.208	16961
907.324	16786
907.441	16675
907.557	16596
907.674	16584
907.79	16421
907.907	16436
908.023	16508
908.139	16546
908.256	16451
908.372	16333
908.488	16352
908.604	16348
908.72	16242
908.836	16234
908.952	16257
909.068	16272
909.184	16352
909.3	16246
909.415	16287
909.531	16226
909.647	15998
909.762	15876
909.878	15911
909.993	15972
910.108	15991
910.224	15888
910.339	15991
910.454	15895
910.57	15705
910.685	15785
910.8	16051
910.915	15956
911.03	15884
911.145	15557
911.259	15561
911.374	15568
911.489	15507
911.604	15473
911.718	15310
911.833	15374
911.947	15256
912.062	15230
912.176	15401
912.291	15450
912.405	15321
912.519	15466
912.633	15553
912.748	15382
912.862	15275
912.976	15104
913.09	15097
913.204	15131
913.318	15218
913.431	15260
913.545	15184
913.659	15279
913.772	15089
913.886	14998
914	14956
914.113	15058
914.226	15104
914.34	14960
914.453	14864
914.566	14914
914.68	14823
914.793	14872
914.906	14659
915.019	14621
915.132	14476
915.245	14518
915.358	14625
915.47	14575
915.583	14560
915.696	14678
915.809	14708
915.921	14781
916.034	14568
916.146	14575
916.259	14434
916.371	14503
916.483	14651
916.595	14560
916.708	14347
916.82	14503
916.932	14381
917.044	14404
917.156	14347
917.268	14240
917.38	14278
917.491	14267
917.603	14183
917.715	14393
917.826	14419
917.938	14172
918.049	14149
918.161	14145
918.272	14358
918.384	14400
918.495	14138
918.606	13989
918.717	13959
918.828	13963
918.939	14001
919.05	14035
919.161	13989
919.272	13860
919.383	13864
919.494	14043
919.604	14240
919.715	13932
919.826	13932
919.936	13967
920.047	14088
920.157	13967
920.267	14062
920.378	13970
920.488	14027
920.598	14233
920.708	14271
920.818	14210
920.928	14164
921.038	14313
921.148	14195
921.258	14073
921.368	13879
921.477	13814
921.587	13712
921.697	13643
921.806	13765
921.916	13552
922.025	13460
922.134	13388
922.244	13415
922.353	13476
922.462	13304
922.571	13308
922.68	13057
922.789	13053
922.898	13046
923.007	13012
923.116	13027
923.224	13034
923.333	12958
923.442	12894
923.55	12970
923.659	12867
923.767	13012
923.876	12798
923.984	12962
924.092	12753
924.201	12817
924.309	12844
924.417	12795
924.525	12707
924.633	12696
924.741	13639
924.849	12559
924.956	12738
925.064	12547
925.172	12372
925.279	12456
925.387	12502
925.494	12532
925.602	12601
925.709	12471
925.816	12479
925.924	12380
926.031	12517
926.138	12494
926.245	12536
926.352	12456
926.459	12521
926.566	12422
926.673	12395
926.779	12239
926.886	12155
926.993	12117
927.099	12155
927.206	12159
927.312	11999
927.419	12114
927.525	12034
927.631	12159
927.737	11920
927.843	11916
927.95	11756
928.056	11969
928.162	11908
928.267	11927
928.373	12475
928.479	11950
928.585	11790
928.69	11920
928.796	11916
928.901	11783
929.007	11638
929.112	11745
929.218	11676
929.323	11604
929.428	11672
929.533	11764
929.638	11623
929.743	11505
929.848	11585
929.953	11539
930.058	11532
930.163	11345
930.267	11299
930.372	11505
930.477	11265
930.581	11592
930.685	11387
930.79	11242
930.894	11273
930.998	11220
931.103	11334
931.207	11006
931.311	10858
931.415	10831
931.519	10702
931.623	10675
