Data from test_V78500241_2607.txt Node
Date: Fri Mar 25 15:28:00 CST 2022
User: usil
Spectrometer: V785-0024
Trigger mode: 0
Integration Time (sec): 4.000000E-1
Scans to average: 1
Nonlinearity correction enabled: false
Boxcar width: 0
Storing dark spectrum: false
XAxis mode: Wavelengths
Number of Pixels in Spectrum: 1024
>>>>>Begin Spectral Data<<<<<
801.071	27184
801.214	27024
801.356	27005
801.499	26838
801.641	26682
801.783	26815
801.926	26750
802.068	26674
802.211	26670
802.353	26446
802.496	26385
802.638	26374
802.78	26294
802.923	26221
803.065	26248
803.208	26275
803.35	26244
803.492	26427
803.635	26579
803.777	26320
803.919	26313
804.061	26883
804.204	26583
804.346	26385
804.488	26461
804.63	26374
804.773	26419
804.915	26461
805.057	26571
805.199	26442
805.341	26499
805.483	26575
805.626	26564
805.768	26393
805.91	26598
806.052	26613
806.194	26568
806.336	26754
806.478	26579
806.62	26598
806.762	26724
806.904	26861
807.046	27043
807.188	27089
807.33	27017
807.472	27074
807.614	26933
807.756	26929
807.898	26944
808.04	26762
808.182	26906
808.324	26883
808.465	26956
808.607	27028
808.749	27135
808.891	27233
809.033	27233
809.174	27348
809.316	27237
809.458	27188
809.6	27138
809.741	27272
809.883	27260
810.025	27424
810.166	27477
810.308	27386
810.45	27458
810.591	27351
810.733	27207
810.875	27116
811.016	26960
811.158	27055
811.299	27344
811.441	27275
811.582	27378
811.724	27268
811.865	27173
812.007	27047
812.148	27317
812.29	27138
812.431	27344
812.573	27496
812.714	27530
812.855	27682
812.997	27838
813.138	27827
813.279	27759
813.421	27633
813.562	27549
813.703	27564
813.845	27325
813.986	27036
814.127	27108
814.268	26861
814.41	26853
814.551	26773
814.692	26762
814.833	26762
814.974	26743
815.115	26712
815.256	26834
815.397	26743
815.539	26640
815.68	26625
815.821	26609
815.962	26796
816.103	26674
816.244	26419
816.385	26549
816.526	26476
816.666	26027
816.807	26153
816.948	26073
817.089	26164
817.23	26153
817.371	26058
817.512	26065
817.653	26058
817.793	25936
817.934	25989
818.075	26122
818.216	26084
818.356	26027
818.497	25887
818.638	25799
818.778	25818
818.919	25860
819.06	25811
819.2	26054
819.341	26081
819.481	26016
819.622	26176
819.762	26381
819.903	26343
820.043	26202
820.184	26043
820.324	26240
820.465	26267
820.605	26111
820.746	26233
820.886	25978
821.026	26096
821.167	26065
821.307	26263
821.447	26001
821.588	26008
821.728	25887
821.868	25818
822.008	25685
822.149	25499
822.289	25544
822.429	25327
822.569	25202
822.709	25251
822.849	25099
822.99	24981
823.13	25148
823.27	24996
823.41	24886
823.55	24787
823.69	24954
823.83	24916
823.97	24848
824.11	24642
824.25	24623
824.389	24741
824.529	24806
824.669	24700
824.809	24741
824.949	24844
825.089	24738
825.228	24783
825.368	24452
825.508	24471
825.648	24517
825.787	24521
825.927	24623
826.067	24601
826.206	24597
826.346	24627
826.485	24559
826.625	24521
826.765	24741
826.904	24757
827.044	24372
827.183	24391
827.323	24273
827.462	24334
827.601	24422
827.741	24361
827.88	24376
828.02	24201
828.159	24155
828.298	24429
828.437	24243
828.577	24110
828.716	24490
828.855	24357
828.994	24091
829.134	23897
829.273	24045
829.412	23969
829.551	24018
829.69	23828
829.829	24053
829.968	24064
830.107	23946
830.246	23840
830.385	23859
830.524	24041
830.663	23832
830.802	23832
830.941	23531
831.08	23570
831.219	23695
831.357	23794
831.496	23851
831.635	23573
831.774	23566
831.913	23577
832.051	23471
832.19	23414
832.329	23391
832.467	23383
832.606	23307
832.744	23193
832.883	23155
833.022	23193
833.16	23330
833.299	23520
833.437	23299
833.576	23429
833.714	23334
833.852	23436
833.991	23311
834.129	23585
834.267	23372
834.406	23341
834.544	23337
834.682	23372
834.821	23391
834.959	23493
835.097	23391
835.235	23379
835.373	23425
835.511	23356
835.65	23261
835.788	23242
835.926	23159
836.064	23052
836.202	23098
836.34	23246
836.478	23280
836.615	23185
836.753	23250
836.891	23261
837.029	23254
837.167	23124
837.305	23006
837.443	23022
837.58	23098
837.718	23003
837.856	23098
837.993	23098
838.131	23022
838.269	22911
838.406	23025
838.544	22820
838.681	22812
838.819	22687
838.956	22580
839.094	22626
839.231	22710
839.369	22767
839.506	23014
839.643	22801
839.781	22538
839.918	22565
840.055	22519
840.193	22436
840.33	22436
840.467	22538
840.604	22470
840.742	22767
840.879	22421
841.016	22481
841.153	22367
841.29	22459
841.427	22497
841.564	22424
841.701	22497
841.838	22500
841.975	22428
842.112	22455
842.249	22329
842.385	22459
842.522	22519
842.659	22443
842.796	22268
842.933	22257
843.069	22226
843.206	22055
843.343	22310
843.479	22234
843.616	22162
843.752	22090
843.889	22070
844.025	22166
844.162	22025
844.298	22093
844.435	21960
844.571	21972
844.708	21979
844.844	22261
844.98	22082
845.117	22150
845.253	21949
845.389	21934
845.525	21808
845.661	21884
845.798	21625
845.934	21827
846.07	21671
846.206	21823
846.342	21968
846.478	21823
846.614	21576
846.75	21393
846.886	21416
847.022	21485
847.158	21488
847.294	21462
847.429	21542
847.565	21454
847.701	21660
847.837	21237
847.972	21226
848.108	21275
848.244	21249
848.379	21066
848.515	21096
848.65	21058
848.786	21165
848.921	21108
849.057	21180
849.192	21203
849.328	21127
849.463	21062
849.598	21188
849.734	20998
849.869	20849
850.004	20746
850.14	20883
850.275	20872
850.41	20826
850.545	20864
850.68	20815
850.815	20929
850.95	20758
851.085	21001
851.22	20899
851.355	20914
851.49	20895
851.625	20807
851.76	20815
851.895	20902
852.03	20819
852.165	20902
852.299	20948
852.434	20899
852.569	20880
852.703	20826
852.838	20975
852.973	20998
853.107	20918
853.242	20689
853.376	20640
853.511	20678
853.645	20712
853.78	20834
853.914	20792
854.048	20663
854.183	20625
854.317	20735
854.451	20857
854.585	20663
854.72	20640
854.854	20838
854.988	20530
855.122	20659
855.256	20560
855.39	20701
855.524	20735
855.658	20743
855.792	20708
855.926	20609
856.06	20667
856.194	20727
856.327	20735
856.461	20705
856.595	20476
856.729	20708
856.862	20743
856.996	20781
857.13	20765
857.263	20693
857.397	20750
857.53	20693
857.664	20716
857.797	20773
857.931	20914
858.064	20667
858.197	20788
858.331	20587
858.464	20587
858.597	20480
858.731	20693
858.864	20632
858.997	20625
859.13	20667
859.263	20724
859.396	20678
859.529	20571
859.662	20636
859.795	20629
859.928	20659
860.061	20800
860.194	20819
860.327	20727
860.46	20678
860.592	20815
860.725	20872
860.858	20777
860.99	20575
861.123	20560
861.256	20613
861.388	20632
861.521	21344
861.653	20602
861.786	20564
861.918	20511
862.05	20575
862.183	20621
862.315	20682
862.447	20606
862.58	20537
862.712	20404
862.844	20389
862.976	20393
863.108	20503
863.24	20880
863.372	20263
863.504	20351
863.636	20374
863.768	20476
863.9	20385
864.032	20256
864.164	20381
864.296	20385
864.428	20545
864.559	20404
864.691	20488
864.823	20366
864.954	20313
865.086	20309
865.217	20351
865.349	20298
865.48	20339
865.612	20290
865.743	20385
865.875	20252
866.006	20221
866.137	20233
866.269	20233
866.4	20328
866.531	20252
866.662	20206
866.793	20115
866.924	20263
867.055	20271
867.186	20282
867.317	20210
867.448	20145
867.579	20275
867.71	20183
867.841	20172
867.972	20195
868.103	20210
868.233	20259
868.364	20278
868.495	20263
868.625	20434
868.756	20473
868.886	20438
869.017	20438
869.147	20545
869.278	20564
869.408	20446
869.539	20446
869.669	20499
869.799	20469
869.929	20686
870.06	20575
870.19	20887
870.32	20682
870.45	20857
870.58	20937
870.71	20960
870.84	20986
870.97	20864
871.1	20880
871.23	20937
871.36	20979
871.489	20979
871.619	20979
871.749	21017
871.879	21119
872.008	21116
872.138	21112
872.267	21009
872.397	20880
872.526	20944
872.656	20857
872.785	20910
872.915	21142
873.044	21260
873.173	21112
873.303	20986
873.432	21146
873.561	21211
873.69	21218
873.819	21070
873.948	21249
874.077	21135
874.206	21028
874.335	21093
874.464	21165
874.593	21298
874.722	21256
874.851	21363
874.979	21462
875.108	21386
875.237	21329
875.365	21142
875.494	21291
875.623	21477
875.751	21310
875.88	21405
876.008	21492
876.136	21580
876.265	21774
876.393	21857
876.521	21842
876.65	21751
876.778	21679
876.906	21728
877.034	21762
877.162	21686
877.29	21591
877.418	21797
877.546	21747
877.674	21732
877.802	21736
877.93	21648
878.058	21694
878.185	21549
878.313	21679
878.441	21606
878.568	21370
878.696	21717
878.824	21743
878.951	21831
879.079	21983
879.206	21968
879.333	21827
879.461	21682
879.588	21732
879.715	21873
879.842	21987
879.97	21656
880.097	21561
880.224	21507
880.351	21599
880.478	21599
880.605	21466
880.732	21587
880.859	21663
880.986	21637
881.112	21469
881.239	21382
881.366	21211
881.493	21135
881.619	21085
881.746	21096
881.872	21131
881.999	21070
882.125	20982
882.252	21116
882.378	21058
882.505	21176
882.631	20918
882.757	20777
882.883	20845
883.01	20853
883.136	20701
883.262	20541
883.388	20663
883.514	20754
883.64	20826
883.766	20735
883.892	20609
884.018	20720
884.143	20720
884.269	20899
884.395	20625
884.52	20415
884.646	20446
884.772	20396
884.897	20396
885.023	20385
885.148	20552
885.274	20552
885.399	20575
885.524	20480
885.65	20339
885.775	20522
885.9	20522
886.025	20621
886.15	20488
886.275	20438
886.4	20404
886.525	20294
886.65	20488
886.775	20320
886.9	20583
887.025	20682
887.149	20286
887.274	20294
887.399	20244
887.523	20225
887.648	20271
887.773	20100
887.897	20225
888.021	20290
888.146	20092
888.27	20290
888.395	20362
888.519	20180
888.643	20256
888.767	20328
888.891	20153
889.015	20065
889.139	20180
889.263	20016
889.387	20122
889.511	20115
889.635	20191
889.759	20001
889.883	20016
890.006	19970
890.13	20111
890.254	19887
890.377	19986
890.501	19917
890.624	19712
890.748	19871
890.871	19734
890.995	19586
891.118	19616
891.241	19586
891.364	19582
891.488	19780
891.611	19689
891.734	19753
891.857	19685
891.98	19609
892.103	19753
892.226	19571
892.349	19628
892.471	19468
892.594	19559
892.717	19582
892.839	19472
892.962	19613
893.085	19651
893.207	19518
893.33	19377
893.452	19415
893.575	19499
893.697	19483
893.819	19594
893.941	19666
894.064	19651
894.186	19502
894.308	19362
894.43	19483
894.552	19601
894.674	19537
894.796	19388
894.918	19586
895.04	19453
895.161	19628
895.283	19643
895.405	19403
895.526	19518
895.648	19525
895.769	19464
895.891	19586
896.012	19696
896.134	19552
896.255	19575
896.376	19571
896.498	19586
896.619	19544
896.74	19586
896.861	19609
896.982	19898
897.103	20035
897.224	19757
897.345	19814
897.466	19746
897.587	19860
897.708	19932
897.828	19807
897.949	19594
898.07	19506
898.19	19753
898.311	19734
898.431	19788
898.552	19723
898.672	19814
898.792	19803
898.913	19712
899.033	19632
899.153	19533
899.273	19487
899.393	19491
899.513	19628
899.633	19495
899.753	19571
899.873	19460
899.993	19510
900.113	19483
900.232	19529
900.352	19464
900.472	19293
900.591	19289
900.711	19331
900.83	19354
900.95	19373
901.069	19430
901.189	19240
901.308	18939
901.427	18932
901.546	18966
901.665	18973
901.784	18867
901.904	18798
902.023	18654
902.141	18509
902.26	18323
902.379	18486
902.498	18467
902.617	18437
902.735	18445
902.854	18410
902.973	18281
903.091	18148
903.21	18079
903.328	18171
903.446	18015
903.565	18003
903.683	17889
903.801	17790
903.919	17805
904.038	17752
904.156	17771
904.274	17779
904.392	17722
904.51	17657
904.627	17657
904.745	17665
904.863	17832
904.981	17516
905.098	17311
905.216	17398
905.334	17463
905.451	17391
905.569	17326
905.686	17261
905.803	17322
905.921	17121
906.038	17193
906.155	17170
906.272	16968
906.389	17143
906.506	16843
906.623	16828
906.74	16965
906.857	16828
906.974	16763
907.091	16869
907.208	17109
907.324	16858
907.441	16839
907.557	16729
907.674	16569
907.79	16531
907.907	16577
908.023	16615
908.139	16573
908.256	16588
908.372	16542
908.488	16497
908.604	16310
908.72	16348
908.836	16333
908.952	16375
909.068	16348
909.184	16470
909.3	16295
909.415	16432
909.531	16344
909.647	16120
909.762	16063
909.878	15998
909.993	16120
910.108	16029
910.224	15922
910.339	16032
910.454	15934
910.57	15770
910.685	15812
910.8	16063
910.915	16029
911.03	15842
911.145	15682
911.259	15652
911.374	15679
911.489	15614
911.604	15576
911.718	15424
911.833	15481
911.947	15378
912.062	15294
912.176	15492
912.291	15443
912.405	15519
912.519	15614
912.633	15625
912.748	15458
912.862	15287
912.976	15233
913.09	15131
913.204	15203
913.318	15249
913.431	15283
913.545	15302
913.659	15332
913.772	15275
913.886	15066
914	15047
914.113	15085
914.226	15123
914.34	15093
914.453	14925
914.566	15005
914.68	14937
914.793	14845
914.906	14743
915.019	14762
915.132	14602
915.245	14648
915.358	14667
915.47	14610
915.583	14602
915.696	14651
915.809	14701
915.921	14746
916.034	14488
916.146	14530
916.259	14427
916.371	14632
916.483	14575
916.595	14503
916.708	14564
916.82	14461
916.932	14408
917.044	14400
917.156	14518
917.268	14343
917.38	14362
917.491	14290
917.603	14332
917.715	14370
917.826	14503
917.938	14309
918.049	14195
918.161	14233
918.272	14476
918.384	14339
918.495	14221
918.606	14107
918.717	14027
918.828	14161
918.939	14142
919.05	13970
919.161	14100
919.272	13902
919.383	13982
919.494	14065
919.604	14263
919.715	14100
919.826	13925
919.936	14096
920.047	14195
920.157	14077
920.267	14195
920.378	14020
920.488	14016
920.598	14214
920.708	14290
920.818	14183
920.928	14210
921.038	14320
921.148	14404
921.258	14005
921.368	13974
921.477	13830
921.587	13841
921.697	13655
921.806	13750
921.916	13723
922.025	13559
922.134	13483
922.244	13354
922.353	13590
922.462	13362
922.571	13263
922.68	13122
922.789	13095
922.898	13118
923.007	13046
923.116	13171
923.224	13042
923.333	13072
923.442	12939
923.55	12859
923.659	12973
923.767	12989
923.876	12878
923.984	12924
924.092	12810
924.201	12920
924.309	12852
924.417	12935
924.525	12810
924.633	12764
924.741	13761
924.849	12608
924.956	12726
925.064	12658
925.172	12475
925.279	12448
925.387	12604
925.494	12566
925.602	12658
925.709	12620
925.816	12410
925.924	12426
926.031	12528
926.138	12521
926.245	12551
926.352	12384
926.459	12570
926.566	12532
926.673	12479
926.779	12289
926.886	12311
926.993	12254
927.099	12144
927.206	11977
927.312	12083
927.419	12159
927.525	12144
927.631	12091
927.737	11969
927.843	11969
927.95	11923
928.056	11954
928.162	11950
928.267	11965
928.373	12532
928.479	12041
928.585	11726
928.69	11988
928.796	11863
928.901	11821
929.007	11661
929.112	11779
929.218	11771
929.323	11695
929.428	11691
929.533	11798
929.638	11672
929.743	11611
929.848	11642
929.953	11585
930.058	11547
930.163	11406
930.267	11425
930.372	11520
930.477	11307
930.581	11528
930.685	11467
930.79	11330
930.894	11242
930.998	11277
931.103	11349
931.207	11014
931.311	10934
931.415	10938
931.519	10653
931.623	10721
