Data from test_V78500241_2786.txt Node
Date: Fri Mar 25 15:29:15 CST 2022
User: usil
Spectrometer: V785-0024
Trigger mode: 0
Integration Time (sec): 4.000000E-1
Scans to average: 1
Nonlinearity correction enabled: false
Boxcar width: 0
Storing dark spectrum: false
XAxis mode: Wavelengths
Number of Pixels in Spectrum: 1024
>>>>>Begin Spectral Data<<<<<
801.071	27165
801.214	27142
801.356	26819
801.499	26876
801.641	26819
801.783	26754
801.926	26667
802.068	26689
802.211	26674
802.353	26560
802.496	26385
802.638	26450
802.78	26370
802.923	26149
803.065	26145
803.208	26237
803.35	26237
803.492	26332
803.635	26480
803.777	26499
803.919	26461
804.061	26823
804.204	26552
804.346	26450
804.488	26343
804.63	26427
804.773	26366
804.915	26495
805.057	26568
805.199	26427
805.341	26526
805.483	26663
805.626	26461
805.768	26480
805.91	26568
806.052	26469
806.194	26442
806.336	26693
806.478	26537
806.62	26545
806.762	26571
806.904	26823
807.046	27176
807.188	27085
807.33	26925
807.472	27055
807.614	26937
807.756	26811
807.898	26781
808.04	26826
808.182	26792
808.324	26887
808.465	26868
808.607	27066
808.749	27108
808.891	27321
809.033	27275
809.174	27211
809.316	27214
809.458	27222
809.6	27119
809.741	27336
809.883	27367
810.025	27545
810.166	27500
810.308	27523
810.45	27332
810.591	27245
810.733	27325
810.875	26952
811.016	26956
811.158	26956
811.299	27321
811.441	27443
811.582	27298
811.724	27249
811.865	27112
812.007	27214
812.148	27066
812.29	27116
812.431	27359
812.573	27420
812.714	27595
812.855	27770
812.997	27732
813.138	27835
813.279	27751
813.421	27568
813.562	27538
813.703	27511
813.845	27378
813.986	27150
814.127	27074
814.268	26842
814.41	26895
814.551	26815
814.692	26823
814.833	26746
814.974	26754
815.115	26960
815.256	26651
815.397	26811
815.539	26659
815.68	26560
815.821	26648
815.962	26636
816.103	26663
816.244	26389
816.385	26404
816.526	26282
816.666	26145
816.807	25940
816.948	26058
817.089	26119
817.23	26126
817.371	26107
817.512	26126
817.653	26134
817.793	26157
817.934	26077
818.075	26073
818.216	26008
818.356	25898
818.497	25913
818.638	25837
818.778	25799
818.919	25757
819.06	25830
819.2	25894
819.341	26062
819.481	26027
819.622	26145
819.762	26431
819.903	26328
820.043	26362
820.184	26084
820.324	26206
820.465	26149
820.605	25970
820.746	26103
820.886	26020
821.026	26092
821.167	25966
821.307	26244
821.447	26096
821.588	25925
821.728	25864
821.868	25670
822.008	25537
822.149	25407
822.289	25540
822.429	25403
822.569	25240
822.709	25343
822.849	24996
822.99	25088
823.13	24882
823.27	24947
823.41	24878
823.55	24726
823.69	24962
823.83	24707
823.97	24806
824.11	24601
824.25	24620
824.389	24677
824.529	24707
824.669	24642
824.809	24753
824.949	24730
825.089	24654
825.228	24715
825.368	24403
825.508	24525
825.648	24486
825.787	24574
825.927	24566
826.067	24589
826.206	24456
826.346	24559
826.485	24692
826.625	24494
826.765	24715
826.904	24555
827.044	24220
827.183	24296
827.323	24239
827.462	24304
827.601	24095
827.741	24079
827.88	24182
828.02	24190
828.159	24213
828.298	24372
828.437	24308
828.577	24167
828.716	24357
828.855	24072
828.994	23961
829.134	23882
829.273	24003
829.412	24030
829.551	23805
829.69	23973
829.829	23878
829.968	24007
830.107	24049
830.246	23882
830.385	23863
830.524	23893
830.663	23748
830.802	23615
830.941	23558
831.08	23490
831.219	23722
831.357	23646
831.496	23775
831.635	23482
831.774	23509
831.913	23398
832.051	23425
832.19	23402
832.329	23429
832.467	23204
832.606	23208
832.744	23216
832.883	23250
833.022	23273
833.16	23246
833.299	23277
833.437	23280
833.576	23239
833.714	23261
833.852	23273
833.991	23258
834.129	23288
834.267	23307
834.406	23318
834.544	23391
834.682	23261
834.821	23246
834.959	23326
835.097	23181
835.235	23364
835.373	23242
835.511	23204
835.65	23227
835.788	23220
835.926	22949
836.064	22835
836.202	22980
836.34	23132
836.478	23227
836.615	23086
836.753	23181
836.891	23235
837.029	23174
837.167	23083
837.305	23041
837.443	22942
837.58	22980
837.718	22999
837.856	22930
837.993	22965
838.131	23071
838.269	22801
838.406	22908
838.544	22710
838.681	22588
838.819	22615
838.956	22428
839.094	22485
839.231	22436
839.369	22634
839.506	22885
839.643	22668
839.781	22504
839.918	22417
840.055	22371
840.193	22303
840.33	22306
840.467	22451
840.604	22462
840.742	22599
840.879	22333
841.016	22360
841.153	22337
841.29	22516
841.427	22295
841.564	22455
841.701	22242
841.838	22284
841.975	22341
842.112	22249
842.249	22204
842.385	22192
842.522	22451
842.659	22211
842.796	22044
842.933	22196
843.069	22109
843.206	22090
843.343	22128
843.479	22242
843.616	22169
843.752	21880
843.889	21953
844.025	22040
844.162	21861
844.298	21998
844.435	21915
844.571	21819
844.708	21865
844.844	22105
844.98	22120
845.117	22105
845.253	21808
845.389	21785
845.525	21823
845.661	21766
845.798	21549
845.934	21637
846.07	21572
846.206	21660
846.342	21720
846.478	21652
846.614	21507
846.75	21355
846.886	21359
847.022	21431
847.158	21439
847.294	21416
847.429	21272
847.565	21298
847.701	21526
847.837	21058
847.972	21154
848.108	21294
848.244	21203
848.379	21135
848.515	20811
848.65	20967
848.786	21001
848.921	21096
849.057	21017
849.192	20994
849.328	21055
849.463	21043
849.598	20971
849.734	20743
849.869	20853
850.004	20754
850.14	20754
850.275	20716
850.41	20788
850.545	20617
850.68	20674
850.815	20720
850.95	20712
851.085	20998
851.22	20811
851.355	20762
851.49	20708
851.625	20689
851.76	20629
851.895	20781
852.03	20552
852.165	20845
852.299	20872
852.434	20758
852.569	20678
852.703	20724
852.838	20792
852.973	21024
853.107	20861
853.242	20670
853.376	20651
853.511	20446
853.645	20552
853.78	20815
853.914	20590
854.048	20522
854.183	20419
854.317	20518
854.451	20830
854.585	20621
854.72	20583
854.854	20686
854.988	20590
855.122	20606
855.256	20446
855.39	20575
855.524	20731
855.658	20720
855.792	20590
855.926	20590
856.06	20609
856.194	20701
856.327	20625
856.461	20400
856.595	20492
856.729	20427
856.862	20598
856.996	20644
857.13	20670
857.263	20541
857.397	20564
857.53	20507
857.664	20625
857.797	20739
857.931	20720
858.064	20564
858.197	20762
858.331	20560
858.464	20625
858.597	20415
858.731	20549
858.864	20533
858.997	20575
859.13	20613
859.263	20537
859.396	20651
859.529	20549
859.662	20549
859.795	20492
859.928	20594
860.061	20762
860.194	20792
860.327	20598
860.46	20598
860.592	20552
860.725	20693
860.858	20549
860.99	20552
861.123	20484
861.256	20438
861.388	20636
861.521	21321
861.653	20415
861.786	20419
861.918	20427
862.05	20446
862.183	20556
862.315	20400
862.447	20587
862.58	20446
862.712	20237
862.844	20305
862.976	20476
863.108	20374
863.24	20746
863.372	20191
863.504	20271
863.636	20149
863.768	20389
863.9	20244
864.032	20081
864.164	20324
864.296	20358
864.428	20358
864.559	20355
864.691	20286
864.823	20320
864.954	20286
865.086	20256
865.217	20259
865.349	20161
865.48	20183
865.612	20161
865.743	20252
865.875	20119
866.006	20103
866.137	20263
866.269	20172
866.4	20168
866.531	20153
866.662	20046
866.793	20111
866.924	20142
867.055	20161
867.186	20183
867.317	20096
867.448	20012
867.579	20035
867.71	20145
867.841	20016
867.972	20073
868.103	20153
868.233	20275
868.364	20187
868.495	20149
868.625	20317
868.756	20446
868.886	20298
869.017	20298
869.147	20454
869.278	20511
869.408	20442
869.539	20419
869.669	20434
869.799	20488
869.929	20552
870.06	20476
870.19	20632
870.32	20720
870.45	20659
870.58	20842
870.71	20804
870.84	20811
870.97	20830
871.1	20731
871.23	20975
871.36	20921
871.489	20899
871.619	20975
871.749	20944
871.879	21020
872.008	21108
872.138	20944
872.267	21085
872.397	20887
872.526	20762
872.656	20693
872.785	20788
872.915	21085
873.044	21188
873.173	20933
873.303	20975
873.432	21127
873.561	21123
873.69	21070
873.819	20975
873.948	21119
874.077	21085
874.206	20918
874.335	20998
874.464	21020
874.593	21405
874.722	21146
874.851	21264
874.979	21310
875.108	21291
875.237	21066
875.365	21214
875.494	21237
875.623	21287
875.751	21207
875.88	21435
876.008	21256
876.136	21488
876.265	21644
876.393	21766
876.521	21732
876.65	21770
876.778	21583
876.906	21656
877.034	21583
877.162	21599
877.29	21580
877.418	21576
877.546	21507
877.674	21637
877.802	21515
877.93	21538
878.058	21629
878.185	21382
878.313	21568
878.441	21568
878.568	21359
878.696	21462
878.824	21462
878.951	21682
879.079	21770
879.206	21857
879.333	21808
879.461	21614
879.588	21648
879.715	21816
879.842	21861
879.97	21679
880.097	21431
880.224	21401
880.351	21351
880.478	21443
880.605	21511
880.732	21359
880.859	21663
880.986	21401
881.112	21412
881.239	21306
881.366	21184
881.493	21005
881.619	21020
881.746	21051
881.872	20944
881.999	20937
882.125	20948
882.252	21066
882.378	20902
882.505	21077
882.631	20952
882.757	20651
882.883	20788
883.01	20735
883.136	20815
883.262	20701
883.388	20651
883.514	20750
883.64	20632
883.766	20537
883.892	20438
884.018	20518
884.143	20735
884.269	20705
884.395	20488
884.52	20454
884.646	20358
884.772	20317
884.897	20259
885.023	20313
885.148	20408
885.274	20537
885.399	20332
885.524	20324
885.65	20324
885.775	20450
885.9	20313
886.025	20465
886.15	20492
886.275	20271
886.4	20225
886.525	20286
886.65	20145
886.775	20248
886.9	20385
887.025	20484
887.149	20343
887.274	20180
887.399	20077
887.523	20142
887.648	20100
887.773	20122
887.897	20191
888.021	20161
888.146	20122
888.27	20263
888.395	20195
888.519	20199
888.643	20191
888.767	20161
888.891	20050
889.015	19906
889.139	19993
889.263	19917
889.387	20043
889.511	20134
889.635	20046
889.759	19852
889.883	19932
890.006	19921
890.13	20058
890.254	19963
890.377	19951
890.501	19750
890.624	19647
890.748	19704
890.871	19544
890.995	19548
891.118	19407
891.241	19514
891.364	19419
891.488	19639
891.611	19518
891.734	19563
891.857	19597
891.98	19537
892.103	19586
892.226	19434
892.349	19335
892.471	19381
892.594	19377
892.717	19468
892.839	19430
892.962	19476
893.085	19487
893.207	19438
893.33	19331
893.452	19384
893.575	19407
893.697	19377
893.819	19567
893.941	19662
894.064	19559
894.186	19445
894.308	19438
894.43	19506
894.552	19639
894.674	19480
894.796	19255
894.918	19445
895.04	19453
895.161	19521
895.283	19472
895.405	19289
895.526	19403
895.648	19483
895.769	19480
895.891	19552
896.012	19544
896.134	19491
896.255	19590
896.376	19373
896.498	19521
896.619	19594
896.74	19411
896.861	19502
896.982	19784
897.103	19982
897.224	19674
897.345	19727
897.466	19666
897.587	19639
897.708	19753
897.828	19689
897.949	19586
898.07	19514
898.19	19594
898.311	19670
898.431	19594
898.552	19734
898.672	19841
898.792	19715
898.913	19807
899.033	19597
899.153	19495
899.273	19339
899.393	19381
899.513	19453
899.633	19487
899.753	19403
899.873	19449
899.993	19445
900.113	19335
900.232	19422
900.352	19331
900.472	19324
900.591	19225
900.711	19221
900.83	19160
900.95	19358
901.069	19400
901.189	19133
901.308	18886
901.427	18844
901.546	18875
901.665	18829
901.784	18741
901.904	18741
902.023	18616
902.141	18448
902.26	18494
902.379	18380
902.498	18342
902.617	18311
902.735	18285
902.854	18346
902.973	18254
903.091	17980
903.21	18030
903.328	18114
903.446	17874
903.565	17798
903.683	17805
903.801	17745
903.919	17859
904.038	17874
904.156	17566
904.274	17627
904.392	17585
904.51	17562
904.627	17505
904.745	17615
904.863	17687
904.981	17436
905.098	17193
905.216	17273
905.334	17349
905.451	17204
905.569	17147
905.686	17242
905.803	17189
905.921	17006
906.038	17170
906.155	17098
906.272	17006
906.389	17067
906.506	16824
906.623	16904
906.74	16687
906.857	16744
906.974	16733
907.091	16892
907.208	16866
907.324	16831
907.441	16683
907.557	16519
907.674	16573
907.79	16493
907.907	16596
908.023	16500
908.139	16569
908.256	16561
908.372	16523
908.488	16318
908.604	16310
908.72	16211
908.836	16162
908.952	16310
909.068	16268
909.184	16363
909.3	16337
909.415	16333
909.531	16200
909.647	15964
909.762	15994
909.878	15987
909.993	15907
910.108	15907
910.224	15892
910.339	15918
910.454	15892
910.57	15831
910.685	15637
910.8	15964
910.915	15876
911.03	15846
911.145	15629
911.259	15553
911.374	15618
911.489	15515
911.604	15545
911.718	15260
911.833	15291
911.947	15329
912.062	15222
912.176	15428
912.291	15447
912.405	15359
912.519	15629
912.633	15557
912.748	15424
912.862	15275
912.976	15233
913.09	15131
913.204	15112
913.318	15214
913.431	15207
913.545	15245
913.659	15188
913.772	15097
913.886	15032
914	15017
914.113	15020
914.226	15009
914.34	15085
914.453	14891
914.566	14933
914.68	14842
914.793	14804
914.906	14610
915.019	14583
915.132	14484
915.245	14564
915.358	14560
915.47	14568
915.583	14613
915.696	14583
915.809	14705
915.921	14663
916.034	14575
916.146	14457
916.259	14476
916.371	14537
916.483	14545
916.595	14465
916.708	14465
916.82	14404
916.932	14351
917.044	14404
917.156	14385
917.268	14282
917.38	14248
917.491	14199
917.603	14263
917.715	14415
917.826	14355
917.938	14161
918.049	14081
918.161	14252
918.272	14366
918.384	14343
918.495	14111
918.606	14046
918.717	13993
918.828	14062
918.939	14123
919.05	13864
919.161	13997
919.272	13761
919.383	13833
919.494	14050
919.604	14214
919.715	13989
919.826	13902
919.936	14031
920.047	14054
920.157	13997
920.267	14126
920.378	14062
920.488	13986
920.598	14100
920.708	14320
920.818	14145
920.928	14187
921.038	14305
921.148	14199
921.258	14046
921.368	13909
921.477	13803
921.587	13677
921.697	13578
921.806	13784
921.916	13685
922.025	13422
922.134	13457
922.244	13430
922.353	13426
922.462	13346
922.571	13156
922.68	13145
922.789	13053
922.898	13042
923.007	12894
923.116	13110
923.224	13015
923.333	12962
923.442	12939
923.55	12825
923.659	12954
923.767	12916
923.876	12798
923.984	12867
924.092	12856
924.201	12817
924.309	12817
924.417	12867
924.525	12757
924.633	12802
924.741	13525
924.849	12513
924.956	12722
925.064	12563
925.172	12422
925.279	12544
925.387	12616
925.494	12426
925.602	12597
925.709	12559
925.816	12353
925.924	12372
926.031	12490
926.138	12426
926.245	12460
926.352	12315
926.459	12528
926.566	12483
926.673	12353
926.779	12194
926.886	12296
926.993	12129
927.099	12117
927.206	11996
927.312	12053
927.419	12163
927.525	12079
927.631	12057
927.737	11935
927.843	11866
927.95	11828
928.056	11885
928.162	11889
928.267	11897
928.373	12574
928.479	11977
928.585	11760
928.69	11836
928.796	11885
928.901	11885
929.007	11680
929.112	11821
929.218	11805
929.323	11707
929.428	11615
929.533	11707
929.638	11524
929.743	11562
929.848	11627
929.953	11570
930.058	11459
930.163	11288
930.267	11322
930.372	11497
930.477	11239
930.581	11566
930.685	11345
930.79	11193
930.894	11174
930.998	11193
931.103	11311
931.207	10908
931.311	10930
931.415	10858
931.519	10626
931.623	10554
