Data from test_V78500241_2430.txt Node
Date: Fri Mar 25 15:26:46 CST 2022
User: usil
Spectrometer: V785-0024
Trigger mode: 0
Integration Time (sec): 4.000000E-1
Scans to average: 1
Nonlinearity correction enabled: false
Boxcar width: 0
Storing dark spectrum: false
XAxis mode: Wavelengths
Number of Pixels in Spectrum: 1024
>>>>>Begin Spectral Data<<<<<
801.071	27203
801.214	27009
801.356	26788
801.499	26804
801.641	26609
801.783	26682
801.926	26659
802.068	26552
802.211	26625
802.353	26469
802.496	26358
802.638	26358
802.78	26240
802.923	26157
803.065	26138
803.208	26191
803.35	26294
803.492	26404
803.635	26442
803.777	26381
803.919	26320
804.061	26765
804.204	26446
804.346	26507
804.488	26415
804.63	26385
804.773	26237
804.915	26381
805.057	26552
805.199	26381
805.341	26590
805.483	26640
805.626	26518
805.768	26476
805.91	26568
806.052	26686
806.194	26476
806.336	26731
806.478	26461
806.62	26480
806.762	26636
806.904	26815
807.046	27085
807.188	26868
807.33	26861
807.472	27051
807.614	26906
807.756	26868
807.898	26762
808.04	26716
808.182	26682
808.324	26781
808.465	26800
808.607	26925
808.749	27051
808.891	27264
809.033	27252
809.174	27207
809.316	27070
809.458	27070
809.6	27093
809.741	27173
809.883	27233
810.025	27374
810.166	27211
810.308	27336
810.45	27317
810.591	27180
810.733	27013
810.875	27062
811.016	26937
811.158	26963
811.299	27165
811.441	27123
811.582	27245
811.724	27017
811.865	26929
812.007	26963
812.148	27096
812.29	27005
812.431	27184
812.573	27386
812.714	27435
812.855	27583
812.997	27545
813.138	27797
813.279	27808
813.421	27690
813.562	27496
813.703	27340
813.845	27408
813.986	27020
814.127	26864
814.268	26697
814.41	26792
814.551	26727
814.692	26868
814.833	26598
814.974	26807
815.115	26712
815.256	26609
815.397	26583
815.539	26507
815.68	26518
815.821	26503
815.962	26617
816.103	26564
816.244	26313
816.385	26408
816.526	26301
816.666	26043
816.807	26012
816.948	26081
817.089	26145
817.23	26142
817.371	26100
817.512	25966
817.653	26035
817.793	26001
817.934	26073
818.075	26020
818.216	26115
818.356	25928
818.497	25814
818.638	25795
818.778	25635
818.919	25693
819.06	25826
819.2	26100
819.341	25959
819.481	25921
819.622	26103
819.762	26313
819.903	26210
820.043	26103
820.184	26202
820.324	26168
820.465	26164
820.605	26069
820.746	25970
820.886	26024
821.026	26012
821.167	25875
821.307	26180
821.447	26092
821.588	25936
821.728	25693
821.868	25601
822.008	25594
822.149	25369
822.289	25460
822.429	25084
822.569	25107
822.709	25179
822.849	25015
822.99	24897
823.13	24833
823.27	24901
823.41	24787
823.55	24753
823.69	24772
823.83	24806
823.97	24757
824.11	24654
824.25	24597
824.389	24646
824.529	24574
824.669	24601
824.809	24703
824.949	24555
825.089	24578
825.228	24540
825.368	24369
825.508	24338
825.648	24490
825.787	24517
825.927	24471
826.067	24441
826.206	24429
826.346	24509
826.485	24540
826.625	24486
826.765	24578
826.904	24426
827.044	24251
827.183	24174
827.323	24117
827.462	24357
827.601	24178
827.741	24045
827.88	24121
828.02	24114
828.159	24174
828.298	24205
828.437	24247
828.577	24163
828.716	24289
828.855	24045
828.994	23847
829.134	23840
829.273	23878
829.412	23904
829.551	23805
829.69	23893
829.829	23863
829.968	23988
830.107	23977
830.246	23855
830.385	23843
830.524	23767
830.663	23718
830.802	23585
830.941	23467
831.08	23455
831.219	23611
831.357	23566
831.496	23634
831.635	23516
831.774	23425
831.913	23364
832.051	23353
832.19	23349
832.329	23303
832.467	23155
832.606	23162
832.744	23239
832.883	23178
833.022	23197
833.16	23037
833.299	23277
833.437	23216
833.576	23193
833.714	23311
833.852	23239
833.991	23326
834.129	23356
834.267	23239
834.406	23296
834.544	23299
834.682	23292
834.821	23208
834.959	23436
835.097	23227
835.235	23311
835.373	23265
835.511	23151
835.65	23094
835.788	23220
835.926	22908
836.064	22938
836.202	23003
836.34	23094
836.478	23124
836.615	23117
836.753	23083
836.891	23155
837.029	23185
837.167	23220
837.305	22942
837.443	22984
837.58	22965
837.718	23090
837.856	23037
837.993	22999
838.131	22873
838.269	22801
838.406	22843
838.544	22786
838.681	22721
838.819	22687
838.956	22451
839.094	22535
839.231	22500
839.369	22664
839.506	22812
839.643	22603
839.781	22440
839.918	22459
840.055	22402
840.193	22363
840.33	22382
840.467	22253
840.604	22337
840.742	22618
840.879	22169
841.016	22257
841.153	22265
841.29	22360
841.427	22291
841.564	22295
841.701	22246
841.838	22230
841.975	22261
842.112	22314
842.249	22128
842.385	22078
842.522	22268
842.659	22128
842.796	22219
842.933	22116
843.069	22090
843.206	22063
843.343	22154
843.479	22070
843.616	21998
843.752	21960
843.889	21842
844.025	22032
844.162	21846
844.298	21880
844.435	21956
844.571	21838
844.708	21793
844.844	21983
844.98	22017
845.117	21926
845.253	21915
845.389	21774
845.525	21759
845.661	21728
845.798	21576
845.934	21778
846.07	21561
846.206	21724
846.342	21663
846.478	21618
846.614	21557
846.75	21329
846.886	21310
847.022	21340
847.158	21340
847.294	21488
847.429	21420
847.565	21275
847.701	21561
847.837	21089
847.972	21100
848.108	21279
848.244	21233
848.379	20952
848.515	20918
848.65	20929
848.786	20921
848.921	20952
849.057	21100
849.192	21062
849.328	20994
849.463	20975
849.598	20811
849.734	20899
849.869	20815
850.004	20758
850.14	20773
850.275	20655
850.41	20750
850.545	20735
850.68	20769
850.815	20663
850.95	20754
851.085	20872
851.22	20914
851.355	20804
851.49	20788
851.625	20640
851.76	20667
851.895	20621
852.03	20545
852.165	20651
852.299	20815
852.434	20868
852.569	20800
852.703	20682
852.838	20777
852.973	20887
853.107	20838
853.242	20579
853.376	20499
853.511	20400
853.645	20511
853.78	20575
853.914	20598
854.048	20571
854.183	20552
854.317	20606
854.451	20712
854.585	20560
854.72	20450
854.854	20552
854.988	20450
855.122	20434
855.256	20461
855.39	20514
855.524	20549
855.658	20659
855.792	20636
855.926	20613
856.06	20625
856.194	20568
856.327	20412
856.461	20454
856.595	20457
856.729	20556
856.862	20598
856.996	20537
857.13	20545
857.263	20617
857.397	20648
857.53	20412
857.664	20587
857.797	20522
857.931	20689
858.064	20469
858.197	20575
858.331	20552
858.464	20522
858.597	20347
858.731	20503
858.864	20533
858.997	20526
859.13	20708
859.263	20587
859.396	20648
859.529	20511
859.662	20484
859.795	20530
859.928	20541
860.061	20693
860.194	20739
860.327	20613
860.46	20712
860.592	20701
860.725	20655
860.858	20651
860.99	20594
861.123	20499
861.256	20511
861.388	20644
861.521	21199
861.653	20461
861.786	20320
861.918	20366
862.05	20511
862.183	20484
862.315	20495
862.447	20511
862.58	20442
862.712	20324
862.844	20332
862.976	20431
863.108	20389
863.24	20629
863.372	20180
863.504	20275
863.636	20248
863.768	20313
863.9	20237
864.032	20275
864.164	20259
864.296	20328
864.428	20461
864.559	20313
864.691	20385
864.823	20298
864.954	20199
865.086	20199
865.217	20244
865.349	20233
865.48	20210
865.612	20240
865.743	20256
865.875	20240
866.006	20191
866.137	20149
866.269	20218
866.4	20240
866.531	20149
866.662	20069
866.793	20073
866.924	20016
867.055	20142
867.186	20134
867.317	19978
867.448	20024
867.579	20077
867.71	20020
867.841	20058
867.972	20145
868.103	20081
868.233	20126
868.364	20195
868.495	20191
868.625	20282
868.756	20469
868.886	20271
869.017	20370
869.147	20415
869.278	20476
869.408	20370
869.539	20343
869.669	20358
869.799	20457
869.929	20484
870.06	20594
870.19	20617
870.32	20705
870.45	20754
870.58	20746
870.71	20883
870.84	20902
870.97	20811
871.1	20689
871.23	21047
871.36	21032
871.489	20864
871.619	20899
871.749	20925
871.879	20986
872.008	21043
872.138	20883
872.267	20998
872.397	20788
872.526	20807
872.656	20918
872.785	20918
872.915	20960
873.044	20967
873.173	21077
873.303	21047
873.432	21074
873.561	21154
873.69	20960
873.819	20891
873.948	21169
874.077	20967
874.206	21108
874.335	21058
874.464	21173
874.593	21287
874.722	21218
874.851	21294
874.979	21218
875.108	21237
875.237	21287
875.365	21070
875.494	21138
875.623	21378
875.751	21157
875.88	21291
876.008	21332
876.136	21462
876.265	21652
876.393	21808
876.521	21641
876.65	21751
876.778	21618
876.906	21538
877.034	21469
877.162	21625
877.29	21492
877.418	21648
877.546	21587
877.674	21557
877.802	21610
877.93	21637
878.058	21511
878.185	21439
878.313	21542
878.441	21599
878.568	21469
878.696	21378
878.824	21583
878.951	21679
879.079	21854
879.206	21819
879.333	21736
879.461	21610
879.588	21774
879.715	21861
879.842	21781
879.97	21766
880.097	21511
880.224	21443
880.351	21492
880.478	21466
880.605	21389
880.732	21294
880.859	21648
880.986	21454
881.112	21450
881.239	21355
881.366	21138
881.493	21055
881.619	20887
881.746	20948
881.872	21055
881.999	20864
882.125	20861
882.252	21005
882.378	20963
882.505	21074
882.631	20918
882.757	20735
882.883	20914
883.01	20686
883.136	20609
883.262	20598
883.388	20560
883.514	20663
883.64	20716
883.766	20724
883.892	20434
884.018	20556
884.143	20564
884.269	20804
884.395	20556
884.52	20385
884.646	20427
884.772	20225
884.897	20229
885.023	20480
885.148	20309
885.274	20518
885.399	20454
885.524	20377
885.65	20389
885.775	20400
885.9	20275
886.025	20450
886.15	20545
886.275	20404
886.4	20332
886.525	20301
886.65	20202
886.775	20358
886.9	20393
887.025	20579
887.149	20244
887.274	20134
887.399	20138
887.523	20138
887.648	20081
887.773	20092
887.897	20195
888.021	20134
888.146	20130
888.27	20050
888.395	20240
888.519	20062
888.643	20134
888.767	20134
888.891	20084
889.015	19947
889.139	19970
889.263	20035
889.387	20012
889.511	20043
889.635	19963
889.759	19879
889.883	19951
890.006	19849
890.13	20012
890.254	19887
890.377	19906
890.501	19761
890.624	19765
890.748	19769
890.871	19666
890.995	19460
891.118	19529
891.241	19499
891.364	19616
891.488	19529
891.611	19537
891.734	19384
891.857	19651
891.98	19616
892.103	19616
892.226	19480
892.349	19407
892.471	19316
892.594	19365
892.717	19438
892.839	19434
892.962	19430
893.085	19388
893.207	19506
893.33	19327
893.452	19369
893.575	19506
893.697	19449
893.819	19491
893.941	19632
894.064	19575
894.186	19396
894.308	19491
894.43	19567
894.552	19586
894.674	19529
894.796	19266
894.918	19377
895.04	19491
895.161	19510
895.283	19533
895.405	19419
895.526	19411
895.648	19411
895.769	19335
895.891	19419
896.012	19510
896.134	19449
896.255	19438
896.376	19415
896.498	19392
896.619	19464
896.74	19518
896.861	19499
896.982	19715
897.103	19879
897.224	19738
897.345	19689
897.466	19525
897.587	19700
897.708	19830
897.828	19635
897.949	19616
898.07	19537
898.19	19605
898.311	19731
898.431	19613
898.552	19651
898.672	19799
898.792	19658
898.913	19658
899.033	19559
899.153	19491
899.273	19335
899.393	19544
899.513	19388
899.633	19392
899.753	19521
899.873	19293
899.993	19537
900.113	19464
900.232	19381
900.352	19441
900.472	19236
900.591	19141
900.711	19247
900.83	19129
900.95	19354
901.069	19392
901.189	19129
901.308	18913
901.427	18859
901.546	18825
901.665	18817
901.784	18924
901.904	18700
902.023	18540
902.141	18350
902.26	18388
902.379	18384
902.498	18388
902.617	18372
902.735	18350
902.854	18194
902.973	18251
903.091	18159
903.21	18041
903.328	17939
903.446	17840
903.565	17840
903.683	17878
903.801	17680
903.919	17817
904.038	17687
904.156	17657
904.274	17604
904.392	17604
904.51	17554
904.627	17566
904.745	17627
904.863	17592
904.981	17227
905.098	17246
905.216	17280
905.334	17315
905.451	17273
905.569	17162
905.686	17288
905.803	17223
905.921	17064
906.038	17189
906.155	17174
906.272	17056
906.389	16980
906.506	16873
906.623	16858
906.74	16801
906.857	16740
906.974	16653
907.091	16850
907.208	16953
907.324	16862
907.441	16736
907.557	16668
907.674	16546
907.79	16527
907.907	16481
908.023	16508
908.139	16497
908.256	16470
908.372	16360
908.488	16455
908.604	16367
908.72	16223
908.836	16322
908.952	16261
909.068	16211
909.184	16440
909.3	16200
909.415	16337
909.531	16268
909.647	15968
909.762	15930
909.878	15937
909.993	16013
910.108	15922
910.224	15880
910.339	15937
910.454	15975
910.57	15907
910.685	15781
910.8	15937
910.915	15934
911.03	15842
911.145	15549
911.259	15622
911.374	15580
911.489	15526
911.604	15507
911.718	15302
911.833	15393
911.947	15195
912.062	15112
912.176	15283
912.291	15279
912.405	15302
912.519	15504
912.633	15587
912.748	15325
912.862	15245
912.976	15150
913.09	15097
913.204	15104
913.318	15203
913.431	15363
913.545	15298
913.659	15291
913.772	15157
913.886	15013
914	14914
914.113	15062
914.226	15020
914.34	15055
914.453	14861
914.566	15005
914.68	14883
914.793	14735
914.906	14568
915.019	14644
915.132	14484
915.245	14606
915.358	14590
915.47	14590
915.583	14617
915.696	14610
915.809	14727
915.921	14800
916.034	14457
916.146	14492
916.259	14469
916.371	14556
916.483	14579
916.595	14381
916.708	14556
916.82	14511
916.932	14415
917.044	14332
917.156	14343
917.268	14248
917.38	14309
917.491	14221
917.603	14328
917.715	14351
917.826	14362
917.938	14229
918.049	14100
918.161	14157
918.272	14362
918.384	14351
918.495	14161
918.606	13989
918.717	14020
918.828	14027
918.939	14088
919.05	13963
919.161	14027
919.272	13849
919.383	13871
919.494	13997
919.604	14206
919.715	13963
919.826	13989
919.936	13974
920.047	14050
920.157	13959
920.267	14256
920.378	14020
920.488	13978
920.598	14206
920.708	14305
920.818	14138
920.928	14130
921.038	14282
921.148	14172
921.258	13970
921.368	13913
921.477	13647
921.587	13693
921.697	13533
921.806	13719
921.916	13609
922.025	13384
922.134	13430
922.244	13274
922.353	13308
922.462	13293
922.571	13175
922.68	13042
922.789	13099
922.898	13099
923.007	12973
923.116	13122
923.224	13065
923.333	13034
923.442	12856
923.55	12928
923.659	12924
923.767	12996
923.876	12859
923.984	12916
924.092	12859
924.201	12840
924.309	12875
924.417	12844
924.525	12662
924.633	12734
924.741	13537
924.849	12456
924.956	12673
925.064	12608
925.172	12403
925.279	12483
925.387	12426
925.494	12608
925.602	12597
925.709	12506
925.816	12448
925.924	12456
926.031	12593
926.138	12540
926.245	12410
926.352	12391
926.459	12536
926.566	12467
926.673	12350
926.779	12228
926.886	12155
926.993	12136
927.099	12102
927.206	11980
927.312	12007
927.419	12129
927.525	11977
927.631	12068
927.737	11923
927.843	11946
927.95	11817
928.056	11950
928.162	11859
928.267	11958
928.373	12517
928.479	11958
928.585	11737
928.69	11760
928.796	11927
928.901	11802
929.007	11649
929.112	11726
929.218	11775
929.323	11619
929.428	11649
929.533	11832
929.638	11642
929.743	11638
929.848	11672
929.953	11604
930.058	11497
930.163	11360
930.267	11398
930.372	11524
930.477	11311
930.581	11581
930.685	11463
930.79	11258
930.894	11235
930.998	11223
931.103	11353
931.207	11029
931.311	10858
931.415	10820
931.519	10607
931.623	10630
