Data from test_V78500241_1751.txt Node
Date: Fri Mar 25 15:22:02 CST 2022
User: usil
Spectrometer: V785-0024
Trigger mode: 0
Integration Time (sec): 4.000000E-1
Scans to average: 1
Nonlinearity correction enabled: false
Boxcar width: 0
Storing dark spectrum: false
XAxis mode: Wavelengths
Number of Pixels in Spectrum: 1024
>>>>>Begin Spectral Data<<<<<
801.071	27930
801.214	27618
801.356	27618
801.499	27591
801.641	27443
801.783	27363
801.926	27519
802.068	27412
802.211	27317
802.353	27233
802.496	27176
802.638	26876
802.78	26986
802.923	26925
803.065	26899
803.208	26925
803.35	27036
803.492	27195
803.635	27317
803.777	27020
803.919	27192
804.061	27572
804.204	27310
804.346	27169
804.488	27138
804.63	27142
804.773	27142
804.915	27203
805.057	27294
805.199	27142
805.341	27310
805.483	27386
805.626	27370
805.768	27275
805.91	27344
806.052	27564
806.194	27336
806.336	27572
806.478	27230
806.62	27424
806.762	27485
806.904	27690
807.046	27804
807.188	27778
807.33	27682
807.472	27835
807.614	27606
807.756	27804
807.898	27694
808.04	27530
808.182	27625
808.324	27625
808.465	27595
808.607	27842
808.749	27994
808.891	28109
809.033	28120
809.174	28055
809.316	28006
809.458	27964
809.6	27975
809.741	28063
809.883	28143
810.025	28196
810.166	28348
810.308	28139
810.45	28276
810.591	28120
810.733	28059
810.875	27998
811.016	28002
811.158	27876
811.299	28116
811.441	28067
811.582	28090
811.724	28059
811.865	27907
812.007	27899
812.148	27861
812.29	28082
812.431	28139
812.573	28265
812.714	28299
812.855	28481
812.997	28611
813.138	28752
813.279	28656
813.421	28550
813.562	28550
813.703	28169
813.845	28257
813.986	27937
814.127	27747
814.268	27637
814.41	27599
814.551	27671
814.692	27751
814.833	27686
814.974	27583
815.115	27736
815.256	27473
815.397	27591
815.539	27511
815.68	27386
815.821	27477
815.962	27583
816.103	27374
816.244	27268
816.385	27195
816.526	27199
816.666	27062
816.807	26842
816.948	26899
817.089	27123
817.23	26929
817.371	26880
817.512	26952
817.653	26910
817.793	26979
817.934	26918
818.075	26861
818.216	26883
818.356	26895
818.497	26792
818.638	26537
818.778	26849
818.919	26663
819.06	26895
819.2	26773
819.341	26933
819.481	26796
819.622	27237
819.762	27348
819.903	27165
820.043	27199
820.184	27066
820.324	26979
820.465	27226
820.605	27089
820.746	27138
820.886	26925
821.026	27020
821.167	26990
821.307	27051
821.447	27116
821.588	26762
821.728	26731
821.868	26583
822.008	26526
822.149	26381
822.289	26461
822.429	26225
822.569	26054
822.709	26142
822.849	26024
822.99	25944
823.13	26027
823.27	25921
823.41	25868
823.55	25738
823.69	25788
823.83	25765
823.97	25689
824.11	25571
824.25	25575
824.389	25620
824.529	25734
824.669	25441
824.809	25715
824.949	25601
825.089	25666
825.228	25597
825.368	25441
825.508	25365
825.648	25495
825.787	25556
825.927	25613
826.067	25422
826.206	25377
826.346	25419
826.485	25674
826.625	25502
826.765	25575
826.904	25571
827.044	25358
827.183	25304
827.323	25107
827.462	25327
827.601	25350
827.741	25228
827.88	25198
828.02	25183
828.159	25350
828.298	25187
828.437	25324
828.577	24996
828.716	25221
828.855	25110
828.994	24958
829.134	25015
829.273	24947
829.412	24837
829.551	24833
829.69	24947
829.829	24981
829.968	24989
830.107	24992
830.246	24787
830.385	24776
830.524	24749
830.663	24692
830.802	24612
830.941	24505
831.08	24509
831.219	24532
831.357	24574
831.496	24665
831.635	24471
831.774	24448
831.913	24566
832.051	24369
832.19	24273
832.329	24399
832.467	24346
832.606	24178
832.744	24167
832.883	24159
833.022	24125
833.16	24117
833.299	24296
833.437	24289
833.576	24201
833.714	24296
833.852	24315
833.991	24399
834.129	24441
834.267	24330
834.406	24281
834.544	24323
834.682	24235
834.821	24182
834.959	24391
835.097	24152
835.235	24334
835.373	24220
835.511	24148
835.65	24163
835.788	24091
835.926	23893
836.064	23999
836.202	23977
836.34	24045
836.478	24190
836.615	24171
836.753	24095
836.891	24186
837.029	24068
837.167	24121
837.305	23996
837.443	23961
837.58	23920
837.718	23977
837.856	23992
837.993	23874
838.131	23923
838.269	23790
838.406	23885
838.544	23699
838.681	23627
838.819	23539
838.956	23429
839.094	23360
839.231	23543
839.369	23478
839.506	23779
839.643	23722
839.781	23383
839.918	23345
840.055	23402
840.193	23425
840.33	23231
840.467	23345
840.604	23414
840.742	23615
840.879	23280
841.016	23261
841.153	23136
841.29	23406
841.427	23299
841.564	23265
841.701	23376
841.838	23322
841.975	23174
842.112	23250
842.249	23166
842.385	23033
842.522	23330
842.659	23174
842.796	23029
842.933	23086
843.069	23113
843.206	23090
843.343	23098
843.479	23113
843.616	23086
843.752	22911
843.889	22877
844.025	23117
844.162	22896
844.298	22957
844.435	22854
844.571	22835
844.708	22972
844.844	23052
844.98	23064
845.117	22957
845.253	22793
845.389	22592
845.525	22736
845.661	22729
845.798	22596
845.934	22687
846.07	22557
846.206	22588
846.342	22748
846.478	22656
846.614	22417
846.75	22375
846.886	22295
847.022	22432
847.158	22470
847.294	22478
847.429	22363
847.565	22299
847.701	22634
847.837	22025
847.972	21975
848.108	22086
848.244	22067
848.379	21956
848.515	21876
848.65	21835
848.786	21972
848.921	21975
849.057	21998
849.192	22093
849.328	21956
849.463	21774
849.598	21869
849.734	21831
849.869	21751
850.004	21732
850.14	21724
850.275	21713
850.41	21595
850.545	21667
850.68	21865
850.815	21755
850.95	21663
851.085	21949
851.22	21842
851.355	21854
851.49	21736
851.625	21637
851.76	21656
851.895	21637
852.03	21504
852.165	21625
852.299	21724
852.434	21739
852.569	21747
852.703	21580
852.838	21652
852.973	21808
853.107	21713
853.242	21557
853.376	21511
853.511	21370
853.645	21447
853.78	21595
853.914	21591
854.048	21557
854.183	21443
854.317	21469
854.451	21660
854.585	21416
854.72	21549
854.854	21606
854.988	21477
855.122	21568
855.256	21507
855.39	21545
855.524	21538
855.658	21603
855.792	21382
855.926	21462
856.06	21625
856.194	21614
856.327	21568
856.461	21420
856.595	21367
856.729	21545
856.862	21576
856.996	21538
857.13	21606
857.263	21633
857.397	21519
857.53	21469
857.664	21599
857.797	21625
857.931	21686
858.064	21477
858.197	21656
858.331	21534
858.464	21477
858.597	21412
858.731	21408
858.864	21462
858.997	21485
859.13	21568
859.263	21507
859.396	21599
859.529	21393
859.662	21466
859.795	21511
859.928	21450
860.061	21595
860.194	21629
860.327	21534
860.46	21618
860.592	21572
860.725	21686
860.858	21622
860.99	21542
861.123	21439
861.256	21466
861.388	21519
861.521	22230
861.653	21386
861.786	21291
861.918	21306
862.05	21252
862.183	21405
862.315	21389
862.447	21439
862.58	21416
862.712	21252
862.844	21218
862.976	21241
863.108	21256
863.24	21572
863.372	21287
863.504	21230
863.636	21214
863.768	21188
863.9	21195
864.032	21100
864.164	21108
864.296	21142
864.428	21332
864.559	21260
864.691	21070
864.823	21351
864.954	21142
865.086	21161
865.217	21135
865.349	21100
865.48	21055
865.612	21135
865.743	21116
865.875	21154
866.006	21055
866.137	21043
866.269	21051
866.4	21146
866.531	21119
866.662	21077
866.793	21116
866.924	21058
867.055	21005
867.186	21051
867.317	21039
867.448	20849
867.579	20998
867.71	20998
867.841	20933
867.972	21135
868.103	21032
868.233	21119
868.364	20971
868.495	21142
868.625	21241
868.756	21329
868.886	21150
869.017	21237
869.147	21405
869.278	21504
869.408	21275
869.539	21317
869.669	21416
869.799	21256
869.929	21393
870.06	21355
870.19	21686
870.32	21488
870.45	21686
870.58	21576
870.71	21842
870.84	21705
870.97	21701
871.1	21686
871.23	21888
871.36	21831
871.489	21789
871.619	21679
871.749	21789
871.879	21827
872.008	22048
872.138	21865
872.267	21808
872.397	21778
872.526	21709
872.656	21751
872.785	21705
872.915	21937
873.044	22078
873.173	21922
873.303	21949
873.432	21911
873.561	22013
873.69	21865
873.819	21842
873.948	21987
874.077	21968
874.206	21793
874.335	21930
874.464	22002
874.593	22032
874.722	22017
874.851	22162
874.979	22162
875.108	22215
875.237	22082
875.365	21922
875.494	22128
875.623	22139
875.751	22021
875.88	22188
876.008	22204
876.136	22348
876.265	22451
876.393	22653
876.521	22542
876.65	22618
876.778	22523
876.906	22440
877.034	22363
877.162	22500
877.29	22348
877.418	22462
877.546	22382
877.674	22363
877.802	22493
877.93	22436
878.058	22299
878.185	22363
878.313	22485
878.441	22466
878.568	22265
878.696	22386
878.824	22432
878.951	22554
879.079	22653
879.206	22660
879.333	22546
879.461	22447
879.588	22546
879.715	22599
879.842	22713
879.97	22531
880.097	22371
880.224	22253
880.351	22226
880.478	22299
880.605	22246
880.732	22211
880.859	22485
880.986	22348
881.112	22299
881.239	22067
881.366	22048
881.493	21934
881.619	21819
881.746	21937
881.872	21808
881.999	21964
882.125	21808
882.252	21869
882.378	21888
882.505	21907
882.631	21835
882.757	21618
882.883	21690
883.01	21568
883.136	21606
883.262	21473
883.388	21291
883.514	21610
883.64	21667
883.766	21530
883.892	21348
884.018	21313
884.143	21500
884.269	21568
884.395	21321
884.52	21146
884.646	21195
884.772	21108
884.897	21058
885.023	21252
885.148	21344
885.274	21245
885.399	21233
885.524	21100
885.65	21237
885.775	21241
885.9	21135
886.025	21374
886.15	21146
886.275	21230
886.4	21131
886.525	21188
886.65	21093
886.775	20967
886.9	21188
887.025	21473
887.149	21150
887.274	20918
887.399	20986
887.523	20921
887.648	20971
887.773	20952
887.897	20998
888.021	20918
888.146	20948
888.27	21005
888.395	21074
888.519	20895
888.643	20994
888.767	21047
888.891	20792
889.015	20929
889.139	20861
889.263	20705
889.387	20937
889.511	20952
889.635	20864
889.759	20731
889.883	20739
890.006	20735
890.13	20788
890.254	20552
890.377	20648
890.501	20541
890.624	20518
890.748	20514
890.871	20404
890.995	20313
891.118	20229
891.241	20317
891.364	20374
891.488	20450
891.611	20290
891.734	20355
891.857	20286
891.98	20317
892.103	20290
892.226	20400
892.349	20301
892.471	20122
892.594	20263
892.717	20199
892.839	20202
892.962	20305
893.085	20240
893.207	20225
893.33	20054
893.452	20119
893.575	20298
893.697	20244
893.819	20332
893.941	20389
894.064	20381
894.186	20119
894.308	20065
894.43	20381
894.552	20381
894.674	20221
894.796	20199
894.918	20138
895.04	20240
895.161	20206
895.283	20210
895.405	20153
895.526	20168
895.648	20103
895.769	20317
895.891	20256
896.012	20259
896.134	20187
896.255	20210
896.376	20244
896.498	20142
896.619	20225
896.74	20100
896.861	20225
896.982	20556
897.103	20670
897.224	20431
897.345	20495
897.466	20385
897.587	20336
897.708	20621
897.828	20442
897.949	20431
898.07	20244
898.19	20377
898.311	20556
898.431	20362
898.552	20423
898.672	20587
898.792	20404
898.913	20358
899.033	20267
899.153	20176
899.273	20149
899.393	20214
899.513	20115
899.633	20122
899.753	20267
899.873	20065
899.993	20138
900.113	20088
900.232	20103
900.352	20115
900.472	19963
900.591	20020
900.711	19955
900.83	19932
900.95	19906
901.069	19974
901.189	19909
901.308	19693
901.427	19468
901.546	19559
901.665	19613
901.784	19537
901.904	19388
902.023	19263
902.141	19084
902.26	19103
902.379	19103
902.498	19057
902.617	19046
902.735	19004
902.854	19061
902.973	18837
903.091	18692
903.21	18719
903.328	18753
903.446	18547
903.565	18467
903.683	18551
903.801	18365
903.919	18483
904.038	18445
904.156	18330
904.274	18311
904.392	18376
904.51	18190
904.627	18258
904.745	18391
904.863	18342
904.981	18026
905.098	17973
905.216	17942
905.334	17996
905.451	17912
905.569	17988
905.686	17965
905.803	17882
905.921	17722
906.038	17870
906.155	17863
906.272	17741
906.389	17665
906.506	17436
906.623	17535
906.74	17402
906.857	17387
906.974	17364
907.091	17543
907.208	17520
907.324	17547
907.441	17410
907.557	17223
907.674	17200
907.79	17189
907.907	17174
908.023	17143
908.139	17208
908.256	17185
908.372	17010
908.488	17033
908.604	16946
908.72	17022
908.836	16999
908.952	16934
909.068	16961
909.184	16934
909.3	16908
909.415	16919
909.531	16877
909.647	16721
909.762	16717
909.878	16759
909.993	16580
910.108	16592
910.224	16596
910.339	16554
910.454	16459
910.57	16497
910.685	16341
910.8	16653
910.915	16527
911.03	16565
911.145	16280
911.259	16306
911.374	16257
911.489	16128
911.604	16101
911.718	15880
911.833	16051
911.947	15785
912.062	15755
912.176	15895
912.291	15846
912.405	15934
912.519	16124
912.633	16074
912.748	16063
912.862	15930
912.976	15785
913.09	15660
913.204	15682
913.318	15732
913.431	15861
913.545	15831
913.659	15789
913.772	15709
913.886	15705
914	15641
914.113	15557
914.226	15747
914.34	15663
914.453	15420
914.566	15587
914.68	15553
914.793	15466
914.906	15207
915.019	15165
915.132	15135
915.245	15214
915.358	15180
915.47	15097
915.583	15241
915.696	15275
915.809	15306
915.921	15218
916.034	15051
916.146	14994
916.259	15066
916.371	15081
916.483	15116
916.595	14956
916.708	14998
916.82	15013
916.932	15013
917.044	14986
917.156	14895
917.268	14819
917.38	14804
917.491	14708
917.603	14861
917.715	14842
917.826	14967
917.938	14731
918.049	14663
918.161	14842
918.272	14876
918.384	14872
918.495	14785
918.606	14644
918.717	14492
918.828	14564
918.939	14610
919.05	14484
919.161	14484
919.272	14336
919.383	14457
919.494	14583
919.604	14773
919.715	14587
919.826	14511
919.936	14495
920.047	14530
920.157	14587
920.267	14640
920.378	14583
920.488	14431
920.598	14689
920.708	14800
920.818	14640
920.928	14754
921.038	14857
921.148	14857
921.258	14454
921.368	14457
921.477	14218
921.587	14286
921.697	14214
921.806	14313
921.916	14244
922.025	13993
922.134	13959
922.244	13913
922.353	14005
922.462	13780
922.571	13750
922.68	13529
922.789	13628
922.898	13628
923.007	13445
923.116	13529
923.224	13483
923.333	13514
923.442	13495
923.55	13441
923.659	13491
923.767	13487
923.876	13411
923.984	13449
924.092	13285
924.201	13331
924.309	13282
924.417	13213
924.525	13221
924.633	13236
924.741	14046
924.849	13034
924.956	13171
925.064	12924
925.172	12894
925.279	12977
925.387	12996
925.494	12897
925.602	13084
925.709	12973
925.816	12909
925.924	12981
926.031	13057
926.138	12840
926.245	12973
926.352	12844
926.459	12939
926.566	12996
926.673	12913
926.779	12821
926.886	12696
926.993	12551
927.099	12536
927.206	12471
927.312	12410
927.419	12555
927.525	12555
927.631	12585
927.737	12410
927.843	12388
927.95	12266
928.056	12353
928.162	12380
928.267	12433
928.373	13008
928.479	12448
928.585	12235
928.69	12319
928.796	12361
928.901	12247
929.007	12079
929.112	12266
929.218	12106
929.323	12144
929.428	12064
929.533	12258
929.638	12057
929.743	12057
929.848	12114
929.953	11999
930.058	11824
930.163	11813
930.267	11824
930.372	11882
930.477	11718
930.581	11897
930.685	11775
930.79	11646
930.894	11680
930.998	11649
931.103	11722
931.207	11478
931.311	11258
931.415	11261
931.519	11102
931.623	10980
