Data from test_V78500241_2930.txt Node
Date: Fri Mar 25 15:30:15 CST 2022
User: usil
Spectrometer: V785-0024
Trigger mode: 0
Integration Time (sec): 4.000000E-1
Scans to average: 1
Nonlinearity correction enabled: false
Boxcar width: 0
Storing dark spectrum: false
XAxis mode: Wavelengths
Number of Pixels in Spectrum: 1024
>>>>>Begin Spectral Data<<<<<
801.071	27397
801.214	27252
801.356	27104
801.499	26960
801.641	26861
801.783	26861
801.926	26914
802.068	26830
802.211	26617
802.353	26842
802.496	26552
802.638	26549
802.78	26533
802.923	26400
803.065	26294
803.208	26473
803.35	26465
803.492	26655
803.635	26667
803.777	26541
803.919	26663
804.061	26880
804.204	26594
804.346	26511
804.488	26556
804.63	26606
804.773	26530
804.915	26606
805.057	26629
805.199	26545
805.341	26629
805.483	26746
805.626	26883
805.768	26629
805.91	26632
806.052	26746
806.194	26663
806.336	26910
806.478	26765
806.62	26712
806.762	26720
806.904	26925
807.046	27188
807.188	27184
807.33	27207
807.472	27142
807.614	27112
807.756	27157
807.898	26918
808.04	26887
808.182	26956
808.324	27032
808.465	27043
808.607	27355
808.749	27256
808.891	27591
809.033	27393
809.174	27439
809.316	27332
809.458	27363
809.6	27363
809.741	27378
809.883	27469
810.025	27686
810.166	27580
810.308	27561
810.45	27690
810.591	27515
810.733	27389
810.875	27233
811.016	27249
811.158	27207
811.299	27519
811.441	27473
811.582	27458
811.724	27302
811.865	27374
812.007	27302
812.148	27161
812.29	27154
812.431	27553
812.573	27610
812.714	27625
812.855	27747
812.997	27892
813.138	28021
813.279	27937
813.421	27842
813.562	27660
813.703	27641
813.845	27580
813.986	27195
814.127	26971
814.268	26929
814.41	27081
814.551	27055
814.692	27066
814.833	26899
814.974	26811
815.115	26963
815.256	27017
815.397	26952
815.539	26849
815.68	26838
815.821	26651
815.962	26826
816.103	26613
816.244	26663
816.385	26446
816.526	26526
816.666	26343
816.807	26187
816.948	26168
817.089	26446
817.23	26370
817.371	26161
817.512	26180
817.653	26172
817.793	26225
817.934	26138
818.075	26290
818.216	26206
818.356	26134
818.497	26065
818.638	25982
818.778	26088
818.919	26043
819.06	25986
819.2	26054
819.341	26172
819.481	26225
819.622	26533
819.762	26560
819.903	26552
820.043	26404
820.184	26301
820.324	26355
820.465	26423
820.605	26442
820.746	26221
820.886	26324
821.026	26309
821.167	26267
821.307	26294
821.447	26199
821.588	26069
821.728	26081
821.868	25860
822.008	25670
822.149	25609
822.289	25738
822.429	25384
822.569	25396
822.709	25278
822.849	25194
822.99	25209
823.13	25015
823.27	25141
823.41	24932
823.55	24897
823.69	24970
823.83	25118
823.97	25038
824.11	24814
824.25	24711
824.389	24688
824.529	24985
824.669	24703
824.809	24886
824.949	24833
825.089	24871
825.228	24916
825.368	24700
825.508	24711
825.648	24764
825.787	24791
825.927	24650
826.067	24715
826.206	24597
826.346	24658
826.485	24840
826.625	24673
826.765	24878
826.904	24684
827.044	24471
827.183	24407
827.323	24357
827.462	24479
827.601	24418
827.741	24395
827.88	24384
828.02	24258
828.159	24258
828.298	24334
828.437	24407
828.577	24399
828.716	24471
828.855	24296
828.994	24087
829.134	24182
829.273	24083
829.412	24041
829.551	24072
829.69	24038
829.829	24133
829.968	24319
830.107	24232
830.246	24030
830.385	23996
830.524	24011
830.663	23897
830.802	23821
830.941	23718
831.08	23653
831.219	23646
831.357	23718
831.496	23885
831.635	23638
831.774	23638
831.913	23528
832.051	23387
832.19	23421
832.329	23398
832.467	23520
832.606	23383
832.744	23307
832.883	23315
833.022	23318
833.16	23330
833.299	23326
833.437	23326
833.576	23425
833.714	23296
833.852	23482
833.991	23627
834.129	23653
834.267	23615
834.406	23455
834.544	23402
834.682	23455
834.821	23280
834.959	23478
835.097	23406
835.235	23448
835.373	23322
835.511	23334
835.65	23284
835.788	23383
835.926	23025
836.064	22968
836.202	23121
836.34	23250
836.478	23341
836.615	23174
836.753	23239
836.891	23284
837.029	23170
837.167	23189
837.305	23250
837.443	23178
837.58	23086
837.718	23185
837.856	23109
837.993	22953
838.131	23064
838.269	22972
838.406	23052
838.544	22885
838.681	22763
838.819	22793
838.956	22523
839.094	22577
839.231	22687
839.369	22854
839.506	22934
839.643	22908
839.781	22432
839.918	22588
840.055	22588
840.193	22584
840.33	22603
840.467	22474
840.604	22656
840.742	22809
840.879	22440
841.016	22394
841.153	22394
841.29	22687
841.427	22424
841.564	22622
841.701	22371
841.838	22428
841.975	22276
842.112	22375
842.249	22405
842.385	22272
842.522	22497
842.659	22379
842.796	22249
842.933	22295
843.069	22295
843.206	22280
843.343	22226
843.479	22249
843.616	22242
843.752	22070
843.889	21979
844.025	22211
844.162	21956
844.298	22074
844.435	21983
844.571	21975
844.708	22036
844.844	22192
844.98	22253
845.117	22207
845.253	21991
845.389	21934
845.525	21800
845.661	21808
845.798	21766
845.934	21770
846.07	21625
846.206	21728
846.342	21869
846.478	21728
846.614	21572
846.75	21504
846.886	21492
847.022	21549
847.158	21523
847.294	21485
847.429	21458
847.565	21454
847.701	21690
847.837	21313
847.972	21214
848.108	21397
848.244	21329
848.379	21043
848.515	21009
848.65	21089
848.786	21165
848.921	21161
849.057	21249
849.192	21036
849.328	21070
849.463	21123
849.598	21047
849.734	21077
849.869	20929
850.004	20902
850.14	20994
850.275	20826
850.41	20781
850.545	20891
850.68	20834
850.815	20925
850.95	20872
851.085	20963
851.22	20918
851.355	20823
851.49	20849
851.625	20910
851.76	20880
851.895	20811
852.03	20754
852.165	20823
852.299	20933
852.434	20876
852.569	20845
852.703	20762
852.838	20952
852.973	21051
853.107	20971
853.242	20727
853.376	20731
853.511	20492
853.645	20640
853.78	20895
853.914	20644
854.048	20617
854.183	20735
854.317	20720
854.451	20731
854.585	20651
854.72	20602
854.854	20746
854.988	20568
855.122	20689
855.256	20606
855.39	20686
855.524	20739
855.658	20861
855.792	20617
855.926	20621
856.06	20735
856.194	20762
856.327	20621
856.461	20735
856.595	20613
856.729	20625
856.862	20777
856.996	20686
857.13	20800
857.263	20739
857.397	20754
857.53	20648
857.664	20830
857.797	20659
857.931	20838
858.064	20727
858.197	20716
858.331	20701
858.464	20522
858.597	20503
858.731	20769
858.864	20689
858.997	20648
859.13	20727
859.263	20686
859.396	20712
859.529	20716
859.662	20613
859.795	20575
859.928	20648
860.061	20864
860.194	20849
860.327	20659
860.46	20682
860.592	20861
860.725	20788
860.858	20781
860.99	20689
861.123	20476
861.256	20495
861.388	20708
861.521	21264
861.653	20568
861.786	20343
861.918	20590
862.05	20568
862.183	20594
862.315	20583
862.447	20545
862.58	20537
862.712	20423
862.844	20309
862.976	20423
863.108	20442
863.24	20929
863.372	20393
863.504	20473
863.636	20374
863.768	20381
863.9	20518
864.032	20351
864.164	20438
864.296	20564
864.428	20537
864.559	20545
864.691	20434
864.823	20328
864.954	20370
865.086	20362
865.217	20328
865.349	20282
865.48	20412
865.612	20172
865.743	20438
865.875	20305
866.006	20298
866.137	20286
866.269	20233
866.4	20278
866.531	20237
866.662	20153
866.793	20237
866.924	20237
867.055	20233
867.186	20244
867.317	20237
867.448	20077
867.579	20248
867.71	20130
867.841	20313
867.972	20218
868.103	20317
868.233	20336
868.364	20202
868.495	20370
868.625	20419
868.756	20640
868.886	20377
869.017	20400
869.147	20606
869.278	20473
869.408	20545
869.539	20522
869.669	20590
869.799	20651
869.929	20670
870.06	20571
870.19	20807
870.32	20701
870.45	20613
870.58	20895
870.71	20979
870.84	20925
870.97	20815
871.1	20937
871.23	21032
871.36	21169
871.489	20941
871.619	21055
871.749	21135
871.879	21085
872.008	21245
872.138	21085
872.267	21047
872.397	20933
872.526	20853
872.656	20937
872.785	21009
872.915	21222
873.044	21135
873.173	21062
873.303	21146
873.432	21222
873.561	21214
873.69	21150
873.819	21112
873.948	21127
874.077	21203
874.206	21062
874.335	21199
874.464	21233
874.593	21367
874.722	21302
874.851	21408
874.979	21408
875.108	21447
875.237	21332
875.365	21226
875.494	21439
875.623	21386
875.751	21317
875.88	21412
876.008	21481
876.136	21443
876.265	21823
876.393	21899
876.521	21774
876.65	21804
876.778	21682
876.906	21698
877.034	21660
877.162	21694
877.29	21603
877.418	21694
877.546	21713
877.674	21652
877.802	21720
877.93	21690
878.058	21606
878.185	21587
878.313	21603
878.441	21576
878.568	21576
878.696	21553
878.824	21713
878.951	21679
879.079	21857
879.206	22082
879.333	21766
879.461	21778
879.588	21804
879.715	21854
879.842	22010
879.97	21785
880.097	21500
880.224	21466
880.351	21606
880.478	21447
880.605	21466
880.732	21393
880.859	21781
880.986	21477
881.112	21583
881.239	21329
881.366	21249
881.493	21184
881.619	21138
881.746	21218
881.872	21195
881.999	21100
882.125	21066
882.252	21180
882.378	21070
882.505	21119
882.631	20948
882.757	20735
882.883	20861
883.01	20777
883.136	20629
883.262	20678
883.388	20743
883.514	20781
883.64	20902
883.766	20754
883.892	20568
884.018	20549
884.143	20781
884.269	20979
884.395	20442
884.52	20362
884.646	20492
884.772	20488
884.897	20370
885.023	20408
885.148	20606
885.274	20613
885.399	20594
885.524	20454
885.65	20492
885.775	20415
885.9	20339
886.025	20530
886.15	20495
886.275	20309
886.4	20404
886.525	20389
886.65	20396
886.775	20358
886.9	20568
887.025	20701
887.149	20465
887.274	20278
887.399	20256
887.523	20225
887.648	20164
887.773	20183
887.897	20263
888.021	20263
888.146	20195
888.27	20240
888.395	20275
888.519	20092
888.643	20263
888.767	20324
888.891	20263
889.015	20046
889.139	20008
889.263	20043
889.387	20081
889.511	20191
889.635	20187
889.759	20065
889.883	20027
890.006	20134
890.13	20016
890.254	19909
890.377	19974
890.501	19826
890.624	19700
890.748	19803
890.871	19712
890.995	19552
891.118	19544
891.241	19689
891.364	19685
891.488	19704
891.611	19559
891.734	19533
891.857	19704
891.98	19571
892.103	19693
892.226	19647
892.349	19540
892.471	19335
892.594	19369
892.717	19601
892.839	19480
892.962	19552
893.085	19502
893.207	19533
893.33	19335
893.452	19476
893.575	19647
893.697	19628
893.819	19677
893.941	19670
894.064	19670
894.186	19529
894.308	19392
894.43	19651
894.552	19590
894.674	19556
894.796	19495
894.918	19510
895.04	19521
895.161	19597
895.283	19662
895.405	19411
895.526	19499
895.648	19571
895.769	19495
895.891	19613
896.012	19639
896.134	19628
896.255	19499
896.376	19575
896.498	19597
896.619	19639
896.74	19540
896.861	19624
896.982	19940
897.103	20039
897.224	19727
897.345	19685
897.466	19715
897.587	19708
897.708	20012
897.828	19818
897.949	19738
898.07	19651
898.19	19696
898.311	19715
898.431	19791
898.552	19746
898.672	19849
898.792	19906
898.913	19784
899.033	19559
899.153	19586
899.273	19518
899.393	19559
899.513	19677
899.633	19506
899.753	19719
899.873	19499
899.993	19567
900.113	19499
900.232	19472
900.352	19487
900.472	19343
900.591	19247
900.711	19327
900.83	19266
900.95	19422
901.069	19304
901.189	19194
901.308	19012
901.427	18802
901.546	18909
901.665	18909
901.784	18890
901.904	18707
902.023	18696
902.141	18544
902.26	18464
902.379	18479
902.498	18395
902.617	18388
902.735	18479
902.854	18376
902.973	18285
903.091	18232
903.21	18064
903.328	18076
903.446	18045
903.565	17882
903.683	17996
903.801	17988
903.919	17901
904.038	17775
904.156	17646
904.274	17760
904.392	17627
904.51	17611
904.627	17623
904.745	17657
904.863	17737
904.981	17524
905.098	17448
905.216	17417
905.334	17391
905.451	17376
905.569	17349
905.686	17383
905.803	17398
905.921	17174
906.038	17273
906.155	17197
906.272	17166
906.389	17174
906.506	16911
906.623	16858
906.74	16904
906.857	16866
906.974	16824
907.091	16984
907.208	17018
907.324	16900
907.441	16748
907.557	16668
907.674	16694
907.79	16561
907.907	16577
908.023	16630
908.139	16713
908.256	16607
908.372	16535
908.488	16516
908.604	16382
908.72	16299
908.836	16375
908.952	16375
909.068	16303
909.184	16409
909.3	16466
909.415	16299
909.531	16246
909.647	16086
909.762	16090
909.878	15934
909.993	16071
910.108	15998
910.224	15972
910.339	16017
910.454	15964
910.57	15827
910.685	15720
910.8	15994
910.915	16010
911.03	15835
911.145	15698
911.259	15629
911.374	15606
911.489	15603
911.604	15496
911.718	15306
911.833	15374
911.947	15252
912.062	15275
912.176	15420
912.291	15405
912.405	15416
912.519	15762
912.633	15644
912.748	15523
912.862	15348
912.976	15245
913.09	15131
913.204	15116
913.318	15176
913.431	15363
913.545	15359
913.659	15306
913.772	15169
913.886	15024
914	15047
914.113	15108
914.226	15112
914.34	15093
914.453	14910
914.566	15039
914.68	14914
914.793	14910
914.906	14720
915.019	14693
915.132	14564
915.245	14659
915.358	14644
915.47	14640
915.583	14568
915.696	14644
915.809	14682
915.921	14769
916.034	14625
916.146	14492
916.259	14530
916.371	14636
916.483	14610
916.595	14522
916.708	14484
916.82	14465
916.932	14412
917.044	14469
917.156	14263
917.268	14358
917.38	14332
917.491	14256
917.603	14294
917.715	14427
917.826	14366
917.938	14233
918.049	14191
918.161	14286
918.272	14423
918.384	14336
918.495	14290
918.606	14145
918.717	14126
918.828	14149
918.939	14138
919.05	14058
919.161	14054
919.272	13811
919.383	14005
919.494	14134
919.604	14286
919.715	14115
919.826	13887
919.936	14100
920.047	14123
920.157	14054
920.267	14267
920.378	14149
920.488	14115
920.598	14301
920.708	14320
920.818	14187
920.928	14172
921.038	14294
921.148	14275
921.258	14024
921.368	13989
921.477	13818
921.587	13791
921.697	13674
921.806	13887
921.916	13594
922.025	13468
922.134	13426
922.244	13430
922.353	13559
922.462	13324
922.571	13278
922.68	13145
922.789	13091
922.898	13107
923.007	12928
923.116	13149
923.224	13091
923.333	13118
923.442	12916
923.55	12958
923.659	12939
923.767	13004
923.876	12939
923.984	13053
924.092	12760
924.201	12890
924.309	12798
924.417	12867
924.525	12859
924.633	12814
924.741	13677
924.849	12547
924.956	12604
925.064	12589
925.172	12582
925.279	12517
925.387	12559
925.494	12555
925.602	12741
925.709	12574
925.816	12456
925.924	12551
926.031	12684
926.138	12521
926.245	12620
926.352	12441
926.459	12475
926.566	12555
926.673	12429
926.779	12334
926.886	12251
926.993	12163
927.099	12197
927.206	12030
927.312	12038
927.419	12136
927.525	12125
927.631	12098
927.737	11996
927.843	11931
927.95	11912
928.056	11893
928.162	11935
928.267	11977
928.373	12585
928.479	12076
928.585	11775
928.69	11927
928.796	12049
928.901	11805
929.007	11684
929.112	11843
929.218	11798
929.323	11718
929.428	11699
929.533	11817
929.638	11615
929.743	11714
929.848	11790
929.953	11619
930.058	11558
930.163	11398
930.267	11429
930.372	11585
930.477	11349
930.581	11528
930.685	11429
930.79	11265
930.894	11349
930.998	11315
931.103	11444
931.207	11029
931.311	10942
931.415	10892
931.519	10763
931.623	10603
