Data from test_V78500241_1641.txt Node
Date: Fri Mar 25 15:21:16 CST 2022
User: usil
Spectrometer: V785-0024
Trigger mode: 0
Integration Time (sec): 4.000000E-1
Scans to average: 1
Nonlinearity correction enabled: false
Boxcar width: 0
Storing dark spectrum: false
XAxis mode: Wavelengths
Number of Pixels in Spectrum: 1024
>>>>>Begin Spectral Data<<<<<
801.071	27682
801.214	27625
801.356	27405
801.499	27359
801.641	27245
801.783	27260
801.926	27272
802.068	27127
802.211	26948
802.353	27070
802.496	26876
802.638	26769
802.78	26689
802.923	26804
803.065	26697
803.208	26765
803.35	26849
803.492	26998
803.635	27005
803.777	26967
803.919	27096
804.061	27226
804.204	26933
804.346	26971
804.488	27036
804.63	27039
804.773	26937
804.915	27089
805.057	27081
805.199	27051
805.341	27096
805.483	27161
805.626	27135
805.768	27028
805.91	27043
806.052	27146
806.194	27108
806.336	27279
806.478	27165
806.62	27154
806.762	27211
806.904	27310
807.046	27561
807.188	27587
807.33	27507
807.472	27557
807.614	27397
807.756	27435
807.898	27325
808.04	27420
808.182	27469
808.324	27378
808.465	27507
808.607	27576
808.749	27823
808.891	27819
809.033	27998
809.174	27747
809.316	27785
809.458	27759
809.6	27778
809.741	27926
809.883	27861
810.025	27991
810.166	27994
810.308	28074
810.45	27937
810.591	28048
810.733	27797
810.875	27762
811.016	27648
811.158	27606
811.299	27876
811.441	27911
811.582	27914
811.724	27869
811.865	27652
812.007	27625
812.148	27724
812.29	27739
812.431	28078
812.573	28074
812.714	28242
812.855	28249
812.997	28363
813.138	28459
813.279	28375
813.421	28329
813.562	28287
813.703	28036
813.845	28006
813.986	27736
814.127	27614
814.268	27515
814.41	27283
814.551	27291
814.692	27561
814.833	27515
814.974	27359
815.115	27329
815.256	27378
815.397	27237
815.539	27165
815.68	27313
815.821	27055
815.962	27252
816.103	27150
816.244	27039
816.385	26956
816.526	26967
816.666	26842
816.807	26792
816.948	26819
817.089	26838
817.23	26921
817.371	26773
817.512	26826
817.653	26727
817.793	26682
817.934	26807
818.075	26530
818.216	26785
818.356	26667
818.497	26644
818.638	26492
818.778	26442
818.919	26446
819.06	26625
819.2	26609
819.341	26826
819.481	26648
819.622	26750
819.762	26979
819.903	27001
820.043	26933
820.184	26845
820.324	26689
820.465	26880
820.605	26792
820.746	26872
820.886	26629
821.026	26792
821.167	26701
821.307	26895
821.447	26792
821.588	26571
821.728	26518
821.868	26218
822.008	26180
822.149	26134
822.289	26191
822.429	25909
822.569	25864
822.709	25913
822.849	25586
822.99	25693
823.13	25693
823.27	25666
823.41	25578
823.55	25316
823.69	25510
823.83	25525
823.97	25362
824.11	25327
824.25	25373
824.389	25343
824.529	25487
824.669	25373
824.809	25529
824.949	25438
825.089	25266
825.228	25457
825.368	25190
825.508	25114
825.648	25148
825.787	25274
825.927	25232
826.067	25190
826.206	25202
826.346	25244
826.485	25168
826.625	25247
826.765	25251
826.904	25240
827.044	25004
827.183	24943
827.323	24871
827.462	25050
827.601	24958
827.741	24928
827.88	24871
828.02	24878
828.159	24749
828.298	25004
828.437	24882
828.577	24932
828.716	24981
828.855	24894
828.994	24608
829.134	24639
829.273	24722
829.412	24452
829.551	24471
829.69	24620
829.829	24547
829.968	24760
830.107	24719
830.246	24631
830.385	24551
830.524	24467
830.663	24498
830.802	24403
830.941	24262
831.08	24216
831.219	24353
831.357	24350
831.496	24471
831.635	24095
831.774	24015
831.913	24201
832.051	23965
832.19	24038
832.329	24022
832.467	23942
832.606	23783
832.744	23771
832.883	23908
833.022	23771
833.16	24003
833.299	23954
833.437	23958
833.576	23969
833.714	24003
833.852	23942
833.991	24163
834.129	24007
834.267	23927
834.406	23901
834.544	23999
834.682	23840
834.821	23969
834.959	24064
835.097	23885
835.235	23931
835.373	24053
835.511	23843
835.65	23836
835.788	23855
835.926	23600
836.064	23516
836.202	23608
836.34	23821
836.478	23870
836.615	23630
836.753	23764
836.891	23863
837.029	23809
837.167	23748
837.305	23733
837.443	23741
837.58	23562
837.718	23729
837.856	23627
837.993	23600
838.131	23668
838.269	23505
838.406	23501
838.544	23512
838.681	23303
838.819	23105
838.956	23056
839.094	22995
839.231	23250
839.369	23326
839.506	23490
839.643	23425
839.781	23170
839.918	23121
840.055	23147
840.193	23037
840.33	23029
840.467	23064
840.604	23041
840.742	23277
840.879	22847
841.016	23006
841.153	22797
841.29	23258
841.427	23033
841.564	22972
841.701	23010
841.838	22930
841.975	22797
842.112	23075
842.249	22885
842.385	22687
842.522	23064
842.659	22809
842.796	22721
842.933	22683
843.069	22744
843.206	22565
843.343	22831
843.479	22782
843.616	22847
843.752	22679
843.889	22675
844.025	22812
844.162	22455
844.298	22763
844.435	22569
844.571	22531
844.708	22565
844.844	22713
844.98	22702
845.117	22611
845.253	22523
845.389	22451
845.525	22451
845.661	22386
845.798	22219
845.934	22405
846.07	22284
846.206	22242
846.342	22360
846.478	22246
846.614	22090
846.75	22013
846.886	22070
847.022	22101
847.158	22067
847.294	21991
847.429	22063
847.565	22029
847.701	22306
847.837	21835
847.972	21797
848.108	21838
848.244	21808
848.379	21675
848.515	21553
848.65	21656
848.786	21660
848.921	21717
849.057	21743
849.192	21724
849.328	21519
849.463	21542
849.598	21568
849.734	21534
849.869	21466
850.004	21492
850.14	21344
850.275	21351
850.41	21317
850.545	21367
850.68	21431
850.815	21405
850.95	21325
851.085	21606
851.22	21515
851.355	21317
851.49	21401
851.625	21249
851.76	21214
851.895	21321
852.03	21272
852.165	21294
852.299	21374
852.434	21412
852.569	21389
852.703	21382
852.838	21363
852.973	21496
853.107	21477
853.242	21287
853.376	21169
853.511	21074
853.645	21154
853.78	21260
853.914	21241
854.048	21173
854.183	21131
854.317	21230
854.451	21382
854.585	21169
854.72	21192
854.854	21332
854.988	21135
855.122	21119
855.256	20994
855.39	21184
855.524	21230
855.658	21199
855.792	21245
855.926	21222
856.06	21283
856.194	21401
856.327	21093
856.461	21245
856.595	21093
856.729	21207
856.862	21317
856.996	21233
857.13	21237
857.263	21176
857.397	21428
857.53	21188
857.664	21214
857.797	21211
857.931	21355
858.064	21233
858.197	21287
858.331	21154
858.464	21104
858.597	21169
858.731	21256
858.864	21207
858.997	21116
859.13	21214
859.263	21256
859.396	21386
859.529	21180
859.662	21127
859.795	21119
859.928	21135
860.061	21374
860.194	21435
860.327	21275
860.46	21264
860.592	21313
860.725	21443
860.858	21310
860.99	21161
861.123	21138
861.256	21169
861.388	21154
861.521	21987
861.653	20937
861.786	20944
861.918	21089
862.05	21100
862.183	21207
862.315	21279
862.447	21233
862.58	21192
862.712	20895
862.844	20941
862.976	21093
863.108	20948
863.24	21275
863.372	20826
863.504	20857
863.636	20948
863.768	20902
863.9	20880
864.032	20849
864.164	20918
864.296	20941
864.428	21081
864.559	20948
864.691	20967
864.823	20986
864.954	20857
865.086	20921
865.217	20724
865.349	20678
865.48	20823
865.612	20777
865.743	20861
865.875	20857
866.006	20849
866.137	20701
866.269	20853
866.4	20758
866.531	20838
866.662	20796
866.793	20693
866.924	20731
867.055	20716
867.186	20781
867.317	20701
867.448	20655
867.579	20758
867.71	20625
867.841	20697
867.972	20781
868.103	20697
868.233	20807
868.364	20800
868.495	20895
868.625	21017
868.756	21055
868.886	20933
869.017	20937
869.147	21085
869.278	21176
869.408	21047
869.539	20994
869.669	21180
869.799	21100
869.929	21135
870.06	21112
870.19	21344
870.32	21218
870.45	21389
870.58	21348
870.71	21526
870.84	21450
870.97	21397
871.1	21344
871.23	21534
871.36	21599
871.489	21488
871.619	21572
871.749	21507
871.879	21633
872.008	21732
872.138	21682
872.267	21557
872.397	21454
872.526	21420
872.656	21336
872.785	21351
872.915	21542
873.044	21759
873.173	21705
873.303	21652
873.432	21610
873.561	21606
873.69	21701
873.819	21606
873.948	21793
874.077	21614
874.206	21599
874.335	21587
874.464	21667
874.593	21850
874.722	21797
874.851	21850
874.979	21975
875.108	21888
875.237	21835
875.365	21720
875.494	21793
875.623	21857
875.751	21785
875.88	21838
876.008	22013
876.136	22086
876.265	22131
876.393	22371
876.521	22295
876.65	22371
876.778	22226
876.906	22044
877.034	22131
877.162	22112
877.29	22013
877.418	22120
877.546	22204
877.674	22249
877.802	22181
877.93	22173
878.058	22154
878.185	22090
878.313	22086
878.441	22177
878.568	22006
878.696	22093
878.824	22249
878.951	22219
879.079	22443
879.206	22348
879.333	22249
879.461	22093
879.588	22177
879.715	22367
879.842	22382
879.97	22162
880.097	21937
880.224	21991
880.351	22051
880.478	22105
880.605	21895
880.732	21956
880.859	22166
880.986	22093
881.112	21956
881.239	21899
881.366	21804
881.493	21667
881.619	21629
881.746	21637
881.872	21656
881.999	21644
882.125	21473
882.252	21663
882.378	21599
882.505	21629
882.631	21416
882.757	21344
882.883	21317
883.01	21389
883.136	21249
883.262	21226
883.388	21051
883.514	21233
883.64	21340
883.766	21169
883.892	21024
884.018	21116
884.143	21302
884.269	21306
884.395	20944
884.52	20933
884.646	20891
884.772	20838
884.897	20876
885.023	20925
885.148	21001
885.274	21058
885.399	20982
885.524	20941
885.65	20982
885.775	20948
885.9	20982
886.025	21077
886.15	20967
886.275	20971
886.4	20834
886.525	20750
886.65	20781
886.775	20838
886.9	20963
887.025	21081
887.149	20857
887.274	20629
887.399	20693
887.523	20701
887.648	20697
887.773	20602
887.897	20689
888.021	20731
888.146	20659
888.27	20716
888.395	20648
888.519	20777
888.643	20598
888.767	20735
888.891	20613
889.015	20503
889.139	20579
889.263	20488
889.387	20632
889.511	20777
889.635	20522
889.759	20480
889.883	20396
890.006	20533
890.13	20564
890.254	20370
890.377	20488
890.501	20237
890.624	20168
890.748	20271
890.871	20218
890.995	20039
891.118	19970
891.241	20157
891.364	20012
891.488	20237
891.611	20039
891.734	20077
891.857	20229
891.98	20062
892.103	20111
892.226	20024
892.349	19898
892.471	19871
892.594	20016
892.717	20107
892.839	19947
892.962	20008
893.085	20008
893.207	19959
893.33	19906
893.452	19780
893.575	20020
893.697	19959
893.819	20168
893.941	20199
894.064	20088
894.186	19894
894.308	19947
894.43	20039
894.552	20149
894.674	20008
894.796	19856
894.918	20046
895.04	19917
895.161	20065
895.283	19932
895.405	19856
895.526	19989
895.648	19982
895.769	19959
895.891	19993
896.012	20065
896.134	19917
896.255	19974
896.376	19822
896.498	19894
896.619	19974
896.74	20016
896.861	20046
896.982	20225
897.103	20393
897.224	20256
897.345	20081
897.466	20119
897.587	20233
897.708	20298
897.828	20202
897.949	20111
898.07	19982
898.19	20092
898.311	20324
898.431	20164
898.552	20130
898.672	20263
898.792	20271
898.913	20225
899.033	20020
899.153	19959
899.273	19871
899.393	19970
899.513	20039
899.633	19917
899.753	19925
899.873	19849
899.993	19997
900.113	19928
900.232	19826
900.352	19769
900.472	19689
900.591	19571
900.711	19738
900.83	19753
900.95	19841
901.069	19871
901.189	19582
901.308	19377
901.427	19320
901.546	19331
901.665	19274
901.784	19324
901.904	19225
902.023	19027
902.141	18848
902.26	18837
902.379	18837
902.498	18760
902.617	18821
902.735	18749
902.854	18658
902.973	18776
903.091	18494
903.21	18422
903.328	18437
903.446	18490
903.565	18346
903.683	18311
903.801	18197
903.919	18235
904.038	18300
904.156	18144
904.274	18133
904.392	18072
904.51	18083
904.627	18011
904.745	18106
904.863	18163
904.981	17840
905.098	17741
905.216	17638
905.334	17745
905.451	17741
905.569	17756
905.686	17691
905.803	17729
905.921	17558
906.038	17642
906.155	17589
906.272	17497
906.389	17436
906.506	17353
906.623	17197
906.74	17349
906.857	17170
906.974	17155
907.091	17318
907.208	17345
907.324	17261
907.441	17166
907.557	16976
907.674	16972
907.79	16949
907.907	16995
908.023	17124
908.139	17014
908.256	16984
908.372	16904
908.488	16968
908.604	16748
908.72	16694
908.836	16801
908.952	16752
909.068	16710
909.184	16858
909.3	16641
909.415	16809
909.531	16736
909.647	16504
909.762	16481
909.878	16394
909.993	16394
910.108	16443
910.224	16356
910.339	16402
910.454	16181
910.57	16219
910.685	16086
910.8	16356
910.915	16306
911.03	16249
911.145	16105
911.259	16051
911.374	16044
911.489	15892
911.604	15979
911.718	15812
911.833	15800
911.947	15595
912.062	15595
912.176	15838
912.291	15759
912.405	15641
912.519	16025
912.633	15861
912.748	15797
912.862	15656
912.976	15496
913.09	15481
913.204	15580
913.318	15507
913.431	15720
913.545	15724
913.659	15717
913.772	15519
913.886	15416
914	15397
914.113	15443
914.226	15389
914.34	15363
914.453	15302
914.566	15378
914.68	15135
914.793	15199
914.906	15062
915.019	15036
915.132	14918
915.245	15058
915.358	14975
915.47	14990
915.583	14975
915.696	15032
915.809	15058
915.921	15188
916.034	14826
916.146	14876
916.259	14876
916.371	14929
916.483	14895
916.595	14773
916.708	14918
916.82	14895
916.932	14765
917.044	14716
917.156	14819
917.268	14651
917.38	14659
917.491	14636
917.603	14571
917.715	14682
917.826	14731
917.938	14613
918.049	14457
918.161	14522
918.272	14773
918.384	14765
918.495	14636
918.606	14404
918.717	14328
918.828	14396
918.939	14442
919.05	14240
919.161	14309
919.272	14210
919.383	14248
919.494	14461
919.604	14632
919.715	14427
919.826	14233
919.936	14332
920.047	14457
920.157	14385
920.267	14583
920.378	14396
920.488	14263
920.598	14617
920.708	14705
920.818	14484
920.928	14514
921.038	14644
921.148	14568
921.258	14324
921.368	14214
921.477	14130
921.587	14157
921.697	13993
921.806	14130
921.916	14001
922.025	13776
922.134	13799
922.244	13708
922.353	13811
922.462	13628
922.571	13529
922.68	13518
922.789	13476
922.898	13445
923.007	13324
923.116	13419
923.224	13381
923.333	13392
923.442	13244
923.55	13187
923.659	13247
923.767	13316
923.876	13236
923.984	13217
924.092	13137
924.201	13110
924.309	13061
924.417	13072
924.525	13008
924.633	12981
924.741	13978
924.849	12814
924.956	13015
925.064	12863
925.172	12722
925.279	12791
925.387	12787
925.494	12875
925.602	12897
925.709	12882
925.816	12783
925.924	12798
926.031	12810
926.138	12730
926.245	12787
926.352	12757
926.459	12821
926.566	12791
926.673	12658
926.779	12604
926.886	12582
926.993	12323
927.099	12448
927.206	12262
927.312	12315
927.419	12361
927.525	12429
927.631	12448
927.737	12304
927.843	12247
927.95	12083
928.056	12133
928.162	12243
928.267	12304
928.373	12909
928.479	12262
928.585	12102
928.69	12133
928.796	12152
928.901	12060
929.007	11923
929.112	12083
929.218	12041
929.323	12026
929.428	11946
929.533	12034
929.638	11790
929.743	11961
929.848	11927
929.953	11908
930.058	11748
930.163	11630
930.267	11653
930.372	11836
930.477	11600
930.581	11851
930.685	11714
930.79	11459
930.894	11558
930.998	11452
931.103	11649
931.207	11254
931.311	11143
931.415	11147
931.519	10995
931.623	10900
