Data from test_V78500241_542.txt Node
Date: Fri Mar 25 15:13:37 CST 2022
User: usil
Spectrometer: V785-0024
Trigger mode: 0
Integration Time (sec): 4.000000E-1
Scans to average: 1
Nonlinearity correction enabled: false
Boxcar width: 0
Storing dark spectrum: false
XAxis mode: Wavelengths
Number of Pixels in Spectrum: 1024
>>>>>Begin Spectral Data<<<<<
801.071	27386
801.214	27188
801.356	26963
801.499	26960
801.641	26948
801.783	26887
801.926	26914
802.068	26918
802.211	26739
802.353	26530
802.496	26503
802.638	26556
802.78	26541
802.923	26473
803.065	26332
803.208	26480
803.35	26377
803.492	26579
803.635	26686
803.777	26530
803.919	26590
804.061	26944
804.204	26636
804.346	26594
804.488	26575
804.63	26651
804.773	26587
804.915	26522
805.057	26735
805.199	26648
805.341	26495
805.483	26689
805.626	26754
805.768	26499
805.91	26769
806.052	26655
806.194	26609
806.336	26918
806.478	26838
806.62	26944
806.762	26906
806.904	27036
807.046	27359
807.188	27169
807.33	27142
807.472	27005
807.614	27127
807.756	27222
807.898	27173
808.04	27009
808.182	26933
808.324	26910
808.465	27032
808.607	27154
808.749	27230
808.891	27367
809.033	27462
809.174	27439
809.316	27332
809.458	27382
809.6	27473
809.741	27466
809.883	27370
810.025	27747
810.166	27709
810.308	27705
810.45	27591
810.591	27633
810.733	27466
810.875	27260
811.016	27260
811.158	27184
811.299	27416
811.441	27523
811.582	27530
811.724	27359
811.865	27310
812.007	27359
812.148	27249
812.29	27526
812.431	27450
812.573	27724
812.714	27747
812.855	27812
812.997	27960
813.138	28226
813.279	28101
813.421	28051
813.562	27838
813.703	27633
813.845	27583
813.986	27252
814.127	27249
814.268	27116
814.41	27062
814.551	26998
814.692	27093
814.833	27009
814.974	26933
815.115	26971
815.256	26887
815.397	26994
815.539	26963
815.68	26948
815.821	26990
815.962	26773
816.103	26861
816.244	26746
816.385	26602
816.526	26442
816.666	26415
816.807	26396
816.948	26431
817.089	26313
817.23	26343
817.371	26419
817.512	26320
817.653	26252
817.793	26282
817.934	26423
818.075	26298
818.216	26336
818.356	26206
818.497	26218
818.638	26100
818.778	26024
818.919	26069
819.06	26001
819.2	26199
819.341	26317
819.481	26256
819.622	26415
819.762	26689
819.903	26674
820.043	26514
820.184	26453
820.324	26343
820.465	26404
820.605	26385
820.746	26347
820.886	26214
821.026	26199
821.167	26431
821.307	26579
821.447	26317
821.588	26233
821.728	26145
821.868	25894
822.008	25811
822.149	25708
822.289	25776
822.429	25529
822.569	25445
822.709	25384
822.849	25282
822.99	25240
823.13	25221
823.27	25259
823.41	25065
823.55	24954
823.69	24935
823.83	24924
823.97	24992
824.11	25004
824.25	24764
824.389	24920
824.529	24989
824.669	24840
824.809	25110
824.949	24894
825.089	25133
825.228	25015
825.368	24707
825.508	24726
825.648	24894
825.787	24901
825.927	24802
826.067	24703
826.206	24825
826.346	24814
826.485	24901
826.625	24639
826.765	24806
826.904	24814
827.044	24574
827.183	24467
827.323	24399
827.462	24551
827.601	24570
827.741	24498
827.88	24547
828.02	24372
828.159	24399
828.298	24521
828.437	24525
828.577	24483
828.716	24494
828.855	24551
828.994	24213
829.134	24144
829.273	24254
829.412	24190
829.551	24140
829.69	24171
829.829	24197
829.968	24281
830.107	24224
830.246	24167
830.385	24144
830.524	24121
830.663	24152
830.802	23950
830.941	23840
831.08	23748
831.219	23843
831.357	23863
831.496	24045
831.635	23748
831.774	23718
831.913	23707
832.051	23604
832.19	23501
832.329	23714
832.467	23516
832.606	23539
832.744	23505
832.883	23478
833.022	23524
833.16	23547
833.299	23531
833.437	23581
833.576	23585
833.714	23539
833.852	23581
833.991	23551
834.129	23531
834.267	23653
834.406	23668
834.544	23627
834.682	23531
834.821	23570
834.959	23798
835.097	23501
835.235	23672
835.373	23566
835.511	23520
835.65	23280
835.788	23490
835.926	23235
836.064	23299
836.202	23261
836.34	23471
836.478	23501
836.615	23463
836.753	23379
836.891	23452
837.029	23383
837.167	23284
837.305	23311
837.443	23406
837.58	23170
837.718	23242
837.856	23189
837.993	23261
838.131	23166
838.269	23128
838.406	23132
838.544	22961
838.681	22908
838.819	22812
838.956	22809
839.094	22679
839.231	22786
839.369	22862
839.506	23102
839.643	23010
839.781	22725
839.918	22740
840.055	22740
840.193	22637
840.33	22557
840.467	22748
840.604	22816
840.742	22923
840.879	22481
841.016	22637
841.153	22481
841.29	22717
841.427	22523
841.564	22584
841.701	22637
841.838	22596
841.975	22462
842.112	22538
842.249	22485
842.385	22432
842.522	22592
842.659	22386
842.796	22447
842.933	22325
843.069	22314
843.206	22325
843.343	22474
843.479	22379
843.616	22451
843.752	22181
843.889	22287
844.025	22276
844.162	22162
844.298	22310
844.435	22173
844.571	22128
844.708	22226
844.844	22318
844.98	22310
845.117	22379
845.253	22097
845.389	22063
845.525	22101
845.661	22097
845.798	21949
845.934	21945
846.07	21899
846.206	21876
846.342	22067
846.478	21907
846.614	21720
846.75	21610
846.886	21568
847.022	21713
847.158	21679
847.294	21774
847.429	21549
847.565	21610
847.701	21922
847.837	21367
847.972	21367
848.108	21389
848.244	21363
848.379	21275
848.515	21245
848.65	21275
848.786	21336
848.921	21214
849.057	21351
849.192	21291
849.328	21355
849.463	21214
849.598	21332
849.734	21188
849.869	21116
850.004	21089
850.14	21051
850.275	21100
850.41	20933
850.545	20994
850.68	21055
850.815	21017
850.95	20967
851.085	21256
851.22	21055
851.355	21024
851.49	20994
851.625	20967
851.76	20819
851.895	20876
852.03	21009
852.165	21058
852.299	21001
852.434	21001
852.569	21116
852.703	20967
852.838	21020
852.973	21047
853.107	21089
853.242	21036
853.376	20918
853.511	20811
853.645	20838
853.78	20944
853.914	20872
854.048	20769
854.183	20948
854.317	20876
854.451	20979
854.585	20849
854.72	20994
854.854	20800
854.988	20697
855.122	20788
855.256	20708
855.39	20925
855.524	20868
855.658	20880
855.792	20735
855.926	20883
856.06	20811
856.194	20910
856.327	20868
856.461	20819
856.595	20762
856.729	20746
856.862	20880
856.996	20823
857.13	20861
857.263	20933
857.397	20941
857.53	20868
857.664	20857
857.797	20948
857.931	21039
858.064	20895
858.197	21047
858.331	20788
858.464	20743
858.597	20689
858.731	20834
858.864	20830
858.997	20815
859.13	20830
859.263	20792
859.396	20842
859.529	20697
859.662	20811
859.795	20773
859.928	20746
860.061	20918
860.194	20975
860.327	20929
860.46	20823
860.592	20902
860.725	20998
860.858	20918
860.99	20796
861.123	20861
861.256	20758
861.388	20811
861.521	21568
861.653	20705
861.786	20705
861.918	20636
862.05	20678
862.183	20758
862.315	20864
862.447	20796
862.58	20807
862.712	20575
862.844	20480
862.976	20568
863.108	20609
863.24	20895
863.372	20476
863.504	20549
863.636	20575
863.768	20598
863.9	20583
864.032	20457
864.164	20526
864.296	20530
864.428	20545
864.559	20640
864.691	20625
864.823	20533
864.954	20564
865.086	20499
865.217	20503
865.349	20412
865.48	20389
865.612	20442
865.743	20514
865.875	20461
866.006	20427
866.137	20541
866.269	20526
866.4	20355
866.531	20324
866.662	20290
866.793	20240
866.924	20355
867.055	20396
867.186	20415
867.317	20427
867.448	20301
867.579	20343
867.71	20294
867.841	20278
867.972	20332
868.103	20275
868.233	20457
868.364	20492
868.495	20469
868.625	20617
868.756	20785
868.886	20621
869.017	20552
869.147	20735
869.278	20746
869.408	20598
869.539	20640
869.669	20693
869.799	20674
869.929	20724
870.06	20769
870.19	20925
870.32	20811
870.45	20853
870.58	20849
870.71	21085
870.84	21005
870.97	21043
871.1	21039
871.23	21173
871.36	21203
871.489	21074
871.619	21283
871.749	21230
871.879	21207
872.008	21298
872.138	21245
872.267	21230
872.397	21188
872.526	21051
872.656	21036
872.785	21165
872.915	21252
873.044	21241
873.173	21188
873.303	21294
873.432	21275
873.561	21321
873.69	21264
873.819	21283
873.948	21283
874.077	21249
874.206	21222
874.335	21268
874.464	21329
874.593	21530
874.722	21431
874.851	21313
874.979	21515
875.108	21538
875.237	21466
875.365	21363
875.494	21595
875.623	21553
875.751	21401
875.88	21519
876.008	21534
876.136	21755
876.265	21918
876.393	22025
876.521	21987
876.65	21979
876.778	21892
876.906	21785
877.034	21831
877.162	21869
877.29	21835
877.418	21854
877.546	21816
877.674	21743
877.802	21842
877.93	21793
878.058	21865
878.185	21778
878.313	21850
878.441	21770
878.568	21553
878.696	21819
878.824	21911
878.951	21918
879.079	21941
879.206	22086
879.333	22067
879.461	21918
879.588	21937
879.715	21991
879.842	22070
879.97	21892
880.097	21671
880.224	21682
880.351	21633
880.478	21698
880.605	21686
880.732	21637
880.859	21873
880.986	21675
881.112	21641
881.239	21530
881.366	21416
881.493	21310
881.619	21195
881.746	21275
881.872	21211
881.999	21169
882.125	21268
882.252	21351
882.378	21241
882.505	21469
882.631	21051
882.757	20960
882.883	21036
883.01	20998
883.136	20868
883.262	20937
883.388	20811
883.514	20982
883.64	20918
883.766	20887
883.892	20693
884.018	20743
884.143	20849
884.269	20944
884.395	20617
884.52	20613
884.646	20606
884.772	20499
884.897	20530
885.023	20537
885.148	20735
885.274	20686
885.399	20819
885.524	20640
885.65	20552
885.775	20701
885.9	20727
886.025	20731
886.15	20686
886.275	20541
886.4	20389
886.525	20556
886.65	20514
886.775	20511
886.9	20716
887.025	20785
887.149	20533
887.274	20434
887.399	20419
887.523	20336
887.648	20377
887.773	20244
887.897	20461
888.021	20454
888.146	20301
888.27	20511
888.395	20556
888.519	20358
888.643	20320
888.767	20431
888.891	20271
889.015	20233
889.139	20317
889.263	20187
889.387	20469
889.511	20351
889.635	20286
889.759	20001
889.883	20046
890.006	20195
890.13	20218
890.254	20027
890.377	20164
890.501	19959
890.624	19799
890.748	19856
890.871	19826
890.995	19765
891.118	19715
891.241	19841
891.364	19780
891.488	19814
891.611	19776
891.734	19837
891.857	19826
891.98	19784
892.103	19700
892.226	19925
892.349	19674
892.471	19567
892.594	19723
892.717	19712
892.839	19666
892.962	19738
893.085	19750
893.207	19582
893.33	19445
893.452	19556
893.575	19685
893.697	19666
893.819	19845
893.941	19852
894.064	19814
894.186	19750
894.308	19533
894.43	19769
894.552	19765
894.674	19791
894.796	19590
894.918	19670
895.04	19616
895.161	19666
895.283	19700
895.405	19632
895.526	19632
895.648	19609
895.769	19662
895.891	19712
896.012	19750
896.134	19689
896.255	19670
896.376	19734
896.498	19708
896.619	19712
896.74	19662
896.861	19693
896.982	20065
897.103	20180
897.224	19928
897.345	19944
897.466	19849
897.587	19761
897.708	19932
897.828	19822
897.949	19784
898.07	19700
898.19	19795
898.311	20035
898.431	19871
898.552	19837
898.672	19879
898.792	19890
898.913	19940
899.033	19769
899.153	19670
899.273	19601
899.393	19639
899.513	19609
899.633	19616
899.753	19635
899.873	19567
899.993	19594
900.113	19613
900.232	19761
900.352	19567
900.472	19590
900.591	19396
900.711	19358
900.83	19426
900.95	19491
901.069	19578
901.189	19312
901.308	19148
901.427	19072
901.546	19084
901.665	19114
901.784	18989
901.904	18802
902.023	18757
902.141	18738
902.26	18623
902.379	18631
902.498	18547
902.617	18483
902.735	18642
902.854	18528
902.973	18319
903.091	18270
903.21	18205
903.328	18144
903.446	18125
903.565	17923
903.683	18129
903.801	17893
903.919	18064
904.038	18007
904.156	17752
904.274	17931
904.392	17775
904.51	17783
904.627	17623
904.745	17889
904.863	17866
904.981	17649
905.098	17570
905.216	17421
905.334	17490
905.451	17581
905.569	17414
905.686	17554
905.803	17417
905.921	17280
906.038	17379
906.155	17368
906.272	17140
906.389	17223
906.506	17014
906.623	17124
906.74	16908
906.857	16965
906.974	16854
907.091	17052
907.208	17193
907.324	16991
907.441	16930
907.557	16717
907.674	16679
907.79	16603
907.907	16675
908.023	16759
908.139	16812
908.256	16630
908.372	16656
908.488	16694
908.604	16516
908.72	16421
908.836	16417
908.952	16348
909.068	16500
909.184	16558
909.3	16466
909.415	16478
909.531	16386
909.647	16310
909.762	16207
909.878	16173
909.993	16204
910.108	16242
910.224	16147
910.339	16097
910.454	15979
910.57	15964
910.685	15907
910.8	16185
910.915	16143
911.03	16029
911.145	15770
911.259	15850
911.374	15766
911.489	15660
911.604	15564
911.718	15534
911.833	15557
911.947	15355
912.062	15313
912.176	15515
912.291	15507
912.405	15447
912.519	15671
912.633	15629
912.748	15622
912.862	15530
912.976	15363
913.09	15203
913.204	15351
913.318	15218
913.431	15283
913.545	15416
913.659	15298
913.772	15306
913.886	15157
914	15043
914.113	15161
914.226	15268
914.34	15214
914.453	15017
914.566	15108
914.68	15043
914.793	15089
914.906	14872
915.019	14765
915.132	14682
915.245	14716
915.358	14762
915.47	14758
915.583	14807
915.696	14864
915.809	14842
915.921	15001
916.034	14697
916.146	14621
916.259	14693
916.371	14674
916.483	14724
916.595	14610
916.708	14655
916.82	14613
916.932	14503
917.044	14545
917.156	14560
917.268	14423
917.38	14457
917.491	14461
917.603	14412
917.715	14457
917.826	14438
917.938	14275
918.049	14328
918.161	14450
918.272	14469
918.384	14526
918.495	14301
918.606	14202
918.717	14134
918.828	14183
918.939	14252
919.05	14016
919.161	14168
919.272	14046
919.383	14024
919.494	14199
919.604	14374
919.715	14115
919.826	14172
919.936	14123
920.047	14229
920.157	14168
920.267	14374
920.378	14195
920.488	14062
920.598	14351
920.708	14442
920.818	14244
920.928	14320
921.038	14374
921.148	14427
921.258	14092
921.368	13982
921.477	14065
921.587	13898
921.697	13757
921.806	13883
921.916	13780
922.025	13700
922.134	13491
922.244	13472
922.353	13613
922.462	13388
922.571	13377
922.68	13149
922.789	13232
922.898	13217
923.007	13137
923.116	13217
923.224	13217
923.333	13202
923.442	13080
923.55	12981
923.659	13038
923.767	13069
923.876	12989
923.984	13076
924.092	12977
924.201	12935
924.309	12932
924.417	13000
924.525	12852
924.633	12943
924.741	13666
924.849	12692
924.956	12840
925.064	12623
925.172	12601
925.279	12623
925.387	12745
925.494	12593
925.602	12692
925.709	12673
925.816	12494
925.924	12570
926.031	12707
926.138	12559
926.245	12627
926.352	12486
926.459	12608
926.566	12692
926.673	12547
926.779	12471
926.886	12350
926.993	12289
927.099	12224
927.206	12175
927.312	12091
927.419	12300
927.525	12232
927.631	12205
927.737	12136
927.843	12038
927.95	11935
928.056	11992
928.162	11980
928.267	12121
928.373	12639
928.479	12064
928.585	11931
928.69	11969
928.796	12019
928.901	11939
929.007	11737
929.112	12011
929.218	11885
929.323	11767
929.428	11726
929.533	11855
929.638	11710
929.743	11748
929.848	11672
929.953	11745
930.058	11649
930.163	11467
930.267	11516
930.372	11653
930.477	11410
930.581	11649
930.685	11482
930.79	11315
930.894	11414
930.998	11326
931.103	11425
931.207	11102
931.311	11037
931.415	11056
931.519	10778
931.623	10752
