Data from test_V78500241_1527.txt Node
Date: Fri Mar 25 15:20:29 CST 2022
User: usil
Spectrometer: V785-0024
Trigger mode: 0
Integration Time (sec): 4.000000E-1
Scans to average: 1
Nonlinearity correction enabled: false
Boxcar width: 0
Storing dark spectrum: false
XAxis mode: Wavelengths
Number of Pixels in Spectrum: 1024
>>>>>Begin Spectral Data<<<<<
801.071	27960
801.214	27800
801.356	27694
801.499	27466
801.641	27313
801.783	27500
801.926	27485
802.068	27408
802.211	27287
802.353	27169
802.496	27051
802.638	27020
802.78	26895
802.923	26967
803.065	26883
803.208	26914
803.35	26971
803.492	27176
803.635	27291
803.777	27180
803.919	27226
804.061	27603
804.204	27245
804.346	27165
804.488	27135
804.63	27260
804.773	27096
804.915	27176
805.057	27325
805.199	27230
805.341	27321
805.483	27382
805.626	27450
805.768	27264
805.91	27245
806.052	27420
806.194	27279
806.336	27580
806.478	27443
806.62	27332
806.762	27427
806.904	27557
807.046	27941
807.188	27690
807.33	27762
807.472	27903
807.614	27865
807.756	27736
807.898	27701
808.04	27751
808.182	27542
808.324	27701
808.465	27652
808.607	27975
808.749	27964
808.891	28128
809.033	28154
809.174	28040
809.316	27854
809.458	27914
809.6	27956
809.741	28109
809.883	28097
810.025	28207
810.166	28253
810.308	28284
810.45	28265
810.591	28139
810.733	28196
810.875	27922
811.016	27884
811.158	27827
811.299	27975
811.441	28147
811.582	28036
811.724	27922
811.865	27956
812.007	28036
812.148	27941
812.29	28048
812.431	28246
812.573	28257
812.714	28447
812.855	28679
812.997	28607
813.138	28748
813.279	28698
813.421	28481
813.562	28584
813.703	28348
813.845	28177
813.986	27926
814.127	27766
814.268	27789
814.41	27682
814.551	27580
814.692	27603
814.833	27492
814.974	27698
815.115	27599
815.256	27690
815.397	27507
815.539	27568
815.68	27412
815.821	27405
815.962	27420
816.103	27488
816.244	27359
816.385	27332
816.526	27332
816.666	27036
816.807	26937
816.948	26952
817.089	27062
817.23	26982
817.371	27009
817.512	26902
817.653	26868
817.793	26933
817.934	26910
818.075	26849
818.216	26971
818.356	26872
818.497	26826
818.638	26746
818.778	26632
818.919	26746
819.06	26788
819.2	26857
819.341	26925
819.481	26979
819.622	27089
819.762	27249
819.903	27154
820.043	27298
820.184	27081
820.324	27131
820.465	27058
820.605	27001
820.746	27028
820.886	26940
821.026	27051
821.167	26944
821.307	26929
821.447	26963
821.588	26868
821.728	26838
821.868	26632
822.008	26473
822.149	26381
822.289	26469
822.429	26145
822.569	26103
822.709	26153
822.849	25868
822.99	25875
823.13	25883
823.27	25849
823.41	25677
823.55	25738
823.69	25658
823.83	25769
823.97	25814
824.11	25487
824.25	25571
824.389	25506
824.529	25681
824.669	25529
824.809	25670
824.949	25693
825.089	25693
825.228	25597
825.368	25392
825.508	25449
825.648	25457
825.787	25346
825.927	25407
826.067	25445
826.206	25506
826.346	25464
826.485	25544
826.625	25403
826.765	25521
826.904	25403
827.044	25179
827.183	25141
827.323	25084
827.462	25194
827.601	25076
827.741	25152
827.88	25088
828.02	25076
828.159	25206
828.298	25240
828.437	25266
828.577	25042
828.716	25194
828.855	25118
828.994	24726
829.134	24833
829.273	24935
829.412	24757
829.551	24802
829.69	24707
829.829	24897
829.968	24722
830.107	24867
830.246	24871
830.385	24681
830.524	24711
830.663	24505
830.802	24483
830.941	24517
831.08	24517
831.219	24505
831.357	24502
831.496	24631
831.635	24376
831.774	24414
831.913	24308
832.051	24182
832.19	24266
832.329	24216
832.467	24079
832.606	24060
832.744	24045
832.883	24171
833.022	23980
833.16	24125
833.299	24144
833.437	23984
833.576	24125
833.714	24136
833.852	24148
833.991	24205
834.129	24197
834.267	24133
834.406	24167
834.544	24140
834.682	24201
834.821	24186
834.959	24220
835.097	24114
835.235	24079
835.373	24277
835.511	24095
835.65	24015
835.788	23992
835.926	23824
836.064	23855
836.202	23745
836.34	23931
836.478	23965
836.615	23923
836.753	23920
836.891	23935
837.029	23912
837.167	24022
837.305	23980
837.443	23904
837.58	23790
837.718	23851
837.856	23832
837.993	23840
838.131	23703
838.269	23722
838.406	23653
838.544	23608
838.681	23452
838.819	23455
838.956	23265
839.094	23315
839.231	23273
839.369	23440
839.506	23729
839.643	23497
839.781	23261
839.918	23379
840.055	23261
840.193	23364
840.33	23307
840.467	23174
840.604	23269
840.742	23349
840.879	23147
841.016	23124
841.153	23086
841.29	23273
841.427	23067
841.564	23117
841.701	23136
841.838	23159
841.975	23083
842.112	23018
842.249	22972
842.385	23003
842.522	23178
842.659	23098
842.796	22991
842.933	23140
843.069	22873
843.206	22820
843.343	22923
843.479	22965
843.616	22816
843.752	22790
843.889	22713
844.025	22839
844.162	22660
844.298	22862
844.435	22702
844.571	22687
844.708	22805
844.844	22831
844.98	22877
845.117	22733
845.253	22694
845.389	22683
845.525	22531
845.661	22702
845.798	22466
845.934	22557
846.07	22382
846.206	22527
846.342	22615
846.478	22405
846.614	22154
846.75	22131
846.886	22097
847.022	22329
847.158	22090
847.294	22223
847.429	22242
847.565	22173
847.701	22375
847.837	22051
847.972	21903
848.108	22097
848.244	21968
848.379	21857
848.515	21812
848.65	21842
848.786	21774
848.921	21911
849.057	21873
849.192	21873
849.328	21759
849.463	21717
849.598	21671
849.734	21747
849.869	21694
850.004	21458
850.14	21591
850.275	21504
850.41	21519
850.545	21507
850.68	21526
850.815	21610
850.95	21538
851.085	21781
851.22	21736
851.355	21473
851.49	21580
851.625	21606
851.76	21629
851.895	21443
852.03	21492
852.165	21660
852.299	21599
852.434	21603
852.569	21591
852.703	21473
852.838	21557
852.973	21819
853.107	21660
853.242	21469
853.376	21469
853.511	21272
853.645	21287
853.78	21393
853.914	21466
854.048	21412
854.183	21321
854.317	21298
854.451	21523
854.585	21370
854.72	21477
854.854	21454
854.988	21325
855.122	21336
855.256	21222
855.39	21359
855.524	21496
855.658	21370
855.792	21473
855.926	21340
856.06	21382
856.194	21542
856.327	21287
856.461	21211
856.595	21237
856.729	21351
856.862	21374
856.996	21492
857.13	21428
857.263	21504
857.397	21557
857.53	21340
857.664	21389
857.797	21351
857.931	21382
858.064	21374
858.197	21564
858.331	21291
858.464	21298
858.597	21294
858.731	21374
858.864	21291
858.997	21340
859.13	21431
859.263	21412
859.396	21447
859.529	21408
859.662	21405
859.795	21192
859.928	21462
860.061	21477
860.194	21458
860.327	21492
860.46	21348
860.592	21504
860.725	21466
860.858	21568
860.99	21431
861.123	21260
861.256	21260
861.388	21412
861.521	22093
861.653	21195
861.786	21138
861.918	21207
862.05	21222
862.183	21275
862.315	21310
862.447	21291
862.58	21184
862.712	21146
862.844	21047
862.976	21218
863.108	21230
863.24	21572
863.372	21062
863.504	21066
863.636	21131
863.768	21051
863.9	21100
864.032	20990
864.164	20994
864.296	21184
864.428	21074
864.559	21150
864.691	21135
864.823	21180
864.954	21116
865.086	21020
865.217	20887
865.349	20853
865.48	21024
865.612	21077
865.743	21051
865.875	21024
866.006	20834
866.137	20975
866.269	20902
866.4	20857
866.531	20880
866.662	20838
866.793	20933
866.924	20937
867.055	20929
867.186	20861
867.317	20823
867.448	20807
867.579	20891
867.71	20762
867.841	20773
867.972	20834
868.103	20876
868.233	20842
868.364	21036
868.495	20918
868.625	21039
868.756	21192
868.886	21089
869.017	21077
869.147	21100
869.278	21351
869.408	21207
869.539	21157
869.669	21135
869.799	21260
869.929	21237
870.06	21214
870.19	21389
870.32	21515
870.45	21424
870.58	21488
870.71	21629
870.84	21686
870.97	21485
871.1	21500
871.23	21755
871.36	21671
871.489	21610
871.619	21724
871.749	21648
871.879	21781
872.008	21831
872.138	21724
872.267	21652
872.397	21614
872.526	21526
872.656	21591
872.785	21561
872.915	21724
873.044	21804
873.173	21633
873.303	21759
873.432	21732
873.561	21778
873.69	21762
873.819	21675
873.948	21857
874.077	21709
874.206	21648
874.335	21694
874.464	21797
874.593	21937
874.722	21998
874.851	21972
874.979	22063
875.108	21895
875.237	21873
875.365	21968
875.494	21850
875.623	22067
875.751	21873
875.88	22036
876.008	22055
876.136	22120
876.265	22360
876.393	22424
876.521	22390
876.65	22577
876.778	22451
876.906	22226
877.034	22257
877.162	22402
877.29	22352
877.418	22196
877.546	22238
877.674	22246
877.802	22253
877.93	22333
878.058	22230
878.185	22196
878.313	22257
878.441	22215
878.568	22067
878.696	22295
878.824	22470
878.951	22447
879.079	22417
879.206	22573
879.333	22409
879.461	22344
879.588	22379
879.715	22356
879.842	22493
879.97	22390
880.097	22207
880.224	21998
880.351	22200
880.478	22204
880.605	22078
880.732	22181
880.859	22325
880.986	22150
881.112	22185
881.239	21953
881.366	21816
881.493	21766
881.619	21705
881.746	21800
881.872	21694
881.999	21766
882.125	21564
882.252	21778
882.378	21671
882.505	21781
882.631	21515
882.757	21458
882.883	21500
883.01	21431
883.136	21488
883.262	21173
883.388	21218
883.514	21466
883.64	21462
883.766	21310
883.892	21188
884.018	21211
884.143	21374
884.269	21405
884.395	21146
884.52	21089
884.646	21032
884.772	21104
884.897	20956
885.023	21142
885.148	21207
885.274	21211
885.399	21093
885.524	21142
885.65	20998
885.775	21013
885.9	21020
886.025	21142
886.15	21237
886.275	21028
886.4	20990
886.525	21032
886.65	20864
886.775	20857
886.9	21093
887.025	21203
887.149	20986
887.274	20781
887.399	20864
887.523	20792
887.648	20796
887.773	20716
887.897	20975
888.021	20788
888.146	20708
888.27	20937
888.395	20921
888.519	20914
888.643	20902
888.767	20708
888.891	20727
889.015	20499
889.139	20811
889.263	20686
889.387	20655
889.511	20826
889.635	20701
889.759	20571
889.883	20549
890.006	20583
890.13	20815
890.254	20503
890.377	20549
890.501	20320
890.624	20404
890.748	20461
890.871	20256
890.995	20142
891.118	20130
891.241	20248
891.364	20290
891.488	20309
891.611	20206
891.734	20199
891.857	20240
891.98	20199
892.103	20286
892.226	20153
892.349	20084
892.471	20005
892.594	20043
892.717	20126
892.839	20084
892.962	20043
893.085	20180
893.207	20054
893.33	20008
893.452	19982
893.575	20062
893.697	20058
893.819	20202
893.941	20180
894.064	20157
894.186	20008
894.308	20031
894.43	20206
894.552	20320
894.674	20202
894.796	19963
894.918	20020
895.04	20001
895.161	20039
895.283	20195
895.405	20024
895.526	20103
895.648	20069
895.769	20054
895.891	20195
896.012	20103
896.134	20111
896.255	20233
896.376	20054
896.498	20069
896.619	20058
896.74	20062
896.861	20187
896.982	20465
897.103	20613
897.224	20412
897.345	20370
897.466	20271
897.587	20358
897.708	20385
897.828	20305
897.949	20259
898.07	20130
898.19	20149
898.311	20343
898.431	20126
898.552	20385
898.672	20332
898.792	20374
898.913	20244
899.033	20157
899.153	20126
899.273	20122
899.393	20050
899.513	20183
899.633	19997
899.753	20073
899.873	19978
899.993	20088
900.113	20008
900.232	19986
900.352	19989
900.472	19909
900.591	19780
900.711	19890
900.83	19837
900.95	19947
901.069	20016
901.189	19814
901.308	19575
901.427	19422
901.546	19419
901.665	19502
901.784	19483
901.904	19270
902.023	19164
902.141	18913
902.26	18954
902.379	18958
902.498	18954
902.617	18947
902.735	19046
902.854	18867
902.973	18829
903.091	18608
903.21	18582
903.328	18601
903.446	18422
903.565	18380
903.683	18426
903.801	18437
903.919	18224
904.038	18315
904.156	18186
904.274	18186
904.392	18235
904.51	18213
904.627	18232
904.745	18201
904.863	18197
904.981	18034
905.098	17916
905.216	17977
905.334	17874
905.451	17760
905.569	17908
905.686	17954
905.803	17809
905.921	17630
906.038	17798
906.155	17630
906.272	17524
906.389	17596
906.506	17368
906.623	17482
906.74	17197
906.857	17280
906.974	17299
907.091	17471
907.208	17471
907.324	17474
907.441	17208
907.557	17025
907.674	17090
907.79	17090
907.907	17098
908.023	17128
908.139	17136
908.256	17037
908.372	16991
908.488	16892
908.604	16816
908.72	16786
908.836	16866
908.952	16801
909.068	16866
909.184	16869
909.3	16877
909.415	16752
909.531	16801
909.647	16588
909.762	16599
909.878	16538
909.993	16577
910.108	16432
910.224	16470
910.339	16394
910.454	16447
910.57	16386
910.685	16314
910.8	16569
910.915	16451
911.03	16322
911.145	16154
911.259	16173
911.374	16082
911.489	16029
911.604	16025
911.718	15903
911.833	15934
911.947	15804
912.062	15629
912.176	15766
912.291	15918
912.405	15842
912.519	16044
912.633	16097
912.748	15823
912.862	15831
912.976	15713
913.09	15614
913.204	15701
913.318	15648
913.431	15785
913.545	15778
913.659	15781
913.772	15515
913.886	15526
914	15458
914.113	15580
914.226	15610
914.34	15534
914.453	15363
914.566	15469
914.68	15389
914.793	15298
914.906	15131
915.019	15100
915.132	15005
915.245	15127
915.358	15039
915.47	15074
915.583	15104
915.696	15058
915.809	15127
915.921	15203
916.034	14971
916.146	15131
916.259	14937
916.371	15074
916.483	15013
916.595	14960
916.708	14895
916.82	14876
916.932	14823
917.044	14864
917.156	14838
917.268	14777
917.38	14849
917.491	14739
917.603	14815
917.715	14804
917.826	14864
917.938	14556
918.049	14621
918.161	14682
918.272	14834
918.384	14796
918.495	14632
918.606	14522
918.717	14457
918.828	14533
918.939	14632
919.05	14454
919.161	14450
919.272	14309
919.383	14431
919.494	14526
919.604	14670
919.715	14545
919.826	14351
919.936	14575
920.047	14454
920.157	14400
920.267	14602
920.378	14492
920.488	14347
920.598	14651
920.708	14785
920.818	14613
920.928	14610
921.038	14785
921.148	14720
921.258	14438
921.368	14298
921.477	14252
921.587	14259
921.697	14134
921.806	14225
921.916	14031
922.025	13898
922.134	13788
922.244	13837
922.353	13871
922.462	13734
922.571	13639
922.68	13540
922.789	13499
922.898	13495
923.007	13396
923.116	13510
923.224	13468
923.333	13422
923.442	13339
923.55	13346
923.659	13354
923.767	13403
923.876	13285
923.984	13449
924.092	13202
924.201	13285
924.309	13225
924.417	13274
924.525	13149
924.633	13137
924.741	13856
924.849	13008
924.956	13114
925.064	12981
925.172	12817
925.279	12882
925.387	12935
925.494	12916
925.602	13091
925.709	12970
925.816	12787
925.924	12840
926.031	12924
926.138	12829
926.245	12863
926.352	12886
926.459	12894
926.566	12920
926.673	12802
926.779	12593
926.886	12700
926.993	12555
927.099	12445
927.206	12490
927.312	12330
927.419	12547
927.525	12422
927.631	12540
927.737	12365
927.843	12266
927.95	12121
928.056	12323
928.162	12369
928.267	12323
928.373	12962
928.479	12365
928.585	12057
928.69	12254
928.796	12178
928.901	12175
929.007	12007
929.112	12167
929.218	12102
929.323	12049
929.428	11996
929.533	12159
929.638	11980
929.743	12034
929.848	12072
929.953	11882
930.058	11977
930.163	11809
930.267	11707
930.372	11824
930.477	11684
930.581	11901
930.685	11729
930.79	11558
930.894	11672
930.998	11497
931.103	11722
931.207	11299
931.311	11185
931.415	11212
931.519	11018
931.623	10938
