Data from test_V78500241_1717.txt Node
Date: Fri Mar 25 15:21:48 CST 2022
User: usil
Spectrometer: V785-0024
Trigger mode: 0
Integration Time (sec): 4.000000E-1
Scans to average: 1
Nonlinearity correction enabled: false
Boxcar width: 0
Storing dark spectrum: false
XAxis mode: Wavelengths
Number of Pixels in Spectrum: 1024
>>>>>Begin Spectral Data<<<<<
801.071	27751
801.214	27622
801.356	27462
801.499	27272
801.641	27272
801.783	27184
801.926	27401
802.068	27329
802.211	27245
802.353	27131
802.496	27058
802.638	26906
802.78	26921
802.923	26944
803.065	26902
803.208	26975
803.35	26895
803.492	26921
803.635	27116
803.777	26967
803.919	27089
804.061	27317
804.204	27058
804.346	27001
804.488	26986
804.63	27150
804.773	27070
804.915	27028
805.057	27146
805.199	27218
805.341	27211
805.483	27268
805.626	27195
805.768	27070
805.91	27176
806.052	27195
806.194	27089
806.336	27427
806.478	27294
806.62	27226
806.762	27344
806.904	27466
807.046	27766
807.188	27713
807.33	27667
807.472	27785
807.614	27637
807.756	27587
807.898	27359
808.04	27572
808.182	27515
808.324	27473
808.465	27515
808.607	27861
808.749	27884
808.891	27956
809.033	27945
809.174	27865
809.316	27762
809.458	27743
809.6	27873
809.741	27983
809.883	27926
810.025	28055
810.166	27991
810.308	28204
810.45	28078
810.591	28029
810.733	27831
810.875	27888
811.016	27778
811.158	27663
811.299	27895
811.441	28002
811.582	28044
811.724	27918
811.865	27770
812.007	27903
812.148	27842
812.29	27918
812.431	27956
812.573	28162
812.714	28363
812.855	28390
812.997	28413
813.138	28512
813.279	28409
813.421	28344
813.562	28306
813.703	28051
813.845	28010
813.986	27873
814.127	27610
814.268	27545
814.41	27667
814.551	27580
814.692	27701
814.833	27416
814.974	27458
815.115	27466
815.256	27473
815.397	27454
815.539	27416
815.68	27363
815.821	27325
815.962	27237
816.103	27363
816.244	27329
816.385	27077
816.526	27135
816.666	26921
816.807	26792
816.948	26845
817.089	26902
817.23	26739
817.371	26891
817.512	26815
817.653	26834
817.793	26838
817.934	26811
818.075	26902
818.216	26952
818.356	26731
818.497	26640
818.638	26727
818.778	26533
818.919	26545
819.06	26575
819.2	26667
819.341	26830
819.481	26887
819.622	26853
819.762	27310
819.903	26986
820.043	27036
820.184	26948
820.324	26883
820.465	26899
820.605	26887
820.746	26979
820.886	26849
821.026	26876
821.167	26864
821.307	26872
821.447	26864
821.588	26708
821.728	26693
821.868	26594
822.008	26301
822.149	26286
822.289	26210
822.429	26073
822.569	26001
822.709	25974
822.849	25864
822.99	25693
823.13	25723
823.27	25734
823.41	25563
823.55	25529
823.69	25601
823.83	25647
823.97	25552
824.11	25400
824.25	25434
824.389	25529
824.529	25567
824.669	25403
824.809	25628
824.949	25525
825.089	25567
825.228	25544
825.368	25358
825.508	25339
825.648	25297
825.787	25350
825.927	25460
826.067	25335
826.206	25293
826.346	25422
826.485	25247
826.625	25255
826.765	25365
826.904	25331
827.044	24973
827.183	25099
827.323	25019
827.462	25091
827.601	25038
827.741	25084
827.88	25034
828.02	24992
828.159	24939
828.298	25072
828.437	25050
828.577	25050
828.716	25107
828.855	25031
828.994	24677
829.134	24620
829.273	24878
829.412	24631
829.551	24608
829.69	24681
829.829	24802
829.968	24863
830.107	24795
830.246	24696
830.385	24669
830.524	24623
830.663	24563
830.802	24498
830.941	24296
831.08	24319
831.219	24467
831.357	24376
831.496	24574
831.635	24342
831.774	24213
831.913	24205
832.051	24258
832.19	24133
832.329	24167
832.467	24129
832.606	23923
832.744	24068
832.883	24049
833.022	23992
833.16	24110
833.299	24057
833.437	23988
833.576	24083
833.714	24022
833.852	24072
833.991	24076
834.129	24038
834.267	24018
834.406	24072
834.544	24205
834.682	24072
834.821	24072
834.959	24342
835.097	24140
835.235	24167
835.373	23988
835.511	23893
835.65	23965
835.788	23935
835.926	23836
836.064	23767
836.202	23767
836.34	23939
836.478	24003
836.615	23992
836.753	23912
836.891	23984
837.029	23927
837.167	23809
837.305	23935
837.443	23790
837.58	23699
837.718	23790
837.856	23878
837.993	23661
838.131	23687
838.269	23570
838.406	23676
838.544	23585
838.681	23440
838.819	23387
838.956	23189
839.094	23288
839.231	23345
839.369	23395
839.506	23570
839.643	23395
839.781	23372
839.918	23185
840.055	23162
840.193	23345
840.33	23147
840.467	23094
840.604	23086
840.742	23436
840.879	22869
841.016	23147
841.153	23052
841.29	23197
841.427	23220
841.564	23269
841.701	23128
841.838	23098
841.975	22968
842.112	23170
842.249	23006
842.385	22908
842.522	23041
842.659	23014
842.796	22965
842.933	22812
843.069	22816
843.206	22839
843.343	23048
843.479	23056
843.616	23003
843.752	22698
843.889	22748
844.025	22877
844.162	22675
844.298	22877
844.435	22664
844.571	22599
844.708	22782
844.844	22881
844.98	22759
845.117	22812
845.253	22656
845.389	22542
845.525	22637
845.661	22573
845.798	22341
845.934	22417
846.07	22443
846.206	22550
846.342	22466
846.478	22360
846.614	22109
846.75	22143
846.886	22093
847.022	22341
847.158	22287
847.294	22238
847.429	22177
847.565	22090
847.701	22516
847.837	21865
847.972	21892
848.108	21994
848.244	22021
848.379	21823
848.515	21838
848.65	21637
848.786	21747
848.921	21713
849.057	21831
849.192	21880
849.328	21861
849.463	21785
849.598	21679
849.734	21637
849.869	21698
850.004	21454
850.14	21644
850.275	21405
850.41	21401
850.545	21428
850.68	21462
850.815	21576
850.95	21599
851.085	21717
851.22	21652
851.355	21500
851.49	21534
851.625	21386
851.76	21542
851.895	21454
852.03	21466
852.165	21583
852.299	21545
852.434	21572
852.569	21568
852.703	21526
852.838	21595
852.973	21698
853.107	21686
853.242	21450
853.376	21389
853.511	21192
853.645	21355
853.78	21378
853.914	21317
854.048	21214
854.183	21252
854.317	21382
854.451	21386
854.585	21348
854.72	21298
854.854	21393
854.988	21249
855.122	21336
855.256	21192
855.39	21214
855.524	21348
855.658	21408
855.792	21466
855.926	21397
856.06	21435
856.194	21428
856.327	21279
856.461	21233
856.595	21287
856.729	21344
856.862	21378
856.996	21412
857.13	21386
857.263	21454
857.397	21397
857.53	21294
857.664	21218
857.797	21405
857.931	21526
858.064	21348
858.197	21447
858.331	21386
858.464	21230
858.597	21226
858.731	21310
858.864	21245
858.997	21233
859.13	21260
859.263	21393
859.396	21348
859.529	21363
859.662	21275
859.795	21469
859.928	21367
860.061	21473
860.194	21545
860.327	21458
860.46	21370
860.592	21485
860.725	21420
860.858	21542
860.99	21332
861.123	21233
861.256	21241
861.388	21260
861.521	22036
861.653	21294
861.786	21104
861.918	21138
862.05	21214
862.183	21306
862.315	21310
862.447	21252
862.58	21252
862.712	21051
862.844	21036
862.976	20986
863.108	21150
863.24	21443
863.372	20956
863.504	21116
863.636	21013
863.768	20986
863.9	21096
864.032	21005
864.164	20960
864.296	21085
864.428	21127
864.559	21150
864.691	21199
864.823	20990
864.954	20982
865.086	21085
865.217	20929
865.349	20823
865.48	20872
865.612	20868
865.743	20990
865.875	20937
866.006	20963
866.137	20910
866.269	20910
866.4	20861
866.531	20933
866.662	20868
866.793	20849
866.924	20853
867.055	20899
867.186	20891
867.317	20823
867.448	20857
867.579	20834
867.71	20686
867.841	20739
867.972	20921
868.103	20861
868.233	20883
868.364	20758
868.495	20883
868.625	21043
868.756	21199
868.886	21116
869.017	20960
869.147	21241
869.278	21294
869.408	21116
869.539	21154
869.669	21169
869.799	21093
869.929	21275
870.06	21104
870.19	21485
870.32	21363
870.45	21447
870.58	21504
870.71	21671
870.84	21526
870.97	21534
871.1	21545
871.23	21667
871.36	21793
871.489	21599
871.619	21682
871.749	21637
871.879	21736
872.008	21774
872.138	21675
872.267	21625
872.397	21591
872.526	21530
872.656	21595
872.785	21488
872.915	21812
873.044	21857
873.173	21720
873.303	21679
873.432	21648
873.561	21812
873.69	21797
873.819	21762
873.948	21827
874.077	21747
874.206	21701
874.335	21671
874.464	21717
874.593	21975
874.722	21880
874.851	22055
874.979	22048
875.108	21956
875.237	21907
875.365	21785
875.494	21846
875.623	22025
875.751	21884
875.88	22074
876.008	22109
876.136	22006
876.265	22303
876.393	22417
876.521	22409
876.65	22405
876.778	22459
876.906	22341
877.034	22291
877.162	22333
877.29	22299
877.418	22253
877.546	22230
877.674	22352
877.802	22261
877.93	22299
878.058	22257
878.185	22181
878.313	22280
878.441	22249
878.568	22093
878.696	22116
878.824	22356
878.951	22394
879.079	22485
879.206	22622
879.333	22451
879.461	22356
879.588	22367
879.715	22478
879.842	22675
879.97	22303
880.097	22158
880.224	22112
880.351	22185
880.478	22177
880.605	22124
880.732	22223
880.859	22352
880.986	22109
881.112	22086
881.239	21907
881.366	21854
881.493	21717
881.619	21793
881.746	21800
881.872	21644
881.999	21504
882.125	21667
882.252	21667
882.378	21663
882.505	21759
882.631	21557
882.757	21428
882.883	21386
883.01	21386
883.136	21405
883.262	21249
883.388	21207
883.514	21389
883.64	21431
883.766	21195
883.892	21169
884.018	21233
884.143	21355
884.269	21416
884.395	21245
884.52	21020
884.646	21066
884.772	21036
884.897	20842
885.023	21032
885.148	21138
885.274	21313
885.399	21142
885.524	21028
885.65	21062
885.775	21123
885.9	21051
886.025	20998
886.15	21104
886.275	21017
886.4	21077
886.525	21013
886.65	20956
886.775	20975
886.9	21245
887.025	21195
887.149	21024
887.274	20845
887.399	20925
887.523	20758
887.648	20727
887.773	20727
887.897	20902
888.021	20811
888.146	20731
888.27	20994
888.395	20868
888.519	20815
888.643	20857
888.767	20921
888.891	20758
889.015	20651
889.139	20739
889.263	20495
889.387	20682
889.511	20811
889.635	20708
889.759	20651
889.883	20568
890.006	20571
890.13	20648
890.254	20556
890.377	20552
890.501	20305
890.624	20271
890.748	20408
890.871	20286
890.995	20084
891.118	20111
891.241	20263
891.364	20172
891.488	20412
891.611	20069
891.734	20111
891.857	20343
891.98	20275
892.103	20233
892.226	20100
892.349	20202
892.471	19963
892.594	20134
892.717	20107
892.839	20012
892.962	20176
893.085	20092
893.207	20100
893.33	20035
893.452	19986
893.575	20043
893.697	20012
893.819	20221
893.941	20187
894.064	20221
894.186	20069
894.308	20020
894.43	20145
894.552	20202
894.674	20164
894.796	19978
894.918	20065
895.04	20031
895.161	20168
895.283	20115
895.405	20039
895.526	20168
895.648	20027
895.769	20050
895.891	20164
896.012	20107
896.134	20256
896.255	20046
896.376	20039
896.498	20100
896.619	20058
896.74	19974
896.861	20199
896.982	20347
897.103	20609
897.224	20324
897.345	20286
897.466	20172
897.587	20256
897.708	20404
897.828	20347
897.949	20176
898.07	20176
898.19	20221
898.311	20320
898.431	20164
898.552	20267
898.672	20408
898.792	20370
898.913	20286
899.033	20248
899.153	20084
899.273	19925
899.393	19989
899.513	20081
899.633	20084
899.753	20077
899.873	20062
899.993	20130
900.113	19967
900.232	20046
900.352	19909
900.472	19841
900.591	19921
900.711	19746
900.83	19734
900.95	19894
901.069	19856
901.189	19761
901.308	19483
901.427	19339
901.546	19422
901.665	19426
901.784	19422
901.904	19228
902.023	19209
902.141	18886
902.26	18859
902.379	19076
902.498	18932
902.617	18840
902.735	18821
902.854	18916
902.973	18852
903.091	18517
903.21	18536
903.328	18490
903.446	18517
903.565	18357
903.683	18422
903.801	18281
903.919	18414
904.038	18334
904.156	18053
904.274	18273
904.392	18114
904.51	18182
904.627	18232
904.745	18121
904.863	18289
904.981	17996
905.098	17802
905.216	17958
905.334	17821
905.451	17741
905.569	17760
905.686	17901
905.803	17809
905.921	17638
906.038	17646
906.155	17539
906.272	17520
906.389	17535
906.506	17376
906.623	17341
906.74	17383
906.857	17288
906.974	17269
907.091	17417
907.208	17532
907.324	17322
907.441	17185
907.557	17136
907.674	17056
907.79	16938
907.907	17083
908.023	17216
908.139	17193
908.256	16995
908.372	16946
908.488	16946
908.604	16797
908.72	16771
908.836	16740
908.952	16752
909.068	16866
909.184	16782
909.3	16786
909.415	16889
909.531	16755
909.647	16516
909.762	16584
909.878	16550
909.993	16504
910.108	16451
910.224	16459
910.339	16504
910.454	16398
910.57	16352
910.685	16306
910.8	16542
910.915	16379
911.03	16318
911.145	16173
911.259	16048
911.374	16116
911.489	16078
911.604	15911
911.718	15865
911.833	15899
911.947	15793
912.062	15641
912.176	15835
912.291	15808
912.405	15861
912.519	16040
912.633	16059
912.748	15899
912.862	15838
912.976	15720
913.09	15507
913.204	15614
913.318	15629
913.431	15759
913.545	15739
913.659	15755
913.772	15641
913.886	15542
914	15469
914.113	15641
914.226	15641
914.34	15439
914.453	15325
914.566	15511
914.68	15256
914.793	15260
914.906	15051
915.019	15135
915.132	15017
915.245	14971
915.358	15150
915.47	15108
915.583	15058
915.696	15119
915.809	15154
915.921	15211
916.034	15036
916.146	14979
916.259	15001
916.371	15081
916.483	15055
916.595	14883
916.708	14823
916.82	14880
916.932	14845
917.044	14800
917.156	14830
917.268	14781
917.38	14750
917.491	14693
917.603	14697
917.715	14746
917.826	14815
917.938	14632
918.049	14610
918.161	14670
918.272	14720
918.384	14739
918.495	14655
918.606	14556
918.717	14423
918.828	14560
918.939	14568
919.05	14336
919.161	14419
919.272	14233
919.383	14301
919.494	14488
919.604	14648
919.715	14507
919.826	14396
919.936	14469
920.047	14568
920.157	14488
920.267	14720
920.378	14366
920.488	14438
920.598	14564
920.708	14731
920.818	14583
920.928	14541
921.038	14762
921.148	14686
921.258	14366
921.368	14210
921.477	14153
921.587	14313
921.697	14046
921.806	14218
921.916	14001
922.025	13826
922.134	13833
922.244	13841
922.353	13951
922.462	13624
922.571	13624
922.68	13518
922.789	13464
922.898	13540
923.007	13400
923.116	13502
923.224	13510
923.333	13457
923.442	13369
923.55	13324
923.659	13304
923.767	13346
923.876	13304
923.984	13377
924.092	13232
924.201	13259
924.309	13198
924.417	13274
924.525	13114
924.633	13198
924.741	13925
924.849	12981
924.956	12973
925.064	12989
925.172	12863
925.279	12909
925.387	12867
925.494	12916
925.602	12913
925.709	12878
925.816	12738
925.924	12856
926.031	12848
926.138	12863
926.245	12932
926.352	12760
926.459	12947
926.566	12852
926.673	12757
926.779	12696
926.886	12563
926.993	12582
927.099	12490
927.206	12391
927.312	12429
927.419	12486
927.525	12506
927.631	12452
927.737	12319
927.843	12311
927.95	12209
928.056	12228
928.162	12254
928.267	12330
928.373	12954
928.479	12441
928.585	12053
928.69	12224
928.796	12235
928.901	12106
929.007	12068
929.112	12136
929.218	12053
929.323	11996
929.428	12019
929.533	12102
929.638	11813
929.743	11977
929.848	11980
929.953	11954
930.058	11885
930.163	11676
930.267	11657
930.372	11897
930.477	11623
930.581	11927
930.685	11790
930.79	11596
930.894	11547
930.998	11592
931.103	11741
931.207	11391
931.311	11223
931.415	11193
931.519	11003
931.623	10892
