Data from test_V78500241_796.txt Node
Date: Fri Mar 25 15:15:24 CST 2022
User: usil
Spectrometer: V785-0024
Trigger mode: 0
Integration Time (sec): 4.000000E-1
Scans to average: 1
Nonlinearity correction enabled: false
Boxcar width: 0
Storing dark spectrum: false
XAxis mode: Wavelengths
Number of Pixels in Spectrum: 1024
>>>>>Begin Spectral Data<<<<<
801.071	28329
801.214	28177
801.356	28010
801.499	28021
801.641	27827
801.783	27865
801.926	27918
802.068	27816
802.211	27701
802.353	27816
802.496	27618
802.638	27603
802.78	27481
802.923	27591
803.065	27511
803.208	27583
803.35	27534
803.492	27648
803.635	27747
803.777	27618
803.919	27770
804.061	28150
804.204	27724
804.346	27610
804.488	27663
804.63	27705
804.773	27641
804.915	27774
805.057	27751
805.199	27732
805.341	27785
805.483	27937
805.626	27873
805.768	27762
805.91	27774
806.052	27876
806.194	27739
806.336	27895
806.478	27880
806.62	28044
806.762	28017
806.904	28166
807.046	28459
807.188	28280
807.33	28360
807.472	28356
807.614	28177
807.756	28162
807.898	28169
808.04	28169
808.182	28078
808.324	28173
808.465	28181
808.607	28523
808.749	28630
808.891	28474
809.033	28828
809.174	28607
809.316	28603
809.458	28493
809.6	28375
809.741	28565
809.883	28733
810.025	28888
810.166	28957
810.308	28729
810.45	28850
810.591	28550
810.733	28615
810.875	28557
811.016	28478
811.158	28363
811.299	28557
811.441	28755
811.582	28698
811.724	28660
811.865	28607
812.007	28645
812.148	28554
812.29	28542
812.431	28873
812.573	28976
812.714	29044
812.855	29064
812.997	29117
813.138	29261
813.279	29372
813.421	29102
813.562	29143
813.703	28980
813.845	28900
813.986	28455
814.127	28519
814.268	28211
814.41	28196
814.551	28341
814.692	28322
814.833	28242
814.974	28291
815.115	28234
815.256	28158
815.397	28109
815.539	28192
815.68	27987
815.821	28116
815.962	28021
816.103	28192
816.244	27994
816.385	27892
816.526	27835
816.666	27652
816.807	27549
816.948	27587
817.089	27663
817.23	27679
817.371	27583
817.512	27625
817.653	27705
817.793	27420
817.934	27534
818.075	27743
818.216	27641
818.356	27545
818.497	27408
818.638	27370
818.778	27363
818.919	27325
819.06	27325
819.2	27492
819.341	27656
819.481	27519
819.622	27770
819.762	27949
819.903	27793
820.043	27720
820.184	27766
820.324	27618
820.465	27793
820.605	27720
820.746	27549
820.886	27686
821.026	27759
821.167	27504
821.307	27709
821.447	27568
821.588	27511
821.728	27450
821.868	27150
822.008	27085
822.149	27161
822.289	26982
822.429	26724
822.569	26880
822.709	26701
822.849	26644
822.99	26625
823.13	26545
823.27	26450
823.41	26431
823.55	26263
823.69	26438
823.83	26480
823.97	26366
824.11	26176
824.25	26111
824.389	26153
824.529	26377
824.669	26134
824.809	26328
824.949	26153
825.089	26320
825.228	26298
825.368	26020
825.508	26088
825.648	26126
825.787	26050
825.927	26176
826.067	26092
826.206	26046
826.346	26210
826.485	26202
826.625	26077
826.765	26256
826.904	26081
827.044	25970
827.183	25940
827.323	25795
827.462	25826
827.601	25860
827.741	25788
827.88	25753
828.02	25582
828.159	25685
828.298	25898
828.437	25814
828.577	25761
828.716	25871
828.855	25704
828.994	25479
829.134	25518
829.273	25620
829.412	25556
829.551	25457
829.69	25407
829.829	25533
829.968	25502
830.107	25594
830.246	25559
830.385	25320
830.524	25434
830.663	25377
830.802	25217
830.941	25050
831.08	25107
831.219	25232
831.357	25221
831.496	25419
831.635	25263
831.774	25107
831.913	24977
832.051	24825
832.19	24837
832.329	24943
832.467	24825
832.606	24722
832.744	24745
832.883	24722
833.022	24821
833.16	24821
833.299	24848
833.437	24791
833.576	24760
833.714	24856
833.852	24928
833.991	24757
834.129	24859
834.267	24821
834.406	24859
834.544	24871
834.682	24814
834.821	24863
834.959	25034
835.097	24863
835.235	24802
835.373	24871
835.511	24821
835.65	24707
835.788	24635
835.926	24536
836.064	24399
836.202	24380
836.34	24715
836.478	24768
836.615	24730
836.753	24631
836.891	24814
837.029	24741
837.167	24669
837.305	24574
837.443	24601
837.58	24441
837.718	24578
837.856	24467
837.993	24479
838.131	24346
838.269	24467
838.406	24311
838.544	24251
838.681	24133
838.819	24133
838.956	23916
839.094	23908
839.231	23912
839.369	24079
839.506	24330
839.643	24247
839.781	23965
839.918	23779
840.055	23859
840.193	24011
840.33	23859
840.467	23935
840.604	23847
840.742	24194
840.879	23813
841.016	23733
841.153	23794
841.29	23904
841.427	23843
841.564	23908
841.701	23904
841.838	23843
841.975	23741
842.112	23661
842.249	23684
842.385	23695
842.522	23832
842.659	23653
842.796	23520
842.933	23729
843.069	23547
843.206	23573
843.343	23668
843.479	23562
843.616	23646
843.752	23341
843.889	23452
844.025	23547
844.162	23303
844.298	23528
844.435	23341
844.571	23299
844.708	23417
844.844	23547
844.98	23611
845.117	23551
845.253	23288
845.389	23292
845.525	23368
845.661	23296
845.798	23181
845.934	23231
846.07	23117
846.206	23353
846.342	23162
846.478	23124
846.614	23025
846.75	22816
846.886	22816
847.022	22919
847.158	22862
847.294	22839
847.429	22873
847.565	22866
847.701	23117
847.837	22645
847.972	22474
848.108	22641
848.244	22672
848.379	22577
848.515	22603
848.65	22516
848.786	22504
848.921	22474
849.057	22402
849.192	22466
849.328	22394
849.463	22497
849.598	22360
849.734	22257
849.869	22303
850.004	22284
850.14	22280
850.275	22413
850.41	22188
850.545	22257
850.68	22238
850.815	22303
850.95	22242
851.085	22310
851.22	22310
851.355	22135
851.49	22295
851.625	22139
851.76	22101
851.895	22188
852.03	22143
852.165	22124
852.299	22234
852.434	22299
852.569	22268
852.703	22177
852.838	22223
852.973	22261
853.107	22398
853.242	22162
853.376	22017
853.511	21937
853.645	22139
853.78	22253
853.914	22013
854.048	22029
854.183	22048
854.317	21975
854.451	22185
854.585	22055
854.72	21972
854.854	22048
854.988	21827
855.122	22006
855.256	21892
855.39	21903
855.524	22131
855.658	21994
855.792	21956
855.926	21926
856.06	22082
856.194	21994
856.327	21869
856.461	21972
856.595	21972
856.729	21991
856.862	22169
856.996	22097
857.13	22070
857.263	22090
857.397	22078
857.53	21941
857.664	22040
857.797	22120
857.931	22101
858.064	22002
858.197	22135
858.331	21994
858.464	21979
858.597	21926
858.731	21994
858.864	21949
858.997	21926
859.13	22021
859.263	22002
859.396	22063
859.529	21945
859.662	21941
859.795	21937
859.928	21964
860.061	22223
860.194	22219
860.327	22097
860.46	22124
860.592	22200
860.725	22249
860.858	22169
860.99	22002
861.123	22002
861.256	21964
861.388	22086
861.521	22687
861.653	21831
861.786	21770
861.918	21812
862.05	21937
862.183	21895
862.315	21930
862.447	22044
862.58	22006
862.712	21778
862.844	21747
862.976	21694
863.108	21774
863.24	22150
863.372	21713
863.504	21656
863.636	21648
863.768	21648
863.9	21637
864.032	21625
864.164	21717
864.296	21835
864.428	21766
864.559	21736
864.691	21633
864.823	21762
864.954	21793
865.086	21751
865.217	21660
865.349	21587
865.48	21591
865.612	21648
865.743	21732
865.875	21637
866.006	21614
866.137	21679
866.269	21538
866.4	21553
866.531	21545
866.662	21553
866.793	21492
866.924	21545
867.055	21473
867.186	21633
867.317	21534
867.448	21416
867.579	21481
867.71	21496
867.841	21374
867.972	21583
868.103	21530
868.233	21587
868.364	21553
868.495	21557
868.625	21679
868.756	21865
868.886	21625
869.017	21789
869.147	21846
869.278	21873
869.408	21686
869.539	21751
869.669	21873
869.799	21797
869.929	21823
870.06	21945
870.19	21960
870.32	22097
870.45	22154
870.58	22067
870.71	22276
870.84	22360
870.97	22124
871.1	22177
871.23	22299
871.36	22337
871.489	22303
871.619	22371
871.749	22379
871.879	22299
872.008	22478
872.138	22314
872.267	22512
872.397	22284
872.526	22162
872.656	22185
872.785	22204
872.915	22322
873.044	22413
873.173	22440
873.303	22432
873.432	22447
873.561	22417
873.69	22405
873.819	22276
873.948	22516
874.077	22443
874.206	22318
874.335	22409
874.464	22443
874.593	22535
874.722	22599
874.851	22675
874.979	22611
875.108	22626
875.237	22622
875.365	22443
875.494	22557
875.623	22634
875.751	22516
875.88	22561
876.008	22641
876.136	22725
876.265	22961
876.393	23170
876.521	23052
876.65	23166
876.778	23006
876.906	22919
877.034	23018
877.162	22938
877.29	22786
877.418	22949
877.546	22900
877.674	22957
877.802	22892
877.93	22900
878.058	22908
878.185	22752
878.313	22755
878.441	22938
878.568	22778
878.696	22828
878.824	22869
878.951	23025
879.079	23124
879.206	23193
879.333	22976
879.461	23029
879.588	22942
879.715	23113
879.842	23239
879.97	23003
880.097	22820
880.224	22797
880.351	22797
880.478	22630
880.605	22702
880.732	22694
880.859	22873
880.986	22862
881.112	22710
881.239	22675
881.366	22561
881.493	22333
881.619	22303
881.746	22424
881.872	22504
881.999	22295
882.125	22299
882.252	22337
882.378	22249
882.505	22386
882.631	22173
882.757	22032
882.883	22067
883.01	21968
883.136	22021
883.262	21804
883.388	21873
883.514	22105
883.64	22010
883.766	21956
883.892	21823
884.018	21819
884.143	21949
884.269	22048
884.395	21850
884.52	21679
884.646	21770
884.772	21587
884.897	21462
885.023	21591
885.148	21694
885.274	21797
885.399	21679
885.524	21747
885.65	21553
885.775	21679
885.9	21564
886.025	21694
886.15	21679
886.275	21610
886.4	21507
886.525	21496
886.65	21583
886.775	21511
886.9	21682
887.025	21827
887.149	21564
887.274	21378
887.399	21249
887.523	21355
887.648	21397
887.773	21199
887.897	21530
888.021	21428
888.146	21313
888.27	21439
888.395	21469
888.519	21306
888.643	21367
888.767	21439
888.891	21264
889.015	21249
889.139	21325
889.263	21169
889.387	21264
889.511	21397
889.635	21340
889.759	21287
889.883	21161
890.006	21150
890.13	21226
890.254	21222
890.377	21116
890.501	20929
890.624	20811
890.748	21017
890.871	20838
890.995	20796
891.118	20629
891.241	20701
891.364	20773
891.488	20868
891.611	20868
891.734	20773
891.857	20807
891.98	20781
892.103	20796
892.226	20769
892.349	20701
892.471	20552
892.594	20659
892.717	20621
892.839	20686
892.962	20617
893.085	20834
893.207	20686
893.33	20480
893.452	20560
893.575	20727
893.697	20655
893.819	20686
893.941	20891
894.064	20727
894.186	20632
894.308	20716
894.43	20743
894.552	20743
894.674	20655
894.796	20648
894.918	20537
895.04	20663
895.161	20708
895.283	20739
895.405	20644
895.526	20629
895.648	20560
895.769	20556
895.891	20716
896.012	20788
896.134	20686
896.255	20716
896.376	20594
896.498	20564
896.619	20594
896.74	20621
896.861	20663
896.982	20891
897.103	21051
897.224	20849
897.345	20781
897.466	20811
897.587	20872
897.708	20941
897.828	20785
897.949	20800
898.07	20724
898.19	20868
898.311	20864
898.431	20739
898.552	20823
898.672	20963
898.792	20918
898.913	20914
899.033	20815
899.153	20640
899.273	20545
899.393	20606
899.513	20629
899.633	20480
899.753	20541
899.873	20556
899.993	20507
900.113	20560
900.232	20549
900.352	20412
900.472	20355
900.591	20377
900.711	20317
900.83	20275
900.95	20465
901.069	20495
901.189	20313
901.308	20046
901.427	20012
901.546	19932
901.665	20008
901.784	19875
901.904	19852
902.023	19868
902.141	19559
902.26	19540
902.379	19540
902.498	19403
902.617	19480
902.735	19411
902.854	19396
902.973	19388
903.091	19095
903.21	19190
903.328	19160
903.446	19038
903.565	18894
903.683	18973
903.801	18806
903.919	18878
904.038	18951
904.156	18612
904.274	18711
904.392	18635
904.51	18677
904.627	18623
904.745	18593
904.863	18734
904.981	18467
905.098	18342
905.216	18270
905.334	18350
905.451	18456
905.569	18334
905.686	18365
905.803	18311
905.921	18194
906.038	18201
906.155	18079
906.272	17973
906.389	18026
906.506	17897
906.623	17870
906.74	17912
906.857	17680
906.974	17718
907.091	17920
907.208	18019
907.324	17893
907.441	17859
907.557	17630
907.674	17478
907.79	17581
907.907	17596
908.023	17581
908.139	17649
908.256	17535
908.372	17448
908.488	17391
908.604	17318
908.72	17280
908.836	17330
908.952	17235
909.068	17284
909.184	17254
909.3	17220
909.415	17311
909.531	17216
909.647	17048
909.762	16961
909.878	16911
909.993	17048
910.108	16995
910.224	16976
910.339	17052
910.454	16911
910.57	16828
910.685	16664
910.8	16968
910.915	16934
911.03	16763
911.145	16679
911.259	16500
911.374	16554
911.489	16424
911.604	16508
911.718	16341
911.833	16341
911.947	16246
912.062	16063
912.176	16303
912.291	16432
912.405	16234
912.519	16382
912.633	16360
912.748	16398
912.862	16306
912.976	16215
913.09	16082
913.204	16025
913.318	16067
913.431	16181
913.545	16246
913.659	16253
913.772	16109
913.886	15975
914	15876
914.113	15945
914.226	15949
914.34	16002
914.453	15736
914.566	15960
914.68	15857
914.793	15861
914.906	15637
915.019	15507
915.132	15507
915.245	15564
915.358	15591
915.47	15534
915.583	15450
915.696	15492
915.809	15648
915.921	15568
916.034	15584
916.146	15386
916.259	15408
916.371	15530
916.483	15458
916.595	15264
916.708	15351
916.82	15310
916.932	15359
917.044	15310
917.156	15313
917.268	15211
917.38	15218
917.491	15211
917.603	15222
917.715	15222
917.826	15180
917.938	15112
918.049	15055
918.161	15112
918.272	15294
918.384	15226
918.495	15100
918.606	14883
918.717	14883
918.828	14948
918.939	14910
919.05	14868
919.161	14834
919.272	14613
919.383	14777
919.494	14933
919.604	15097
919.715	14925
919.826	14819
919.936	14834
920.047	14960
920.157	14842
920.267	15028
920.378	14887
920.488	14857
920.598	15055
920.708	15112
920.818	14937
920.928	14998
921.038	15165
921.148	15119
921.258	14788
921.368	14758
921.477	14579
921.587	14590
921.697	14495
921.806	14651
921.916	14438
922.025	14275
922.134	14351
922.244	14164
922.353	14233
922.462	14103
922.571	14035
922.68	13852
922.789	13837
922.898	13917
923.007	13871
923.116	13871
923.224	13795
923.333	13849
923.442	13738
923.55	13639
923.659	13757
923.767	13704
923.876	13651
923.984	13651
924.092	13590
924.201	13738
924.309	13518
924.417	13552
924.525	13620
924.633	13464
924.741	14328
924.849	13388
924.956	13464
925.064	13343
925.172	13236
925.279	13206
925.387	13422
925.494	13228
925.602	13453
925.709	13324
925.816	13091
925.924	13263
926.031	13301
926.138	13190
926.245	13285
926.352	13156
926.459	13225
926.566	13259
926.673	13084
926.779	13008
926.886	12928
926.993	12760
927.099	12856
927.206	12787
927.312	12787
927.419	12806
927.525	12768
927.631	12745
927.737	12673
927.843	12669
927.95	12551
928.056	12642
928.162	12623
928.267	12642
928.373	13350
928.479	12612
928.585	12597
928.69	12593
928.796	12631
928.901	12407
929.007	12365
929.112	12452
929.218	12471
929.323	12346
929.428	12315
929.533	12418
929.638	12342
929.743	12315
929.848	12414
929.953	12281
930.058	12247
930.163	12007
930.267	12022
930.372	12235
930.477	11961
930.581	12152
930.685	12091
930.79	11958
930.894	11870
930.998	11824
931.103	12026
931.207	11722
931.311	11543
931.415	11512
931.519	11269
931.623	11254
