Data from test_V78500241_366.txt Node
Date: Fri Mar 25 15:12:24 CST 2022
User: usil
Spectrometer: V785-0024
Trigger mode: 0
Integration Time (sec): 4.000000E-1
Scans to average: 1
Nonlinearity correction enabled: false
Boxcar width: 0
Storing dark spectrum: false
XAxis mode: Wavelengths
Number of Pixels in Spectrum: 1024
>>>>>Begin Spectral Data<<<<<
801.071	26883
801.214	26994
801.356	26781
801.499	26541
801.641	26446
801.783	26526
801.926	26602
802.068	26659
802.211	26431
802.353	26343
802.496	26366
802.638	26199
802.78	26244
802.923	26077
803.065	26149
803.208	26126
803.35	26206
803.492	26313
803.635	26355
803.777	26252
803.919	26343
804.061	26724
804.204	26271
804.346	26214
804.488	26290
804.63	26122
804.773	26210
804.915	26195
805.057	26465
805.199	26202
805.341	26469
805.483	26396
805.626	26393
805.768	26210
805.91	26377
806.052	26446
806.194	26385
806.336	26594
806.478	26385
806.62	26499
806.762	26488
806.904	26617
807.046	26815
807.188	26819
807.33	26746
807.472	27009
807.614	26758
807.756	26777
807.898	26560
808.04	26659
808.182	26693
808.324	26579
808.465	26758
808.607	26826
808.749	26735
808.891	26864
809.033	27070
809.174	27104
809.316	26975
809.458	26868
809.6	27047
809.741	26994
809.883	27169
810.025	27188
810.166	27096
810.308	27256
810.45	27180
810.591	27268
810.733	27096
810.875	26872
811.016	26906
811.158	26785
811.299	26929
811.441	27058
811.582	27188
811.724	26899
811.865	27005
812.007	26891
812.148	26902
812.29	27017
812.431	27112
812.573	27195
812.714	27203
812.855	27355
812.997	27549
813.138	27778
813.279	27466
813.421	27454
813.562	27447
813.703	27351
813.845	27180
813.986	26739
814.127	26769
814.268	26625
814.41	26632
814.551	26636
814.692	26602
814.833	26670
814.974	26541
815.115	26712
815.256	26507
815.397	26484
815.539	26450
815.68	26362
815.821	26442
815.962	26450
816.103	26305
816.244	26229
816.385	26248
816.526	26081
816.666	25887
816.807	25860
816.948	25982
817.089	25959
817.23	26001
817.371	25898
817.512	25932
817.653	25871
817.793	25856
817.934	25894
818.075	25993
818.216	25879
818.356	25788
818.497	25750
818.638	25635
818.778	25613
818.919	25647
819.06	25746
819.2	25727
819.341	25799
819.481	25928
819.622	25837
819.762	26183
819.903	26077
820.043	26107
820.184	25936
820.324	26016
820.465	25944
820.605	25982
820.746	25944
820.886	25940
821.026	26065
821.167	25940
821.307	25932
821.447	25970
821.588	25856
821.728	25670
821.868	25487
822.008	25343
822.149	25346
822.289	25324
822.429	24920
822.569	25107
822.709	25114
822.849	24764
822.99	24787
823.13	24768
823.27	24798
823.41	24661
823.55	24376
823.69	24574
823.83	24544
823.97	24570
824.11	24490
824.25	24452
824.389	24346
824.529	24563
824.669	24517
824.809	24688
824.949	24395
825.089	24604
825.228	24475
825.368	24350
825.508	24376
825.648	24407
825.787	24357
825.927	24388
826.067	24243
826.206	24372
826.346	24414
826.485	24357
826.625	24323
826.765	24464
826.904	24369
827.044	24076
827.183	24102
827.323	24087
827.462	24133
827.601	24064
827.741	24076
827.88	23980
828.02	23893
828.159	24060
828.298	24079
828.437	24095
828.577	24007
828.716	24159
828.855	23950
828.994	23866
829.134	23794
829.273	23802
829.412	23859
829.551	23630
829.69	23771
829.829	23737
829.968	23737
830.107	23752
830.246	23695
830.385	23615
830.524	23748
830.663	23592
830.802	23440
830.941	23364
831.08	23288
831.219	23535
831.357	23395
831.496	23695
831.635	23425
831.774	23383
831.913	23212
832.051	23269
832.19	23242
832.329	23178
832.467	23181
832.606	23216
832.744	23075
832.883	23060
833.022	23075
833.16	23132
833.299	23117
833.437	23121
833.576	23170
833.714	23242
833.852	23250
833.991	23269
834.129	23151
834.267	23261
834.406	23220
834.544	23140
834.682	23128
834.821	23090
834.959	23292
835.097	23140
835.235	23166
835.373	22972
835.511	23098
835.65	22927
835.788	22972
835.926	22892
836.064	22824
836.202	22885
836.34	23048
836.478	23102
836.615	22987
836.753	23052
836.891	23010
837.029	23105
837.167	23018
837.305	22919
837.443	22991
837.58	22919
837.718	22930
837.856	23029
837.993	22793
838.131	22877
838.269	22592
838.406	22748
838.544	22664
838.681	22485
838.819	22493
838.956	22379
839.094	22344
839.231	22462
839.369	22531
839.506	22698
839.643	22645
839.781	22398
839.918	22257
840.055	22341
840.193	22204
840.33	22322
840.467	22219
840.604	22451
840.742	22546
840.879	22040
841.016	22200
841.153	22226
841.29	22451
841.427	22246
841.564	22272
841.701	22154
841.838	22158
841.975	22211
842.112	22124
842.249	22063
842.385	22029
842.522	22192
842.659	22044
842.796	21911
842.933	22124
843.069	21937
843.206	21930
843.343	21983
843.479	21937
843.616	21953
843.752	21892
843.889	21915
844.025	22082
844.162	21869
844.298	21823
844.435	21713
844.571	21751
844.708	21759
844.844	21968
844.98	22036
845.117	21922
845.253	21728
845.389	21595
845.525	21759
845.661	21701
845.798	21431
845.934	21580
846.07	21492
846.206	21534
846.342	21633
846.478	21587
846.614	21317
846.75	21260
846.886	21157
847.022	21344
847.158	21207
847.294	21252
847.429	21332
847.565	21264
847.701	21591
847.837	21039
847.972	21028
848.108	21058
848.244	21119
848.379	20994
848.515	20948
848.65	21001
848.786	20941
848.921	20921
849.057	21093
849.192	20979
849.328	20906
849.463	20921
849.598	20849
849.734	20880
849.869	20781
850.004	20689
850.14	20777
850.275	20613
850.41	20552
850.545	20564
850.68	20514
850.815	20682
850.95	20686
851.085	20743
851.22	20705
851.355	20636
851.49	20678
851.625	20549
851.76	20594
851.895	20556
852.03	20438
852.165	20644
852.299	20621
852.434	20708
852.569	20762
852.703	20720
852.838	20746
852.973	20758
853.107	20811
853.242	20598
853.376	20545
853.511	20442
853.645	20355
853.78	20560
853.914	20545
854.048	20415
854.183	20419
854.317	20507
854.451	20568
854.585	20473
854.72	20374
854.854	20503
854.988	20461
855.122	20446
855.256	20419
855.39	20549
855.524	20545
855.658	20674
855.792	20457
855.926	20457
856.06	20438
856.194	20552
856.327	20507
856.461	20396
856.595	20362
856.729	20590
856.862	20587
856.996	20511
857.13	20549
857.263	20625
857.397	20473
857.53	20457
857.664	20568
857.797	20450
857.931	20552
858.064	20530
858.197	20552
858.331	20473
858.464	20484
858.597	20366
858.731	20469
858.864	20442
858.997	20423
859.13	20457
859.263	20442
859.396	20537
859.529	20374
859.662	20358
859.795	20495
859.928	20564
860.061	20587
860.194	20587
860.327	20514
860.46	20366
860.592	20621
860.725	20636
860.858	20609
860.99	20419
861.123	20355
861.256	20431
861.388	20560
861.521	21051
861.653	20374
861.786	20237
861.918	20309
862.05	20377
862.183	20492
862.315	20480
862.447	20434
862.58	20324
862.712	20267
862.844	20069
862.976	20271
863.108	20244
863.24	20606
863.372	20043
863.504	20221
863.636	20183
863.768	20278
863.9	20187
864.032	20142
864.164	20195
864.296	20252
864.428	20218
864.559	20244
864.691	20225
864.823	20210
864.954	20115
865.086	20240
865.217	20081
865.349	19974
865.48	20157
865.612	20153
865.743	20294
865.875	20157
866.006	20050
866.137	20073
866.269	20084
866.4	20001
866.531	19928
866.662	20001
866.793	19951
866.924	20103
867.055	20024
867.186	19959
867.317	19951
867.448	20005
867.579	20043
867.71	20073
867.841	19959
867.972	20088
868.103	20043
868.233	20054
868.364	20191
868.495	20054
868.625	20328
868.756	20423
868.886	20096
869.017	20252
869.147	20404
869.278	20282
869.408	20275
869.539	20271
869.669	20343
869.799	20259
869.929	20423
870.06	20305
870.19	20518
870.32	20686
870.45	20670
870.58	20796
870.71	20712
870.84	20769
870.97	20651
871.1	20708
871.23	20781
871.36	20891
871.489	20712
871.619	20838
871.749	20864
871.879	20895
872.008	20963
872.138	20944
872.267	20887
872.397	20743
872.526	20754
872.656	20708
872.785	20636
872.915	21066
873.044	20941
873.173	21036
873.303	20948
873.432	20868
873.561	20956
873.69	20891
873.819	20838
873.948	20990
874.077	20842
874.206	20765
874.335	20868
874.464	21001
874.593	21169
874.722	21119
874.851	21218
874.979	21294
875.108	21291
875.237	21165
875.365	21043
875.494	21066
875.623	21272
875.751	21192
875.88	21192
876.008	21291
876.136	21302
876.265	21477
876.393	21557
876.521	21637
876.65	21568
876.778	21488
876.906	21511
877.034	21568
877.162	21526
877.29	21466
877.418	21496
877.546	21561
877.674	21492
877.802	21542
877.93	21439
878.058	21519
878.185	21458
878.313	21408
878.441	21469
878.568	21268
878.696	21317
878.824	21504
878.951	21633
879.079	21568
879.206	21778
879.333	21553
879.461	21511
879.588	21652
879.715	21523
879.842	21892
879.97	21492
880.097	21313
880.224	21351
880.351	21397
880.478	21287
880.605	21420
880.732	21420
880.859	21591
880.986	21264
881.112	21355
881.239	21112
881.366	21142
881.493	21036
881.619	21028
881.746	20948
881.872	20918
881.999	20811
882.125	20724
882.252	20910
882.378	20918
882.505	21058
882.631	20842
882.757	20598
882.883	20686
883.01	20731
883.136	20549
883.262	20636
883.388	20377
883.514	20720
883.64	20640
883.766	20545
883.892	20362
884.018	20469
884.143	20571
884.269	20682
884.395	20389
884.52	20229
884.646	20183
884.772	20180
884.897	20244
885.023	20278
885.148	20320
885.274	20480
885.399	20259
885.524	20309
885.65	20176
885.775	20259
885.9	20221
886.025	20370
886.15	20343
886.275	20309
886.4	20161
886.525	20103
886.65	20161
886.775	20157
886.9	20393
887.025	20374
887.149	20229
887.274	19959
887.399	20172
887.523	20027
887.648	20043
887.773	20035
887.897	20119
888.021	20081
888.146	19894
888.27	20092
888.395	20115
888.519	20054
888.643	20065
888.767	20043
888.891	20008
889.015	19784
889.139	19883
889.263	19845
889.387	20027
889.511	19944
889.635	20043
889.759	19757
889.883	19898
890.006	19738
890.13	19871
890.254	19723
890.377	19723
890.501	19506
890.624	19521
890.748	19731
890.871	19480
890.995	19441
891.118	19415
891.241	19346
891.364	19499
891.488	19506
891.611	19472
891.734	19487
891.857	19518
891.98	19419
892.103	19487
892.226	19422
892.349	19426
892.471	19240
892.594	19388
892.717	19388
892.839	19392
892.962	19415
893.085	19487
893.207	19422
893.33	19217
893.452	19285
893.575	19407
893.697	19331
893.819	19563
893.941	19601
894.064	19525
894.186	19316
894.308	19316
894.43	19472
894.552	19468
894.674	19354
894.796	19343
894.918	19396
895.04	19308
895.161	19441
895.283	19346
895.405	19213
895.526	19491
895.648	19274
895.769	19438
895.891	19392
896.012	19472
896.134	19499
896.255	19400
896.376	19312
896.498	19362
896.619	19365
896.74	19331
896.861	19457
896.982	19616
897.103	19849
897.224	19712
897.345	19605
897.466	19495
897.587	19620
897.708	19677
897.828	19487
897.949	19567
898.07	19415
898.19	19510
898.311	19704
898.431	19537
898.552	19594
898.672	19727
898.792	19651
898.913	19544
899.033	19559
899.153	19419
899.273	19320
899.393	19289
899.513	19407
899.633	19521
899.753	19495
899.873	19194
899.993	19445
900.113	19282
900.232	19354
900.352	19225
900.472	19251
900.591	19050
900.711	19061
900.83	19061
900.95	19236
901.069	19122
901.189	19000
901.308	18783
901.427	18734
901.546	18730
901.665	18745
901.784	18768
901.904	18627
902.023	18551
902.141	18247
902.26	18247
902.379	18372
902.498	18220
902.617	18262
902.735	18247
902.854	18281
902.973	18072
903.091	17908
903.21	17866
903.328	17870
903.446	17923
903.565	17733
903.683	17729
903.801	17661
903.919	17748
904.038	17764
904.156	17528
904.274	17638
904.392	17592
904.51	17608
904.627	17554
904.745	17554
904.863	17482
904.981	17398
905.098	17235
905.216	17231
905.334	17212
905.451	17181
905.569	17121
905.686	17204
905.803	17235
905.921	17018
906.038	17086
906.155	16972
906.272	16839
906.389	16930
906.506	16831
906.623	16831
906.74	16877
906.857	16626
906.974	16679
907.091	16809
907.208	16889
907.324	16744
907.441	16733
907.557	16489
907.674	16508
907.79	16424
907.907	16394
908.023	16535
908.139	16489
908.256	16462
908.372	16375
908.488	16257
908.604	16196
908.72	16242
908.836	16226
908.952	16074
909.068	16196
909.184	16215
909.3	16169
909.415	16268
909.531	16196
909.647	15964
909.762	15941
909.878	15838
909.993	15960
910.108	15850
910.224	15907
910.339	15903
910.454	15732
910.57	15720
910.685	15667
910.8	15918
910.915	15812
911.03	15755
911.145	15557
911.259	15576
911.374	15576
911.489	15389
911.604	15363
911.718	15313
911.833	15237
911.947	15112
912.062	15020
912.176	15256
912.291	15245
912.405	15256
912.519	15306
912.633	15389
912.748	15291
912.862	15252
912.976	15222
913.09	14910
913.204	15070
913.318	15047
913.431	15165
913.545	15226
913.659	15287
913.772	15055
913.886	14883
914	14868
914.113	14979
914.226	14914
914.34	14952
914.453	14842
914.566	14899
914.68	14857
914.793	14773
914.906	14602
915.019	14689
915.132	14381
915.245	14522
915.358	14476
915.47	14530
915.583	14511
915.696	14457
915.809	14701
915.921	14602
916.034	14511
916.146	14461
916.259	14332
916.371	14518
916.483	14473
916.595	14290
916.708	14351
916.82	14442
916.932	14313
917.044	14256
917.156	14381
917.268	14172
917.38	14149
917.491	14202
917.603	14172
917.715	14256
917.826	14366
917.938	14145
918.049	14050
918.161	14111
918.272	14324
918.384	14263
918.495	14168
918.606	13947
918.717	13951
918.828	14024
918.939	14008
919.05	13963
919.161	13917
919.272	13799
919.383	13753
919.494	13989
919.604	14119
919.715	13997
919.826	13871
919.936	13944
920.047	13902
920.157	13928
920.267	14073
920.378	13993
920.488	13890
920.598	14054
920.708	14332
920.818	14126
920.928	14050
921.038	14187
921.148	14233
921.258	13909
921.368	13860
921.477	13636
921.587	13704
921.697	13499
921.806	13586
921.916	13552
922.025	13377
922.134	13396
922.244	13190
922.353	13388
922.462	13198
922.571	13179
922.68	13000
922.789	12924
922.898	12958
923.007	12989
923.116	13072
923.224	13004
923.333	12913
923.442	12844
923.55	12753
923.659	12779
923.767	12795
923.876	12776
923.984	12882
924.092	12715
924.201	12760
924.309	12848
924.417	12852
924.525	12677
924.633	12692
924.741	13377
924.849	12426
924.956	12604
925.064	12437
925.172	12509
925.279	12460
925.387	12467
925.494	12502
925.602	12506
925.709	12517
925.816	12350
925.924	12467
926.031	12479
926.138	12452
926.245	12471
926.352	12281
926.459	12479
926.566	12445
926.673	12338
926.779	12220
926.886	12178
926.993	12053
927.099	12026
927.206	12034
927.312	11923
927.419	12129
927.525	11965
927.631	12019
927.737	11855
927.843	11946
927.95	11779
928.056	11859
928.162	11824
928.267	11828
928.373	12528
928.479	11977
928.585	11771
928.69	11756
928.796	11809
928.901	11783
929.007	11532
929.112	11722
929.218	11710
929.323	11619
929.428	11589
929.533	11707
929.638	11589
929.743	11543
929.848	11596
929.953	11642
930.058	11391
930.163	11273
930.267	11356
930.372	11452
930.477	11197
930.581	11417
930.685	11379
930.79	11105
930.894	11174
930.998	11231
931.103	11292
931.207	10896
931.311	10843
931.415	10782
931.519	10599
931.623	10634
