Data from test_V78500241_1984.txt Node
Date: Fri Mar 25 15:23:40 CST 2022
User: usil
Spectrometer: V785-0024
Trigger mode: 0
Integration Time (sec): 4.000000E-1
Scans to average: 1
Nonlinearity correction enabled: false
Boxcar width: 0
Storing dark spectrum: false
XAxis mode: Wavelengths
Number of Pixels in Spectrum: 1024
>>>>>Begin Spectral Data<<<<<
801.071	27895
801.214	27835
801.356	27717
801.499	27568
801.641	27439
801.783	27477
801.926	27610
802.068	27420
802.211	27401
802.353	27397
802.496	27268
802.638	27074
802.78	27001
802.923	27047
803.065	27024
803.208	27066
803.35	27032
803.492	27161
803.635	27237
803.777	27066
803.919	27142
804.061	27519
804.204	27287
804.346	27272
804.488	27272
804.63	27378
804.773	27252
804.915	27329
805.057	27447
805.199	27245
805.341	27439
805.483	27393
805.626	27302
805.768	27283
805.91	27336
806.052	27454
806.194	27447
806.336	27625
806.478	27431
806.62	27450
806.762	27614
806.904	27759
807.046	27998
807.188	27914
807.33	27720
807.472	27914
807.614	27724
807.756	27736
807.898	27583
808.04	27618
808.182	27751
808.324	27720
808.465	27663
808.607	27755
808.749	27972
808.891	28135
809.033	28147
809.174	28070
809.316	27941
809.458	28063
809.6	27949
809.741	28196
809.883	28253
810.025	28234
810.166	28341
810.308	28257
810.45	28234
810.591	28215
810.733	28173
810.875	28059
811.016	27850
811.158	27827
811.299	28029
811.441	28078
811.582	28135
811.724	27983
811.865	28097
812.007	28017
812.148	28029
812.29	28207
812.431	28238
812.573	28280
812.714	28466
812.855	28531
812.997	28664
813.138	28968
813.279	28679
813.421	28554
813.562	28466
813.703	28375
813.845	28238
813.986	27930
814.127	27949
814.268	27838
814.41	27823
814.551	27724
814.692	27766
814.833	27496
814.974	27781
815.115	27823
815.256	27641
815.397	27549
815.539	27549
815.68	27629
815.821	27526
815.962	27625
816.103	27545
816.244	27374
816.385	27249
816.526	27188
816.666	27104
816.807	26910
816.948	27222
817.089	27062
817.23	27024
817.371	26990
817.512	27028
817.653	26849
817.793	26956
817.934	27032
818.075	27024
818.216	26994
818.356	26925
818.497	26956
818.638	26876
818.778	26750
818.919	26750
819.06	26792
819.2	26902
819.341	26929
819.481	27024
819.622	27249
819.762	27355
819.903	27188
820.043	27195
820.184	27169
820.324	27039
820.465	27066
820.605	27169
820.746	27032
820.886	26948
821.026	26929
821.167	27005
821.307	27058
821.447	26910
821.588	26807
821.728	26921
821.868	26617
822.008	26537
822.149	26549
822.289	26492
822.429	26244
822.569	26176
822.709	26256
822.849	26020
822.99	25974
823.13	25849
823.27	25879
823.41	25769
823.55	25757
823.69	25852
823.83	25788
823.97	25738
824.11	25616
824.25	25651
824.389	25723
824.529	25769
824.669	25731
824.809	25712
824.949	25670
825.089	25620
825.228	25651
825.368	25476
825.508	25384
825.648	25537
825.787	25521
825.927	25662
826.067	25472
826.206	25384
826.346	25578
826.485	25457
826.625	25457
826.765	25586
826.904	25476
827.044	25441
827.183	25263
827.323	25236
827.462	25293
827.601	25263
827.741	25103
827.88	25240
828.02	25107
828.159	25198
828.298	25091
828.437	25293
828.577	25126
828.716	25312
828.855	25118
828.994	25038
829.134	24886
829.273	24992
829.412	24856
829.551	24901
829.69	24977
829.829	24821
829.968	25057
830.107	24958
830.246	24871
830.385	24882
830.524	24741
830.663	24825
830.802	24574
830.941	24513
831.08	24597
831.219	24623
831.357	24551
831.496	24798
831.635	24532
831.774	24551
831.913	24452
832.051	24308
832.19	24372
832.329	24353
832.467	24197
832.606	24330
832.744	24072
832.883	24121
833.022	24273
833.16	24167
833.299	24159
833.437	24140
833.576	24197
833.714	24262
833.852	24270
833.991	24292
834.129	24338
834.267	24262
834.406	24296
834.544	24251
834.682	24308
834.821	24239
834.959	24410
835.097	24182
835.235	24361
835.373	24235
835.511	24117
835.65	24140
835.788	24087
835.926	23988
836.064	23790
836.202	24034
836.34	24022
836.478	24224
836.615	24155
836.753	24087
836.891	23992
837.029	24125
837.167	23889
837.305	24034
837.443	23916
837.58	23950
837.718	23939
837.856	23923
837.993	23897
838.131	23969
838.269	23745
838.406	23901
838.544	23680
838.681	23687
838.819	23551
838.956	23452
839.094	23505
839.231	23406
839.369	23642
839.506	23779
839.643	23684
839.781	23425
839.918	23448
840.055	23364
840.193	23364
840.33	23360
840.467	23364
840.604	23349
840.742	23440
840.879	23181
841.016	23239
841.153	23132
841.29	23421
841.427	23318
841.564	23296
841.701	23269
841.838	23223
841.975	23288
842.112	23303
842.249	23246
842.385	23090
842.522	23364
842.659	23113
842.796	23170
842.933	23208
843.069	22987
843.206	23052
843.343	23204
843.479	23102
843.616	23052
843.752	22809
843.889	22809
844.025	22980
844.162	22923
844.298	22999
844.435	22748
844.571	22816
844.708	22850
844.844	22999
844.98	22995
845.117	22991
845.253	22885
845.389	22588
845.525	22721
845.661	22649
845.798	22546
845.934	22557
846.07	22664
846.206	22531
846.342	22698
846.478	22470
846.614	22398
846.75	22310
846.886	22306
847.022	22402
847.158	22333
847.294	22303
847.429	22432
847.565	22318
847.701	22592
847.837	22002
847.972	21949
848.108	22112
848.244	22169
848.379	21968
848.515	21884
848.65	21804
848.786	21880
848.921	21827
849.057	22029
849.192	21854
849.328	21930
849.463	21979
849.598	21827
849.734	21724
849.869	21804
850.004	21743
850.14	21682
850.275	21705
850.41	21633
850.545	21663
850.68	21637
850.815	21762
850.95	21622
851.085	21876
851.22	21770
851.355	21675
851.49	21701
851.625	21641
851.76	21660
851.895	21576
852.03	21500
852.165	21603
852.299	21781
852.434	21774
852.569	21618
852.703	21724
852.838	21618
852.973	21759
853.107	21816
853.242	21652
853.376	21523
853.511	21355
853.645	21435
853.78	21618
853.914	21450
854.048	21378
854.183	21393
854.317	21492
854.451	21663
854.585	21454
854.72	21420
854.854	21538
854.988	21386
855.122	21557
855.256	21313
855.39	21553
855.524	21542
855.658	21557
855.792	21443
855.926	21458
856.06	21557
856.194	21511
856.327	21500
856.461	21500
856.595	21412
856.729	21542
856.862	21450
856.996	21477
857.13	21515
857.263	21686
857.397	21564
857.53	21416
857.664	21530
857.797	21526
857.931	21469
858.064	21477
858.197	21561
858.331	21481
858.464	21294
858.597	21329
858.731	21462
858.864	21344
858.997	21481
859.13	21568
859.263	21443
859.396	21599
859.529	21454
859.662	21580
859.795	21310
859.928	21515
860.061	21656
860.194	21701
860.327	21580
860.46	21473
860.592	21542
860.725	21682
860.858	21622
860.99	21504
861.123	21363
861.256	21401
861.388	21519
861.521	22219
861.653	21374
861.786	21283
861.918	21340
862.05	21367
862.183	21359
862.315	21401
862.447	21523
862.58	21332
862.712	21188
862.844	21146
862.976	21237
863.108	21237
863.24	21625
863.372	21157
863.504	21131
863.636	21230
863.768	21256
863.9	21211
864.032	21127
864.164	21138
864.296	21192
864.428	21260
864.559	21237
864.691	21241
864.823	21157
864.954	21161
865.086	21268
865.217	21169
865.349	21062
865.48	21100
865.612	21161
865.743	21222
865.875	21066
866.006	21173
866.137	21112
866.269	21142
866.4	21058
866.531	21001
866.662	20952
866.793	20971
866.924	20982
867.055	21058
867.186	20994
867.317	21032
867.448	20880
867.579	20952
867.71	20990
867.841	20910
867.972	20948
868.103	21058
868.233	21032
868.364	20849
868.495	21100
868.625	21112
868.756	21325
868.886	21020
869.017	21150
869.147	21443
869.278	21363
869.408	21359
869.539	21222
869.669	21355
869.799	21370
869.929	21469
870.06	21462
870.19	21530
870.32	21504
870.45	21603
870.58	21713
870.71	21701
870.84	21842
870.97	21568
871.1	21804
871.23	21751
871.36	21869
871.489	21808
871.619	21865
871.749	21903
871.879	21869
872.008	21983
872.138	21861
872.267	21888
872.397	21755
872.526	21553
872.656	21797
872.785	21682
872.915	21808
873.044	21922
873.173	21873
873.303	21918
873.432	21895
873.561	21934
873.69	21968
873.819	21857
873.948	21975
874.077	21941
874.206	21766
874.335	21838
874.464	21930
874.593	22055
874.722	22150
874.851	22097
874.979	22040
875.108	22173
875.237	22101
875.365	21964
875.494	22029
875.623	22166
875.751	22185
875.88	22207
876.008	22173
876.136	22265
876.265	22538
876.393	22557
876.521	22603
876.65	22436
876.778	22630
876.906	22481
877.034	22390
877.162	22417
877.29	22409
877.418	22417
877.546	22470
877.674	22436
877.802	22459
877.93	22436
878.058	22394
878.185	22265
878.313	22432
878.441	22546
878.568	22200
878.696	22363
878.824	22531
878.951	22535
879.079	22554
879.206	22683
879.333	22584
879.461	22394
879.588	22470
879.715	22447
879.842	22634
879.97	22447
880.097	22322
880.224	22211
880.351	22405
880.478	22154
880.605	22257
880.732	22299
880.859	22577
880.986	22367
881.112	22310
881.239	22211
881.366	22021
881.493	21903
881.619	21915
881.746	21937
881.872	21846
881.999	21865
882.125	21861
882.252	21823
882.378	21800
882.505	21945
882.631	21568
882.757	21583
882.883	21679
883.01	21576
883.136	21564
883.262	21504
883.388	21374
883.514	21606
883.64	21507
883.766	21637
883.892	21340
884.018	21428
884.143	21424
884.269	21496
884.395	21367
884.52	21154
884.646	21192
884.772	21070
884.897	21024
885.023	21245
885.148	21226
885.274	21256
885.399	21355
885.524	21173
885.65	21188
885.775	21245
885.9	21226
886.025	21279
886.15	21203
886.275	21203
886.4	20982
886.525	21180
886.65	21138
886.775	21039
886.9	21279
887.025	21439
887.149	21142
887.274	20975
887.399	20933
887.523	20948
887.648	20982
887.773	20769
887.897	20986
888.021	21074
888.146	20941
888.27	21020
888.395	21051
888.519	21051
888.643	20925
888.767	20982
888.891	20910
889.015	20785
889.139	20838
889.263	20834
889.387	20887
889.511	20876
889.635	20857
889.759	20724
889.883	20655
890.006	20754
890.13	20807
890.254	20663
890.377	20659
890.501	20655
890.624	20476
890.748	20473
890.871	20343
890.995	20343
891.118	20290
891.241	20221
891.364	20404
891.488	20351
891.611	20309
891.734	20385
891.857	20438
891.98	20320
892.103	20183
892.226	20271
892.349	20233
892.471	20122
892.594	20229
892.717	20229
892.839	20317
892.962	20259
893.085	20320
893.207	20267
893.33	20100
893.452	20130
893.575	20305
893.697	20103
893.819	20412
893.941	20374
894.064	20339
894.186	20225
894.308	20259
894.43	20218
894.552	20396
894.674	20286
894.796	20088
894.918	20092
895.04	20130
895.161	20221
895.283	20195
895.405	20168
895.526	20062
895.648	20107
895.769	20298
895.891	20218
896.012	20195
896.134	20358
896.255	20240
896.376	20157
896.498	20218
896.619	20164
896.74	20240
896.861	20225
896.982	20507
897.103	20724
897.224	20442
897.345	20484
897.466	20347
897.587	20480
897.708	20579
897.828	20511
897.949	20431
898.07	20225
898.19	20320
898.311	20590
898.431	20415
898.552	20442
898.672	20476
898.792	20545
898.913	20450
899.033	20252
899.153	20168
899.273	20206
899.393	20157
899.513	20164
899.633	20039
899.753	20206
899.873	20119
899.993	20214
900.113	20073
900.232	20088
900.352	20138
900.472	19947
900.591	19864
900.711	19982
900.83	19951
900.95	19959
901.069	20142
901.189	19868
901.308	19712
901.427	19647
901.546	19533
901.665	19613
901.784	19483
901.904	19415
902.023	19339
902.141	18989
902.26	19137
902.379	19145
902.498	19038
902.617	18977
902.735	19031
902.854	19000
902.973	18909
903.091	18768
903.21	18806
903.328	18631
903.446	18654
903.565	18627
903.683	18475
903.801	18464
903.919	18471
904.038	18372
904.156	18296
904.274	18270
904.392	18357
904.51	18232
904.627	18182
904.745	18266
904.863	18350
904.981	18007
905.098	17916
905.216	17859
905.334	17942
905.451	18026
905.569	17916
905.686	17969
905.803	17908
905.921	17813
906.038	17836
906.155	17901
906.272	17585
906.389	17581
906.506	17509
906.623	17512
906.74	17497
906.857	17391
906.974	17345
907.091	17516
907.208	17646
907.324	17467
907.441	17406
907.557	17208
907.674	17208
907.79	17174
907.907	17067
908.023	17204
908.139	17143
908.256	17147
908.372	17048
908.488	17079
908.604	17014
908.72	16911
908.836	16930
908.952	16869
909.068	16919
909.184	16934
909.3	16934
909.415	17029
909.531	16915
909.647	16637
909.762	16759
909.878	16596
909.993	16622
910.108	16698
910.224	16554
910.339	16599
910.454	16447
910.57	16516
910.685	16367
910.8	16694
910.915	16550
911.03	16470
911.145	16287
911.259	16181
911.374	16177
911.489	16162
911.604	16124
911.718	15964
911.833	15983
911.947	15861
912.062	15884
912.176	15922
912.291	15937
912.405	15880
912.519	16097
912.633	16116
912.748	15953
912.862	16048
912.976	15797
913.09	15568
913.204	15797
913.318	15728
913.431	15747
913.545	15892
913.659	15724
913.772	15736
913.886	15545
914	15576
914.113	15629
914.226	15762
914.34	15561
914.453	15481
914.566	15576
914.68	15507
914.793	15393
914.906	15195
915.019	15142
915.132	15123
915.245	15211
915.358	15211
915.47	15226
915.583	15119
915.696	15256
915.809	15233
915.921	15260
916.034	15169
916.146	14998
916.259	15024
916.371	15089
916.483	15047
916.595	14963
916.708	14868
916.82	15032
916.932	15009
917.044	14963
917.156	14895
917.268	14815
917.38	14887
917.491	14857
917.603	14807
917.715	14921
917.826	14807
917.938	14712
918.049	14712
918.161	14781
918.272	14838
918.384	14956
918.495	14758
918.606	14590
918.717	14613
918.828	14629
918.939	14606
919.05	14564
919.161	14644
919.272	14339
919.383	14488
919.494	14610
919.604	14853
919.715	14606
919.826	14461
919.936	14552
920.047	14625
920.157	14533
920.267	14716
920.378	14663
920.488	14545
920.598	14693
920.708	14925
920.818	14655
920.928	14705
921.038	14819
921.148	14853
921.258	14503
921.368	14465
921.477	14252
921.587	14256
921.697	14240
921.806	14339
921.916	14153
922.025	14100
922.134	13944
922.244	13852
922.353	13978
922.462	13887
922.571	13795
922.68	13674
922.789	13548
922.898	13639
923.007	13552
923.116	13662
923.224	13594
923.333	13548
923.442	13476
923.55	13419
923.659	13400
923.767	13419
923.876	13377
923.984	13449
924.092	13312
924.201	13400
924.309	13400
924.417	13373
924.525	13270
924.633	13335
924.741	14046
924.849	13107
924.956	13175
925.064	13031
925.172	12993
925.279	13069
925.387	13129
925.494	13012
925.602	13122
925.709	13069
925.816	13019
925.924	12954
926.031	13000
926.138	12913
926.245	12966
926.352	12776
926.459	13046
926.566	13042
926.673	12856
926.779	12734
926.886	12764
926.993	12642
927.099	12627
927.206	12563
927.312	12509
927.419	12593
927.525	12608
927.631	12559
927.737	12498
927.843	12448
927.95	12304
928.056	12395
928.162	12414
928.267	12471
928.373	13065
928.479	12422
928.585	12243
928.69	12418
928.796	12376
928.901	12216
929.007	12087
929.112	12308
929.218	12289
929.323	12117
929.428	12034
929.533	12277
929.638	12144
929.743	12102
929.848	12068
929.953	12053
930.058	12007
930.163	11843
930.267	11817
930.372	11939
930.477	11779
930.581	11969
930.685	11836
930.79	11672
930.894	11771
930.998	11646
931.103	11783
931.207	11436
931.311	11383
931.415	11231
931.519	11048
931.623	11060
