Data from test_V78500241_2718.txt Node
Date: Fri Mar 25 15:28:47 CST 2022
User: usil
Spectrometer: V785-0024
Trigger mode: 0
Integration Time (sec): 4.000000E-1
Scans to average: 1
Nonlinearity correction enabled: false
Boxcar width: 0
Storing dark spectrum: false
XAxis mode: Wavelengths
Number of Pixels in Spectrum: 1024
>>>>>Begin Spectral Data<<<<<
801.071	27009
801.214	27089
801.356	26796
801.499	26792
801.641	26632
801.783	26632
801.926	26708
802.068	26609
802.211	26670
802.353	26678
802.496	26438
802.638	26355
802.78	26256
802.923	26294
803.065	26294
803.208	26256
803.35	26244
803.492	26442
803.635	26427
803.777	26374
803.919	26511
804.061	26876
804.204	26393
804.346	26358
804.488	26355
804.63	26537
804.773	26377
804.915	26469
805.057	26571
805.199	26336
805.341	26594
805.483	26594
805.626	26667
805.768	26434
805.91	26499
806.052	26613
806.194	26393
806.336	26667
806.478	26465
806.62	26708
806.762	26609
806.904	26872
807.046	27195
807.188	27104
807.33	27096
807.472	27032
807.614	26982
807.756	26990
807.898	26804
808.04	26731
808.182	26739
808.324	26845
808.465	27039
808.607	27077
808.749	27154
808.891	27214
809.033	27310
809.174	27199
809.316	27043
809.458	27218
809.6	27017
809.741	27310
809.883	27340
810.025	27431
810.166	27397
810.308	27424
810.45	27492
810.591	27389
810.733	27077
810.875	27058
811.016	27066
811.158	27047
811.299	27260
811.441	27397
811.582	27302
811.724	27127
811.865	27176
812.007	27237
812.148	27055
812.29	27268
812.431	27260
812.573	27496
812.714	27591
812.855	27698
812.997	27789
813.138	27827
813.279	27781
813.421	27671
813.562	27671
813.703	27504
813.845	27378
813.986	27036
814.127	26796
814.268	26788
814.41	26838
814.551	26796
814.692	26815
814.833	26735
814.974	26663
815.115	26716
815.256	26632
815.397	26549
815.539	26655
815.68	26514
815.821	26579
815.962	26678
816.103	26533
816.244	26476
816.385	26309
816.526	26240
816.666	26210
816.807	26027
816.948	26012
817.089	26305
817.23	26142
817.371	25963
817.512	26043
817.653	25947
817.793	26012
817.934	26039
818.075	25963
818.216	26122
818.356	26077
818.497	25928
818.638	25753
818.778	25826
818.919	25814
819.06	25860
819.2	26100
819.341	25902
819.481	26176
819.622	26145
819.762	26362
819.903	26339
820.043	26202
820.184	26084
820.324	26153
820.465	26263
820.605	26229
820.746	25982
820.886	26008
821.026	26096
821.167	26195
821.307	26134
821.447	26062
821.588	25944
821.728	25837
821.868	25594
822.008	25426
822.149	25533
822.289	25529
822.429	25206
822.569	25282
822.709	25343
822.849	25099
822.99	25148
823.13	24894
823.27	24928
823.41	24859
823.55	24768
823.69	24817
823.83	24901
823.97	24722
824.11	24753
824.25	24525
824.389	24627
824.529	24722
824.669	24665
824.809	24787
824.949	24768
825.089	24821
825.228	24658
825.368	24494
825.508	24502
825.648	24494
825.787	24578
825.927	24597
826.067	24661
826.206	24460
826.346	24597
826.485	24650
826.625	24521
826.765	24715
826.904	24646
827.044	24346
827.183	24330
827.323	24304
827.462	24285
827.601	24167
827.741	24197
827.88	24319
828.02	24083
828.159	24018
828.298	24357
828.437	24311
828.577	24102
828.716	24426
828.855	24205
828.994	23969
829.134	23996
829.273	23958
829.412	23882
829.551	23958
829.69	23950
829.829	23870
829.968	24110
830.107	23958
830.246	23939
830.385	23802
830.524	23870
830.663	23775
830.802	23726
830.941	23623
831.08	23570
831.219	23661
831.357	23535
831.496	23828
831.635	23512
831.774	23398
831.913	23478
832.051	23402
832.19	23376
832.329	23467
832.467	23239
832.606	23216
832.744	23246
832.883	23311
833.022	23292
833.16	23296
833.299	23376
833.437	23265
833.576	23368
833.714	23277
833.852	23417
833.991	23269
834.129	23459
834.267	23376
834.406	23315
834.544	23330
834.682	23296
834.821	23322
834.959	23539
835.097	23242
835.235	23349
835.373	23387
835.511	23406
835.65	23155
835.788	23162
835.926	23220
836.064	22972
836.202	23079
836.34	23170
836.478	23250
836.615	23121
836.753	23128
836.891	23322
837.029	23113
837.167	23140
837.305	23079
837.443	23086
837.58	23010
837.718	23143
837.856	23143
837.993	23098
838.131	23128
838.269	22942
838.406	22949
838.544	22949
838.681	22702
838.819	22725
838.956	22466
839.094	22519
839.231	22607
839.369	22596
839.506	22927
839.643	22733
839.781	22527
839.918	22462
840.055	22641
840.193	22569
840.33	22428
840.467	22363
840.604	22409
840.742	22626
840.879	22363
841.016	22287
841.153	22382
841.29	22516
841.427	22390
841.564	22443
841.701	22485
841.838	22352
841.975	22272
842.112	22344
842.249	22363
842.385	22169
842.522	22367
842.659	22310
842.796	22272
842.933	22276
843.069	22181
843.206	22070
843.343	22303
843.479	22074
843.616	22105
843.752	21964
843.889	22002
844.025	22086
844.162	21888
844.298	22067
844.435	22021
844.571	21865
844.708	21945
844.844	22093
844.98	22044
845.117	22204
845.253	21831
845.389	21766
845.525	21827
845.661	21861
845.798	21705
845.934	21686
846.07	21728
846.206	21675
846.342	21857
846.478	21682
846.614	21500
846.75	21408
846.886	21526
847.022	21481
847.158	21519
847.294	21363
847.429	21454
847.565	21405
847.701	21751
847.837	21180
847.972	21188
848.108	21279
848.244	21321
848.379	21066
848.515	21055
848.65	20990
848.786	21119
848.921	21036
849.057	21112
849.192	21138
849.328	21051
849.463	21074
849.598	20990
849.734	20933
849.869	20887
850.004	20750
850.14	20872
850.275	20861
850.41	20746
850.545	20727
850.68	20701
850.815	20781
850.95	20765
851.085	20971
851.22	20960
851.355	20842
851.49	20864
851.625	20727
851.76	20788
851.895	20769
852.03	20815
852.165	20823
852.299	20845
852.434	20857
852.569	20762
852.703	20845
852.838	20914
852.973	20910
853.107	20925
853.242	20743
853.376	20663
853.511	20560
853.645	20606
853.78	20807
853.914	20777
854.048	20583
854.183	20617
854.317	20716
854.451	20906
854.585	20598
854.72	20659
854.854	20705
854.988	20606
855.122	20575
855.256	20488
855.39	20571
855.524	20686
855.658	20697
855.792	20613
855.926	20777
856.06	20602
856.194	20765
856.327	20629
856.461	20583
856.595	20663
856.729	20609
856.862	20792
856.996	20606
857.13	20697
857.263	20804
857.397	20686
857.53	20537
857.664	20678
857.797	20579
857.931	20743
858.064	20655
858.197	20746
858.331	20716
858.464	20651
858.597	20575
858.731	20594
858.864	20564
858.997	20556
859.13	20564
859.263	20701
859.396	20674
859.529	20689
859.662	20651
859.795	20602
859.928	20492
860.061	20746
860.194	20880
860.327	20651
860.46	20655
860.592	20754
860.725	20773
860.858	20746
860.99	20659
861.123	20606
861.256	20568
861.388	20587
861.521	21188
861.653	20530
861.786	20560
861.918	20495
862.05	20503
862.183	20518
862.315	20602
862.447	20606
862.58	20579
862.712	20355
862.844	20355
862.976	20465
863.108	20393
863.24	20887
863.372	20336
863.504	20469
863.636	20320
863.768	20324
863.9	20320
864.032	20400
864.164	20275
864.296	20256
864.428	20419
864.559	20381
864.691	20324
864.823	20229
864.954	20298
865.086	20290
865.217	20415
865.349	20096
865.48	20214
865.612	20244
865.743	20347
865.875	20221
866.006	20115
866.137	20248
866.269	20267
866.4	20252
866.531	20370
866.662	20145
866.793	20172
866.924	20229
867.055	20206
867.186	20172
867.317	20263
867.448	20001
867.579	20020
867.71	20317
867.841	20218
867.972	20111
868.103	20187
868.233	20153
868.364	20252
868.495	20412
868.625	20431
868.756	20499
868.886	20259
869.017	20278
869.147	20473
869.278	20552
869.408	20415
869.539	20492
869.669	20598
869.799	20492
869.929	20587
870.06	20575
870.19	20800
870.32	20705
870.45	20762
870.58	20765
870.71	20918
870.84	20948
870.97	20910
871.1	20857
871.23	21039
871.36	21024
871.489	20906
871.619	20967
871.749	20895
871.879	20937
872.008	21077
872.138	21039
872.267	21089
872.397	20925
872.526	20845
872.656	20933
872.785	20876
872.915	21039
873.044	21047
873.173	20998
873.303	21131
873.432	21173
873.561	21176
873.69	21093
873.819	21070
873.948	21192
874.077	21077
874.206	20967
874.335	21089
874.464	21237
874.593	21370
874.722	21298
874.851	21458
874.979	21310
875.108	21386
875.237	21154
875.365	21123
875.494	21272
875.623	21420
875.751	21302
875.88	21302
876.008	21488
876.136	21534
876.265	21644
876.393	21835
876.521	21831
876.65	21717
876.778	21717
876.906	21618
877.034	21576
877.162	21728
877.29	21633
877.418	21633
877.546	21641
877.674	21599
877.802	21599
877.93	21622
878.058	21701
878.185	21462
878.313	21526
878.441	21667
878.568	21405
878.696	21572
878.824	21614
878.951	21804
879.079	21751
879.206	22036
879.333	21808
879.461	21690
879.588	21663
879.715	21739
879.842	21964
879.97	21656
880.097	21545
880.224	21420
880.351	21469
880.478	21485
880.605	21435
880.732	21519
880.859	21637
880.986	21504
881.112	21485
881.239	21287
881.366	21275
881.493	21218
881.619	21051
881.746	21051
881.872	21135
881.999	21005
882.125	20929
882.252	20979
882.378	20914
882.505	21039
882.631	21009
882.757	20800
882.883	20845
883.01	20788
883.136	20682
883.262	20507
883.388	20617
883.514	20746
883.64	20804
883.766	20746
883.892	20552
884.018	20609
884.143	20758
884.269	20769
884.395	20514
884.52	20343
884.646	20461
884.772	20400
884.897	20355
885.023	20404
885.148	20499
885.274	20537
885.399	20492
885.524	20423
885.65	20362
885.775	20404
885.9	20396
886.025	20495
886.15	20511
886.275	20286
886.4	20374
886.525	20385
886.65	20282
886.775	20339
886.9	20438
887.025	20625
887.149	20374
887.274	20263
887.399	20161
887.523	20119
887.648	20149
887.773	20012
887.897	20237
888.021	20221
888.146	20164
888.27	20183
888.395	20183
888.519	20237
888.643	20092
888.767	20252
888.891	19989
889.015	19959
889.139	19997
889.263	19963
889.387	19986
889.511	20183
889.635	20077
889.759	19951
889.883	20046
890.006	20065
890.13	20103
890.254	20008
890.377	19978
890.501	19734
890.624	19670
890.748	19742
890.871	19700
890.995	19586
891.118	19499
891.241	19594
891.364	19571
891.488	19620
891.611	19563
891.734	19559
891.857	19529
891.98	19715
892.103	19556
892.226	19731
892.349	19529
892.471	19464
892.594	19400
892.717	19445
892.839	19441
892.962	19578
893.085	19537
893.207	19381
893.33	19381
893.452	19415
893.575	19472
893.697	19419
893.819	19613
893.941	19670
894.064	19571
894.186	19499
894.308	19453
894.43	19559
894.552	19620
894.674	19662
894.796	19407
894.918	19476
895.04	19533
895.161	19578
895.283	19483
895.405	19476
895.526	19552
895.648	19521
895.769	19464
895.891	19487
896.012	19620
896.134	19548
896.255	19556
896.376	19384
896.498	19438
896.619	19582
896.74	19499
896.861	19514
896.982	19784
897.103	19970
897.224	19731
897.345	19784
897.466	19696
897.587	19795
897.708	19841
897.828	19731
897.949	19696
898.07	19537
898.19	19750
898.311	19757
898.431	19723
898.552	19765
898.672	19826
898.792	19734
898.913	19753
899.033	19597
899.153	19575
899.273	19430
899.393	19529
899.513	19518
899.633	19582
899.753	19514
899.873	19472
899.993	19559
900.113	19468
900.232	19480
900.352	19430
900.472	19266
900.591	19339
900.711	19293
900.83	19304
900.95	19396
901.069	19346
901.189	19129
901.308	19031
901.427	18810
901.546	18951
901.665	18958
901.784	18878
901.904	18833
902.023	18608
902.141	18429
902.26	18498
902.379	18460
902.498	18330
902.617	18330
902.735	18422
902.854	18403
902.973	18422
903.091	18110
903.21	18079
903.328	18114
903.446	18102
903.565	17863
903.683	17813
903.801	17786
903.919	17821
904.038	17882
904.156	17596
904.274	17676
904.392	17703
904.51	17630
904.627	17524
904.745	17661
904.863	17718
904.981	17436
905.098	17303
905.216	17334
905.334	17440
905.451	17368
905.569	17231
905.686	17436
905.803	17261
905.921	17109
906.038	17189
906.155	17181
906.272	16987
906.389	17029
906.506	16877
906.623	16908
906.74	16835
906.857	16717
906.974	16782
907.091	16930
907.208	16942
907.324	16904
907.441	16759
907.557	16603
907.674	16588
907.79	16546
907.907	16500
908.023	16668
908.139	16599
908.256	16554
908.372	16500
908.488	16504
908.604	16398
908.72	16299
908.836	16226
908.952	16249
909.068	16398
909.184	16424
909.3	16268
909.415	16436
909.531	16276
909.647	16093
909.762	16002
909.878	15918
909.993	15972
910.108	15956
910.224	16055
910.339	16010
910.454	15785
910.57	15709
910.685	15717
910.8	15922
910.915	15888
911.03	15823
911.145	15724
911.259	15610
911.374	15709
911.489	15545
911.604	15447
911.718	15397
911.833	15496
911.947	15233
912.062	15226
912.176	15462
912.291	15450
912.405	15466
912.519	15610
912.633	15572
912.748	15340
912.862	15275
912.976	15195
913.09	15039
913.204	15157
913.318	15184
913.431	15233
913.545	15313
913.659	15332
913.772	15127
913.886	14979
914	15017
914.113	15089
914.226	15097
914.34	15028
914.453	14838
914.566	15047
914.68	14811
914.793	14868
914.906	14610
915.019	14655
915.132	14655
915.245	14587
915.358	14613
915.47	14533
915.583	14606
915.696	14632
915.809	14857
915.921	14727
916.034	14606
916.146	14484
916.259	14556
916.371	14594
916.483	14602
916.595	14461
916.708	14434
916.82	14404
916.932	14412
917.044	14396
917.156	14339
917.268	14358
917.38	14263
917.491	14267
917.603	14332
917.715	14366
917.826	14339
917.938	14206
918.049	14168
918.161	14259
918.272	14434
918.384	14347
918.495	14271
918.606	14134
918.717	14062
918.828	14016
918.939	14103
919.05	13982
919.161	14016
919.272	13746
919.383	13944
919.494	14180
919.604	14259
919.715	13974
919.826	13967
919.936	14103
920.047	14027
920.157	14027
920.267	14263
920.378	14043
920.488	13989
920.598	14187
920.708	14332
920.818	14210
920.928	14145
921.038	14396
921.148	14305
921.258	14065
921.368	13963
921.477	13784
921.587	13670
921.697	13700
921.806	13772
921.916	13609
922.025	13457
922.134	13468
922.244	13518
922.353	13438
922.462	13282
922.571	13263
922.68	13179
922.789	13053
922.898	13164
923.007	13023
923.116	13042
923.224	13076
923.333	13057
923.442	12928
923.55	12837
923.659	12920
923.767	12924
923.876	12825
923.984	13004
924.092	12840
924.201	12871
924.309	12848
924.417	12882
924.525	12776
924.633	12783
924.741	13639
924.849	12483
924.956	12764
925.064	12559
925.172	12490
925.279	12555
925.387	12547
925.494	12517
925.602	12684
925.709	12673
925.816	12365
925.924	12464
926.031	12566
926.138	12433
926.245	12528
926.352	12334
926.459	12467
926.566	12551
926.673	12380
926.779	12334
926.886	12292
926.993	12171
927.099	12148
927.206	12015
927.312	12068
927.419	12072
927.525	12197
927.631	12159
927.737	11965
927.843	11992
927.95	11859
928.056	11999
928.162	11980
928.267	11996
928.373	12555
928.479	12007
928.585	11767
928.69	11965
928.796	11961
928.901	11733
929.007	11665
929.112	11752
929.218	11824
929.323	11707
929.428	11615
929.533	11832
929.638	11608
929.743	11649
929.848	11680
929.953	11577
930.058	11543
930.163	11307
930.267	11402
930.372	11509
930.477	11406
930.581	11566
930.685	11387
930.79	11341
930.894	11273
930.998	11235
931.103	11353
931.207	11006
931.311	10949
931.415	10866
931.519	10626
931.623	10565
