Data from test_V78500241_1480.txt Node
Date: Fri Mar 25 15:20:09 CST 2022
User: usil
Spectrometer: V785-0024
Trigger mode: 0
Integration Time (sec): 4.000000E-1
Scans to average: 1
Nonlinearity correction enabled: false
Boxcar width: 0
Storing dark spectrum: false
XAxis mode: Wavelengths
Number of Pixels in Spectrum: 1024
>>>>>Begin Spectral Data<<<<<
801.071	27880
801.214	27972
801.356	27492
801.499	27663
801.641	27610
801.783	27576
801.926	27618
802.068	27488
802.211	27583
802.353	27439
802.496	27420
802.638	27138
802.78	27165
802.923	27123
803.065	27230
803.208	27032
803.35	27150
803.492	27275
803.635	27378
803.777	27184
803.919	27348
804.061	27717
804.204	27542
804.346	27355
804.488	27393
804.63	27363
804.773	27245
804.915	27397
805.057	27424
805.199	27260
805.341	27450
805.483	27534
805.626	27576
805.768	27420
805.91	27431
806.052	27641
806.194	27481
806.336	27747
806.478	27568
806.62	27633
806.762	27739
806.904	27766
807.046	27987
807.188	27918
807.33	28029
807.472	27941
807.614	27808
807.756	28090
807.898	27720
808.04	27679
808.182	27854
808.324	27861
808.465	27854
808.607	28135
808.749	28204
808.891	28306
809.033	28314
809.174	28230
809.316	28147
809.458	28192
809.6	28055
809.741	28211
809.883	28242
810.025	28443
810.166	28481
810.308	28535
810.45	28382
810.591	28322
810.733	28314
810.875	28101
811.016	28090
811.158	28086
811.299	28314
811.441	28375
811.582	28382
811.724	28101
811.865	28017
812.007	28128
812.148	28196
812.29	28169
812.431	28234
812.573	28462
812.714	28713
812.855	28717
812.997	28809
813.138	28949
813.279	28881
813.421	28702
813.562	28630
813.703	28519
813.845	28424
813.986	28109
814.127	27895
814.268	27838
814.41	27895
814.551	27930
814.692	27895
814.833	27747
814.974	27899
815.115	27899
815.256	27781
815.397	27724
815.539	27895
815.68	27557
815.821	27545
815.962	27637
816.103	27713
816.244	27462
816.385	27431
816.526	27561
816.666	27287
816.807	27161
816.948	27176
817.089	27237
817.23	27066
817.371	27127
817.512	26990
817.653	27272
817.793	27028
817.934	27283
818.075	27112
818.216	27157
818.356	27188
818.497	26933
818.638	26864
818.778	26861
818.919	26990
819.06	27093
819.2	27017
819.341	27138
819.481	27119
819.622	27298
819.762	27439
819.903	27481
820.043	27348
820.184	27298
820.324	27272
820.465	27348
820.605	27256
820.746	27287
820.886	27173
821.026	27336
821.167	27249
821.307	27173
821.447	27112
821.588	27108
821.728	26971
821.868	26727
822.008	26556
822.149	26731
822.289	26568
822.429	26339
822.569	26259
822.709	26362
822.849	26100
822.99	26100
823.13	26122
823.27	26077
823.41	26024
823.55	25849
823.69	26016
823.83	25974
823.97	25921
824.11	25738
824.25	25772
824.389	25719
824.529	26024
824.669	25814
824.809	25860
824.949	25871
825.089	25947
825.228	25868
825.368	25552
825.508	25578
825.648	25662
825.787	25715
825.927	25666
826.067	25624
826.206	25616
826.346	25674
826.485	25685
826.625	25521
826.765	25613
826.904	25639
827.044	25430
827.183	25377
827.323	25350
827.462	25472
827.601	25316
827.741	25213
827.88	25434
828.02	25209
828.159	25320
828.298	25388
828.437	25476
828.577	25301
828.716	25362
828.855	25320
828.994	25091
829.134	25000
829.273	24996
829.412	25031
829.551	24981
829.69	25000
829.829	25114
829.968	25114
830.107	25091
830.246	25107
830.385	24810
830.524	24867
830.663	24825
830.802	24878
830.941	24650
831.08	24563
831.219	24650
831.357	24669
831.496	24970
831.635	24734
831.774	24635
831.913	24547
832.051	24372
832.19	24445
832.329	24418
832.467	24167
832.606	24247
832.744	24315
832.883	24403
833.022	24391
833.16	24292
833.299	24308
833.437	24319
833.576	24361
833.714	24342
833.852	24414
833.991	24464
834.129	24353
834.267	24433
834.406	24486
834.544	24372
834.682	24426
834.821	24395
834.959	24582
835.097	24262
835.235	24407
835.373	24334
835.511	24384
835.65	24277
835.788	24254
835.926	24045
836.064	24114
836.202	24110
836.34	24235
836.478	24182
836.615	24220
836.753	24262
836.891	24194
837.029	24213
837.167	24148
837.305	24053
837.443	24152
837.58	24003
837.718	24190
837.856	24003
837.993	24072
838.131	24022
838.269	23939
838.406	23958
838.544	24018
838.681	23722
838.819	23687
838.956	23551
839.094	23501
839.231	23585
839.369	23627
839.506	23874
839.643	23798
839.781	23478
839.918	23448
840.055	23592
840.193	23509
840.33	23474
840.467	23417
840.604	23334
840.742	23646
840.879	23223
841.016	23337
841.153	23261
841.29	23410
841.427	23444
841.564	23486
841.701	23391
841.838	23474
841.975	23307
842.112	23288
842.249	23162
842.385	23159
842.522	23337
842.659	23353
842.796	23216
842.933	23094
843.069	23090
843.206	23075
843.343	23231
843.479	23181
843.616	23121
843.752	23052
843.889	23041
844.025	23132
844.162	22930
844.298	22980
844.435	22847
844.571	22908
844.708	22923
844.844	23098
844.98	23113
845.117	23052
845.253	22946
845.389	22961
845.525	22744
845.661	22824
845.798	22664
845.934	22748
846.07	22691
846.206	22736
846.342	22755
846.478	22710
846.614	22424
846.75	22314
846.886	22390
847.022	22432
847.158	22440
847.294	22390
847.429	22470
847.565	22405
847.701	22592
847.837	22261
847.972	22120
848.108	22226
848.244	22223
848.379	22063
848.515	22078
848.65	21956
848.786	21926
848.921	21983
849.057	22204
849.192	22021
849.328	22109
849.463	22006
849.598	21827
849.734	21861
849.869	21880
850.004	21789
850.14	21812
850.275	21869
850.41	21610
850.545	21694
850.68	21542
850.815	21892
850.95	21827
851.085	21911
851.22	21956
851.355	21747
851.49	21747
851.625	21690
851.76	21690
851.895	21671
852.03	21724
852.165	21698
852.299	21800
852.434	21926
852.569	21804
852.703	21743
852.838	21827
852.973	21915
853.107	21861
853.242	21705
853.376	21641
853.511	21568
853.645	21542
853.78	21751
853.914	21736
854.048	21641
854.183	21690
854.317	21591
854.451	21690
854.585	21599
854.72	21610
854.854	21641
854.988	21454
855.122	21595
855.256	21416
855.39	21500
855.524	21743
855.658	21606
855.792	21553
855.926	21663
856.06	21660
856.194	21564
856.327	21557
856.461	21462
856.595	21466
856.729	21587
856.862	21720
856.996	21580
857.13	21675
857.263	21724
857.397	21698
857.53	21580
857.664	21679
857.797	21656
857.931	21511
858.064	21591
858.197	21736
858.331	21557
858.464	21511
858.597	21450
858.731	21629
858.864	21473
858.997	21519
859.13	21622
859.263	21523
859.396	21561
859.529	21629
859.662	21595
859.795	21481
859.928	21511
860.061	21755
860.194	21694
860.327	21648
860.46	21663
860.592	21694
860.725	21648
860.858	21660
860.99	21496
861.123	21587
861.256	21488
861.388	21652
861.521	22135
861.653	21462
861.786	21393
861.918	21576
862.05	21473
862.183	21443
862.315	21603
862.447	21587
862.58	21492
862.712	21283
862.844	21230
862.976	21378
863.108	21367
863.24	21808
863.372	21291
863.504	21329
863.636	21317
863.768	21218
863.9	21199
864.032	21127
864.164	21138
864.296	21298
864.428	21329
864.559	21355
864.691	21325
864.823	21317
864.954	21332
865.086	21287
865.217	21230
865.349	21074
865.48	21055
865.612	21150
865.743	21252
865.875	21279
866.006	21096
866.137	21321
866.269	21081
866.4	21032
866.531	21127
866.662	21077
866.793	21081
866.924	21131
867.055	21173
867.186	21028
867.317	21119
867.448	21062
867.579	21062
867.71	21043
867.841	21020
867.972	21074
868.103	21119
868.233	21127
868.364	21039
868.495	21256
868.625	21245
868.756	21355
868.886	21249
869.017	21332
869.147	21454
869.278	21492
869.408	21317
869.539	21401
869.669	21389
869.799	21359
869.929	21492
870.06	21450
870.19	21709
870.32	21618
870.45	21679
870.58	21759
870.71	21819
870.84	21751
870.97	21694
871.1	21751
871.23	21983
871.36	21903
871.489	21789
871.619	21884
871.749	21937
871.879	22025
872.008	22002
872.138	21930
872.267	21907
872.397	21804
872.526	21728
872.656	21751
872.785	21713
872.915	21911
873.044	22055
873.173	21949
873.303	22029
873.432	21956
873.561	22078
873.69	22078
873.819	22082
873.948	21941
874.077	22044
874.206	21953
874.335	21922
874.464	22040
874.593	22154
874.722	22124
874.851	22177
874.979	22181
875.108	22135
875.237	22207
875.365	22029
875.494	22158
875.623	22139
875.751	22204
875.88	22272
876.008	22272
876.136	22280
876.265	22550
876.393	22706
876.521	22668
876.65	22664
876.778	22656
876.906	22596
877.034	22508
877.162	22485
877.29	22382
877.418	22417
877.546	22557
877.674	22554
877.802	22443
877.93	22352
878.058	22508
878.185	22386
878.313	22371
878.441	22440
878.568	22379
878.696	22371
878.824	22474
878.951	22698
879.079	22618
879.206	22611
879.333	22744
879.461	22634
879.588	22672
879.715	22740
879.842	22839
879.97	22557
880.097	22440
880.224	22352
880.351	22310
880.478	22474
880.605	22261
880.732	22428
880.859	22500
880.986	22360
881.112	22424
881.239	22287
881.366	22112
881.493	22032
881.619	22074
881.746	21918
881.872	21953
881.999	21907
882.125	21812
882.252	21846
882.378	21915
882.505	21903
882.631	21781
882.757	21690
882.883	21614
883.01	21515
883.136	21622
883.262	21469
883.388	21397
883.514	21549
883.64	21709
883.766	21477
883.892	21435
884.018	21310
884.143	21545
884.269	21583
884.395	21298
884.52	21256
884.646	21256
884.772	21237
884.897	21245
885.023	21207
885.148	21443
885.274	21469
885.399	21344
885.524	21264
885.65	21207
885.775	21195
885.9	21180
886.025	21348
886.15	21272
886.275	21165
886.4	21146
886.525	21260
886.65	21150
886.775	21199
886.9	21370
887.025	21401
887.149	21245
887.274	20990
887.399	21051
887.523	20971
887.648	21020
887.773	20921
887.897	21218
888.021	21081
888.146	20971
888.27	21165
888.395	21108
888.519	21028
888.643	21066
888.767	20941
888.891	20952
889.015	20739
889.139	20826
889.263	20739
889.387	20956
889.511	20979
889.635	20960
889.759	20819
889.883	20785
890.006	20663
890.13	20941
890.254	20796
890.377	20781
890.501	20442
890.624	20526
890.748	20678
890.871	20533
890.995	20374
891.118	20324
891.241	20317
891.364	20324
891.488	20423
891.611	20309
891.734	20469
891.857	20469
891.98	20381
892.103	20309
892.226	20385
892.349	20332
892.471	20161
892.594	20298
892.717	20305
892.839	20206
892.962	20286
893.085	20320
893.207	20294
893.33	20187
893.452	20180
893.575	20347
893.697	20180
893.819	20320
893.941	20488
894.064	20556
894.186	20183
894.308	20267
894.43	20313
894.552	20454
894.674	20393
894.796	20199
894.918	20221
895.04	20240
895.161	20324
895.283	20195
895.405	20275
895.526	20278
895.648	20180
895.769	20317
895.891	20267
896.012	20377
896.134	20412
896.255	20317
896.376	20263
896.498	20161
896.619	20202
896.74	20298
896.861	20263
896.982	20606
897.103	20754
897.224	20480
897.345	20465
897.466	20419
897.587	20317
897.708	20674
897.828	20590
897.949	20457
898.07	20343
898.19	20415
898.311	20568
898.431	20415
898.552	20427
898.672	20659
898.792	20514
898.913	20514
899.033	20374
899.153	20282
899.273	20149
899.393	20282
899.513	20298
899.633	20157
899.753	20233
899.873	20153
899.993	20336
900.113	20084
900.232	20286
900.352	20088
900.472	20119
900.591	20020
900.711	19970
900.83	19868
900.95	20180
901.069	20012
901.189	20020
901.308	19750
901.427	19681
901.546	19655
901.665	19559
901.784	19643
901.904	19419
902.023	19419
902.141	19228
902.26	19103
902.379	19251
902.498	19152
902.617	19129
902.735	19236
902.854	19103
902.973	19031
903.091	18711
903.21	18802
903.328	18703
903.446	18642
903.565	18601
903.683	18616
903.801	18464
903.919	18585
904.038	18422
904.156	18365
904.274	18330
904.392	18350
904.51	18289
904.627	18330
904.745	18369
904.863	18273
904.981	18155
905.098	17954
905.216	17946
905.334	18057
905.451	17988
905.569	18003
905.686	18117
905.803	18072
905.921	17798
906.038	17897
906.155	17813
906.272	17684
906.389	17882
906.506	17596
906.623	17611
906.74	17501
906.857	17512
906.974	17448
907.091	17592
907.208	17634
907.324	17524
907.441	17444
907.557	17208
907.674	17254
907.79	17208
907.907	17166
908.023	17204
908.139	17326
908.256	17189
908.372	17098
908.488	17079
908.604	17025
908.72	16877
908.836	16984
908.952	16976
909.068	16919
909.184	17083
909.3	16938
909.415	16995
909.531	16961
909.647	16797
909.762	16778
909.878	16752
909.993	16679
910.108	16637
910.224	16603
910.339	16729
910.454	16588
910.57	16554
910.685	16447
910.8	16603
910.915	16607
911.03	16481
911.145	16322
911.259	16284
911.374	16242
911.489	16147
911.604	16169
911.718	15968
911.833	15983
911.947	15983
912.062	15972
912.176	16051
912.291	15983
912.405	15960
912.519	16173
912.633	16139
912.748	16090
912.862	16021
912.976	15865
913.09	15781
913.204	15743
913.318	15812
913.431	15972
913.545	15831
913.659	15892
913.772	15766
913.886	15648
914	15576
914.113	15629
914.226	15656
914.34	15713
914.453	15477
914.566	15690
914.68	15561
914.793	15428
914.906	15378
915.019	15245
915.132	15211
915.245	15264
915.358	15199
915.47	15249
915.583	15218
915.696	15340
915.809	15264
915.921	15317
916.034	15058
916.146	15074
916.259	15085
916.371	15131
916.483	15180
916.595	15074
916.708	15032
916.82	15013
916.932	14906
917.044	14994
917.156	15017
917.268	14914
917.38	14918
917.491	14819
917.603	14838
917.715	14956
917.826	14941
917.938	14864
918.049	14769
918.161	14826
918.272	14918
918.384	14967
918.495	14804
918.606	14651
918.717	14613
918.828	14712
918.939	14678
919.05	14533
919.161	14594
919.272	14473
919.383	14492
919.494	14610
919.604	14792
919.715	14610
919.826	14507
919.936	14587
920.047	14632
920.157	14579
920.267	14842
920.378	14606
920.488	14678
920.598	14708
920.708	14845
920.818	14716
920.928	14682
921.038	14971
921.148	14948
921.258	14446
921.368	14514
921.477	14271
921.587	14294
921.697	14111
921.806	14332
921.916	14172
922.025	14111
922.134	13955
922.244	13830
922.353	13917
922.462	13826
922.571	13674
922.68	13563
922.789	13700
922.898	13609
923.007	13575
923.116	13643
923.224	13586
923.333	13525
923.442	13472
923.55	13476
923.659	13491
923.767	13506
923.876	13365
923.984	13502
924.092	13285
924.201	13476
924.309	13388
924.417	13400
924.525	13232
924.633	13270
924.741	14065
924.849	13095
924.956	13183
925.064	13076
925.172	12882
925.279	13088
925.387	12989
925.494	13061
925.602	13069
925.709	13107
925.816	12905
925.924	12966
926.031	13053
926.138	12977
926.245	13050
926.352	12829
926.459	13080
926.566	12962
926.673	12890
926.779	12757
926.886	12776
926.993	12688
927.099	12604
927.206	12521
927.312	12566
927.419	12589
927.525	12589
927.631	12528
927.737	12456
927.843	12433
927.95	12258
928.056	12471
928.162	12380
928.267	12384
928.373	12871
928.479	12441
928.585	12273
928.69	12380
928.796	12353
928.901	12323
929.007	12087
929.112	12254
929.218	12281
929.323	12159
929.428	12076
929.533	12319
929.638	12072
929.743	12026
929.848	12197
929.953	12140
930.058	11977
930.163	11752
930.267	11824
930.372	11935
930.477	11741
930.581	11980
930.685	11843
930.79	11691
930.894	11699
930.998	11668
931.103	11855
931.207	11452
931.311	11376
931.415	11315
931.519	11083
931.623	11109
