Data from test_V78500241_476.txt Node
Date: Fri Mar 25 15:13:10 CST 2022
User: usil
Spectrometer: V785-0024
Trigger mode: 0
Integration Time (sec): 4.000000E-1
Scans to average: 1
Nonlinearity correction enabled: false
Boxcar width: 0
Storing dark spectrum: false
XAxis mode: Wavelengths
Number of Pixels in Spectrum: 1024
>>>>>Begin Spectral Data<<<<<
801.071	27351
801.214	27230
801.356	26979
801.499	26925
801.641	26792
801.783	26944
801.926	27009
802.068	26998
802.211	26682
802.353	26670
802.496	26457
802.638	26507
802.78	26484
802.923	26526
803.065	26453
803.208	26518
803.35	26495
803.492	26621
803.635	26720
803.777	26545
803.919	26632
804.061	26906
804.204	26636
804.346	26575
804.488	26617
804.63	26602
804.773	26518
804.915	26720
805.057	26849
805.199	26678
805.341	26830
805.483	26765
805.626	26674
805.768	26636
805.91	26724
806.052	26667
806.194	26716
806.336	26940
806.478	26781
806.62	26727
806.762	26937
806.904	27005
807.046	27218
807.188	27233
807.33	27157
807.472	27226
807.614	27020
807.756	27104
807.898	26986
808.04	27043
808.182	26986
808.324	26990
808.465	27085
808.607	27176
808.749	27260
808.891	27408
809.033	27523
809.174	27572
809.316	27420
809.458	27374
809.6	27195
809.741	27660
809.883	27591
810.025	27580
810.166	27675
810.308	27679
810.45	27557
810.591	27663
810.733	27397
810.875	27477
811.016	27313
811.158	27237
811.299	27511
811.441	27580
811.582	27553
811.724	27249
811.865	27298
812.007	27424
812.148	27245
812.29	27370
812.431	27412
812.573	27618
812.714	27682
812.855	27972
812.997	28025
813.138	28185
813.279	28101
813.421	27892
813.562	27835
813.703	27728
813.845	27637
813.986	27412
814.127	27169
814.268	26940
814.41	27009
814.551	27043
814.692	27100
814.833	26872
814.974	27077
815.115	26998
815.256	26918
815.397	27001
815.539	27024
815.68	26929
815.821	26792
815.962	26868
816.103	26731
816.244	26598
816.385	26541
816.526	26549
816.666	26431
816.807	26233
816.948	26324
817.089	26473
817.23	26309
817.371	26370
817.512	26408
817.653	26317
817.793	26271
817.934	26298
818.075	26385
818.216	26305
818.356	26339
818.497	26134
818.638	25989
818.778	26100
818.919	26020
819.06	26107
819.2	26218
819.341	26393
819.481	26153
819.622	26549
819.762	26640
819.903	26465
820.043	26370
820.184	26495
820.324	26412
820.465	26629
820.605	26613
820.746	26453
820.886	26336
821.026	26317
821.167	26214
821.307	26370
821.447	26351
821.588	26298
821.728	26065
821.868	25944
822.008	25814
822.149	25799
822.289	25708
822.429	25499
822.569	25445
822.709	25552
822.849	25270
822.99	25274
823.13	25327
823.27	25190
823.41	25088
823.55	24989
823.69	25148
823.83	25080
823.97	25050
824.11	24913
824.25	24844
824.389	24977
824.529	25053
824.669	25023
824.809	25046
824.949	25004
825.089	24913
825.228	24886
825.368	24913
825.508	24753
825.648	24863
825.787	24825
825.927	24981
826.067	24829
826.206	24753
826.346	24924
826.485	24890
826.625	24806
826.765	24852
826.904	24852
827.044	24574
827.183	24589
827.323	24665
827.462	24601
827.601	24513
827.741	24528
827.88	24437
828.02	24460
828.159	24525
828.298	24479
828.437	24505
828.577	24490
828.716	24669
828.855	24502
828.994	24235
829.134	24235
829.273	24300
829.412	24315
829.551	24144
829.69	24076
829.829	24262
829.968	24296
830.107	24232
830.246	24159
830.385	24266
830.524	24167
830.663	24091
830.802	23912
830.941	23790
831.08	23840
831.219	23893
831.357	23935
831.496	23988
831.635	23817
831.774	23703
831.913	23726
832.051	23543
832.19	23691
832.329	23676
832.467	23543
832.606	23516
832.744	23490
832.883	23535
833.022	23406
833.16	23474
833.299	23543
833.437	23589
833.576	23615
833.714	23619
833.852	23531
833.991	23634
834.129	23642
834.267	23634
834.406	23581
834.544	23665
834.682	23623
834.821	23543
834.959	23695
835.097	23524
835.235	23630
835.373	23684
835.511	23611
835.65	23471
835.788	23543
835.926	23299
836.064	23231
836.202	23353
836.34	23436
836.478	23493
836.615	23406
836.753	23414
836.891	23474
837.029	23417
837.167	23433
837.305	23254
837.443	23284
837.58	23383
837.718	23334
837.856	23303
837.993	23227
838.131	23288
838.269	23117
838.406	23178
838.544	23048
838.681	23003
838.819	22987
838.956	22771
839.094	22641
839.231	22797
839.369	22919
839.506	23105
839.643	22938
839.781	22828
839.918	22672
840.055	22717
840.193	22717
840.33	22626
840.467	22691
840.604	22694
840.742	22927
840.879	22634
841.016	22557
841.153	22516
841.29	22557
841.427	22721
841.564	22706
841.701	22645
841.838	22645
841.975	22508
842.112	22626
842.249	22417
842.385	22432
842.522	22607
842.659	22500
842.796	22394
842.933	22500
843.069	22451
843.206	22474
843.343	22443
843.479	22329
843.616	22516
843.752	22249
843.889	22295
844.025	22314
844.162	22169
844.298	22402
844.435	22295
844.571	22101
844.708	22230
844.844	22432
844.98	22223
845.117	22405
845.253	22131
845.389	22219
845.525	21987
845.661	22010
845.798	21930
845.934	22044
846.07	21926
846.206	22059
846.342	22147
846.478	21922
846.614	21705
846.75	21709
846.886	21614
847.022	21831
847.158	21717
847.294	21660
847.429	21793
847.565	21686
847.701	21964
847.837	21625
847.972	21359
848.108	21488
848.244	21481
848.379	21416
848.515	21313
848.65	21283
848.786	21310
848.921	21287
849.057	21401
849.192	21477
849.328	21218
849.463	21275
849.598	21302
849.734	21203
849.869	21230
850.004	21039
850.14	21135
850.275	21165
850.41	21024
850.545	20979
850.68	21043
850.815	21066
850.95	21032
851.085	21260
851.22	21173
851.355	21043
851.49	21028
851.625	21081
851.76	21077
851.895	21013
852.03	21013
852.165	20982
852.299	21024
852.434	21142
852.569	21077
852.703	21108
852.838	21218
852.973	21310
853.107	21268
853.242	20998
853.376	20914
853.511	20830
853.645	20868
853.78	21032
853.914	20994
854.048	20781
854.183	20830
854.317	20914
854.451	21146
854.585	20937
854.72	20849
854.854	20914
854.988	20769
855.122	20876
855.256	20758
855.39	20819
855.524	20956
855.658	21024
855.792	20838
855.926	20967
856.06	20963
856.194	20979
856.327	20857
856.461	20804
856.595	20880
856.729	20895
856.862	20952
856.996	21001
857.13	20944
857.263	20925
857.397	20998
857.53	20925
857.664	20914
857.797	20807
857.931	21081
858.064	20937
858.197	21020
858.331	21036
858.464	20804
858.597	20746
858.731	21032
858.864	20811
858.997	20918
859.13	20876
859.263	20902
859.396	20967
859.529	20925
859.662	20872
859.795	20925
859.928	20902
860.061	21005
860.194	21096
860.327	20956
860.46	20944
860.592	21043
860.725	20956
860.858	21028
860.99	20960
861.123	20918
861.256	20872
861.388	21039
861.521	21534
861.653	20705
861.786	20705
861.918	20712
862.05	20781
862.183	20857
862.315	20921
862.447	21020
862.58	20819
862.712	20621
862.844	20792
862.976	20701
863.108	20667
863.24	21051
863.372	20537
863.504	20693
863.636	20640
863.768	20587
863.9	20526
864.032	20518
864.164	20587
864.296	20583
864.428	20743
864.559	20663
864.691	20648
864.823	20590
864.954	20545
865.086	20564
865.217	20412
865.349	20465
865.48	20602
865.612	20590
865.743	20686
865.875	20533
866.006	20461
866.137	20587
866.269	20640
866.4	20499
866.531	20400
866.662	20377
866.793	20427
866.924	20434
867.055	20370
867.186	20495
867.317	20602
867.448	20343
867.579	20366
867.71	20393
867.841	20275
867.972	20537
868.103	20381
868.233	20511
868.364	20400
868.495	20549
868.625	20667
868.756	20724
868.886	20537
869.017	20644
869.147	20769
869.278	20758
869.408	20758
869.539	20712
869.669	20853
869.799	20727
869.929	20823
870.06	20762
870.19	21020
870.32	21116
870.45	21005
870.58	20982
870.71	21142
870.84	21233
870.97	21180
871.1	21093
871.23	21180
871.36	21241
871.489	21275
871.619	21336
871.749	21283
871.879	21298
872.008	21378
872.138	21203
872.267	21230
872.397	21188
872.526	21028
872.656	21077
872.785	21100
872.915	21363
873.044	21363
873.173	21405
873.303	21313
873.432	21294
873.561	21428
873.69	21287
873.819	21214
873.948	21389
874.077	21329
874.206	21180
874.335	21340
874.464	21545
874.593	21504
874.722	21606
874.851	21660
874.979	21545
875.108	21614
875.237	21534
875.365	21382
875.494	21545
875.623	21435
875.751	21466
875.88	21580
876.008	21610
876.136	21838
876.265	21808
876.393	22059
876.521	22006
876.65	22021
876.778	21915
876.906	21895
877.034	21819
877.162	21941
877.29	21835
877.418	22002
877.546	21915
877.674	21846
877.802	21975
877.93	21854
878.058	21846
878.185	21835
878.313	21884
878.441	21823
878.568	21728
878.696	21800
878.824	21903
878.951	21819
879.079	22036
879.206	22162
879.333	22036
879.461	22055
879.588	21915
879.715	22135
879.842	22253
879.97	21934
880.097	21667
880.224	21690
880.351	21690
880.478	21793
880.605	21705
880.732	21686
880.859	21934
880.986	21675
881.112	21675
881.239	21587
881.366	21393
881.493	21294
881.619	21408
881.746	21355
881.872	21363
881.999	21321
882.125	21180
882.252	21298
882.378	21272
882.505	21321
882.631	21252
882.757	20998
882.883	21062
883.01	21005
883.136	20937
883.262	20876
883.388	20830
883.514	21017
883.64	21173
883.766	20887
883.892	20781
884.018	20735
884.143	21058
884.269	21127
884.395	20765
884.52	20629
884.646	20762
884.772	20651
884.897	20602
885.023	20746
885.148	20701
885.274	20765
885.399	20811
885.524	20655
885.65	20617
885.775	20602
885.9	20514
886.025	20746
886.15	20758
886.275	20640
886.4	20530
886.525	20613
886.65	20636
886.775	20670
886.9	20773
887.025	20872
887.149	20678
887.274	20480
887.399	20431
887.523	20484
887.648	20431
887.773	20377
887.897	20381
888.021	20492
888.146	20278
888.27	20560
888.395	20450
888.519	20419
888.643	20480
888.767	20484
888.891	20294
889.015	20187
889.139	20275
889.263	20130
889.387	20419
889.511	20370
889.635	20370
889.759	20145
889.883	20142
890.006	20107
890.13	20256
890.254	20206
890.377	20134
890.501	19917
890.624	19925
890.748	20111
890.871	19974
890.995	19742
891.118	19715
891.241	19826
891.364	19833
891.488	19982
891.611	19818
891.734	19772
891.857	19811
891.98	19791
892.103	19734
892.226	19807
892.349	19803
892.471	19548
892.594	19685
892.717	19757
892.839	19624
892.962	19765
893.085	19685
893.207	19700
893.33	19666
893.452	19635
893.575	19879
893.697	19563
893.819	19845
893.941	19879
894.064	19837
894.186	19616
894.308	19655
894.43	19757
894.552	19833
894.674	19746
894.796	19605
894.918	19670
895.04	19639
895.161	19826
895.283	19662
895.405	19548
895.526	19670
895.648	19784
895.769	19769
895.891	19742
896.012	19833
896.134	19647
896.255	19769
896.376	19738
896.498	19715
896.619	19738
896.74	19715
896.861	19795
896.982	20062
897.103	20301
897.224	20024
897.345	19940
897.466	19788
897.587	19925
897.708	20058
897.828	19967
897.949	19925
898.07	19780
898.19	19784
898.311	19917
898.431	19791
898.552	19898
898.672	20005
898.792	20035
898.913	19906
899.033	19734
899.153	19769
899.273	19670
899.393	19643
899.513	19689
899.633	19753
899.753	19643
899.873	19628
899.993	19620
900.113	19571
900.232	19590
900.352	19464
900.472	19537
900.591	19438
900.711	19453
900.83	19480
900.95	19510
901.069	19590
901.189	19331
901.308	19206
901.427	18935
901.546	19103
901.665	19080
901.784	19065
901.904	18977
902.023	18772
902.141	18551
902.26	18570
902.379	18578
902.498	18513
902.617	18513
902.735	18642
902.854	18452
902.973	18475
903.091	18190
903.21	18247
903.328	18247
903.446	18095
903.565	18091
903.683	17927
903.801	17916
903.919	18064
904.038	18034
904.156	17733
904.274	17901
904.392	17847
904.51	17783
904.627	17851
904.745	17863
904.863	17878
904.981	17630
905.098	17509
905.216	17520
905.334	17505
905.451	17524
905.569	17463
905.686	17497
905.803	17528
905.921	17292
906.038	17421
906.155	17277
906.272	17124
906.389	17307
906.506	17090
906.623	17083
906.74	17113
906.857	16999
906.974	16949
907.091	17094
907.208	17277
907.324	17204
907.441	16965
907.557	16835
907.674	16752
907.79	16721
907.907	16721
908.023	16873
908.139	16889
908.256	16592
908.372	16645
908.488	16668
908.604	16443
908.72	16398
908.836	16523
908.952	16436
909.068	16558
909.184	16554
909.3	16561
909.415	16402
909.531	16459
909.647	16139
909.762	16169
909.878	16322
909.993	16219
910.108	16234
910.224	16150
910.339	16181
910.454	16051
910.57	16029
910.685	16059
910.8	16375
910.915	16158
911.03	16021
911.145	15857
911.259	15827
911.374	15781
911.489	15770
911.604	15667
911.718	15469
911.833	15576
911.947	15435
912.062	15420
912.176	15584
912.291	15530
912.405	15622
912.519	15682
912.633	15713
912.748	15568
912.862	15450
912.976	15416
913.09	15207
913.204	15370
913.318	15317
913.431	15488
913.545	15534
913.659	15481
913.772	15359
913.886	15283
914	15150
914.113	15275
914.226	15313
914.34	15180
914.453	14963
914.566	15260
914.68	15089
914.793	15017
914.906	14880
915.019	14727
915.132	14765
915.245	14819
915.358	14735
915.47	14758
915.583	14826
915.696	14777
915.809	14804
915.921	14868
916.034	14758
916.146	14705
916.259	14610
916.371	14823
916.483	14838
916.595	14610
916.708	14583
916.82	14549
916.932	14644
917.044	14579
917.156	14556
917.268	14530
917.38	14522
917.491	14446
917.603	14488
917.715	14495
917.826	14526
917.938	14457
918.049	14358
918.161	14374
918.272	14564
918.384	14514
918.495	14427
918.606	14313
918.717	14195
918.828	14229
918.939	14252
919.05	14202
919.161	14145
919.272	14039
919.383	14084
919.494	14210
919.604	14370
919.715	14142
919.826	14195
919.936	14168
920.047	14271
920.157	14043
920.267	14400
920.378	14229
920.488	14214
920.598	14404
920.708	14575
920.818	14377
920.928	14351
921.038	14495
921.148	14450
921.258	14157
921.368	14092
921.477	13925
921.587	14058
921.697	13811
921.806	13959
921.916	13757
922.025	13567
922.134	13605
922.244	13464
922.353	13605
922.462	13426
922.571	13445
922.68	13327
922.789	13175
922.898	13263
923.007	13179
923.116	13335
923.224	13141
923.333	13152
923.442	13126
923.55	13072
923.659	13034
923.767	13103
923.876	13034
923.984	13110
924.092	12970
924.201	13046
924.309	12981
924.417	13046
924.525	12924
924.633	12901
924.741	13791
924.849	12673
924.956	12821
925.064	12688
925.172	12604
925.279	12589
925.387	12677
925.494	12673
925.602	12764
925.709	12722
925.816	12616
925.924	12616
926.031	12760
926.138	12536
926.245	12627
926.352	12506
926.459	12703
926.566	12738
926.673	12601
926.779	12426
926.886	12445
926.993	12311
927.099	12216
927.206	12216
927.312	12125
927.419	12266
927.525	12205
927.631	12243
927.737	12171
927.843	12095
927.95	12015
928.056	12083
928.162	12186
928.267	12171
928.373	12612
928.479	12152
928.585	11870
928.69	11969
928.796	12117
928.901	11958
929.007	11794
929.112	11912
929.218	11851
929.323	11840
929.428	11809
929.533	11923
929.638	11786
929.743	11764
929.848	11722
929.953	11688
930.058	11703
930.163	11558
930.267	11448
930.372	11615
930.477	11395
930.581	11699
930.685	11600
930.79	11372
930.894	11379
930.998	11296
931.103	11524
931.207	11193
931.311	11033
931.415	10976
931.519	10778
931.623	10748
