Data from test_V78500241_2804.txt Node
Date: Fri Mar 25 15:29:23 CST 2022
User: usil
Spectrometer: V785-0024
Trigger mode: 0
Integration Time (sec): 4.000000E-1
Scans to average: 1
Nonlinearity correction enabled: false
Boxcar width: 0
Storing dark spectrum: false
XAxis mode: Wavelengths
Number of Pixels in Spectrum: 1024
>>>>>Begin Spectral Data<<<<<
801.071	27241
801.214	27135
801.356	27089
801.499	26853
801.641	26727
801.783	26880
801.926	26731
802.068	26887
802.211	26697
802.353	26602
802.496	26419
802.638	26381
802.78	26473
802.923	26362
803.065	26351
803.208	26221
803.35	26377
803.492	26469
803.635	26571
803.777	26419
803.919	26526
804.061	26929
804.204	26712
804.346	26556
804.488	26560
804.63	26541
804.773	26522
804.915	26530
805.057	26716
805.199	26530
805.341	26598
805.483	26670
805.626	26682
805.768	26701
805.91	26842
806.052	26686
806.194	26613
806.336	26758
806.478	26720
806.62	26659
806.762	26853
806.904	26910
807.046	27245
807.188	27104
807.33	27116
807.472	27165
807.614	26834
807.756	26990
807.898	26918
808.04	26811
808.182	26963
808.324	26842
808.465	26956
808.607	27211
808.749	27336
808.891	27443
809.033	27359
809.174	27241
809.316	27443
809.458	27203
809.6	27348
809.741	27249
809.883	27393
810.025	27530
810.166	27603
810.308	27587
810.45	27492
810.591	27431
810.733	27245
810.875	27165
811.016	27275
811.158	27199
811.299	27344
811.441	27488
811.582	27443
811.724	27321
811.865	27264
812.007	27169
812.148	27363
812.29	27466
812.431	27466
812.573	27557
812.714	27648
812.855	27686
812.997	27736
813.138	27994
813.279	27857
813.421	27838
813.562	27671
813.703	27500
813.845	27427
813.986	27066
814.127	27085
814.268	27017
814.41	26887
814.551	26952
814.692	26830
814.833	26857
814.974	26853
815.115	26868
815.256	26754
815.397	26785
815.539	26830
815.68	26781
815.821	26590
815.962	26750
816.103	26750
816.244	26514
816.385	26453
816.526	26396
816.666	26366
816.807	26233
816.948	26332
817.089	26263
817.23	26290
817.371	26187
817.512	26161
817.653	26145
817.793	26050
817.934	26195
818.075	26043
818.216	26221
818.356	26107
818.497	25993
818.638	25894
818.778	25940
818.919	25898
819.06	25944
819.2	26130
819.341	26084
819.481	26202
819.622	26263
819.762	26606
819.903	26404
820.043	26347
820.184	26317
820.324	26381
820.465	26404
820.605	26317
820.746	26309
820.886	26199
821.026	26221
821.167	26263
821.307	26324
821.447	26172
821.588	26005
821.728	26046
821.868	25712
822.008	25677
822.149	25620
822.289	25647
822.429	25388
822.569	25514
822.709	25392
822.849	25175
822.99	25099
823.13	25057
823.27	25027
823.41	24905
823.55	24821
823.69	25027
823.83	24954
823.97	25034
824.11	24604
824.25	24703
824.389	24856
824.529	24681
824.669	24875
824.809	24909
824.949	24867
825.089	24772
825.228	24894
825.368	24612
825.508	24574
825.648	24650
825.787	24715
825.927	24741
826.067	24601
826.206	24509
826.346	24753
826.485	24677
826.625	24658
826.765	24696
826.904	24616
827.044	24338
827.183	24365
827.323	24292
827.462	24509
827.601	24452
827.741	24266
827.88	24353
828.02	24235
828.159	24235
828.298	24270
828.437	24403
828.577	24163
828.716	24429
828.855	24209
828.994	24159
829.134	24083
829.273	24129
829.412	23999
829.551	23889
829.69	24133
829.829	23992
829.968	24228
830.107	24083
830.246	24079
830.385	23996
830.524	23950
830.663	23878
830.802	23790
830.941	23684
831.08	23600
831.219	23661
831.357	23779
831.496	23889
831.635	23649
831.774	23482
831.913	23444
832.051	23391
832.19	23292
832.329	23463
832.467	23277
832.606	23356
832.744	23250
832.883	23288
833.022	23341
833.16	23292
833.299	23269
833.437	23364
833.576	23509
833.714	23261
833.852	23467
833.991	23391
834.129	23467
834.267	23311
834.406	23448
834.544	23455
834.682	23376
834.821	23356
834.959	23436
835.097	23345
835.235	23531
835.373	23429
835.511	23398
835.65	23261
835.788	23242
835.926	23212
836.064	22957
836.202	23003
836.34	23254
836.478	23364
836.615	23185
836.753	23102
836.891	23417
837.029	23220
837.167	23159
837.305	23086
837.443	23090
837.58	23041
837.718	23200
837.856	23083
837.993	22991
838.131	23094
838.269	22957
838.406	23048
838.544	23014
838.681	22816
838.819	22615
838.956	22497
839.094	22599
839.231	22645
839.369	22637
839.506	22915
839.643	22664
839.781	22512
839.918	22527
840.055	22474
840.193	22561
840.33	22485
840.467	22531
840.604	22573
840.742	22782
840.879	22402
841.016	22516
841.153	22303
841.29	22580
841.427	22386
841.564	22451
841.701	22363
841.838	22333
841.975	22291
842.112	22413
842.249	22405
842.385	22242
842.522	22424
842.659	22291
842.796	22333
842.933	22185
843.069	22215
843.206	22234
843.343	22242
843.479	22211
843.616	22265
843.752	22086
843.889	22025
844.025	22166
844.162	22128
844.298	22006
844.435	22040
844.571	21968
844.708	22074
844.844	22185
844.98	22051
845.117	22109
845.253	22006
845.389	21800
845.525	21899
845.661	21835
845.798	21682
845.934	21827
846.07	21671
846.206	21778
846.342	21907
846.478	21698
846.614	21542
846.75	21412
846.886	21367
847.022	21576
847.158	21473
847.294	21641
847.429	21530
847.565	21557
847.701	21785
847.837	21340
847.972	21070
848.108	21291
848.244	21256
848.379	21157
848.515	21104
848.65	21005
848.786	21089
848.921	21009
849.057	21233
849.192	21226
849.328	20994
849.463	21013
849.598	21036
849.734	20921
849.869	20929
850.004	20804
850.14	20872
850.275	20918
850.41	20842
850.545	20674
850.68	20804
850.815	20990
850.95	20773
851.085	20956
851.22	21028
851.355	20823
851.49	20773
851.625	20906
851.76	20823
851.895	20758
852.03	20678
852.165	20758
852.299	20838
852.434	20982
852.569	20872
852.703	20864
852.838	20800
852.973	20952
853.107	20963
853.242	20735
853.376	20773
853.511	20571
853.645	20568
853.78	20773
853.914	20594
854.048	20648
854.183	20522
854.317	20644
854.451	20754
854.585	20712
854.72	20640
854.854	20754
854.988	20648
855.122	20655
855.256	20530
855.39	20648
855.524	20716
855.658	20811
855.792	20621
855.926	20796
856.06	20743
856.194	20750
856.327	20621
856.461	20712
856.595	20568
856.729	20708
856.862	20777
856.996	20663
857.13	20659
857.263	20823
857.397	20853
857.53	20636
857.664	20716
857.797	20712
857.931	20743
858.064	20746
858.197	20697
858.331	20568
858.464	20617
858.597	20579
858.731	20621
858.864	20594
858.997	20590
859.13	20617
859.263	20606
859.396	20792
859.529	20663
859.662	20571
859.795	20583
859.928	20629
860.061	20788
860.194	20845
860.327	20701
860.46	20792
860.592	20796
860.725	20651
860.858	20804
860.99	20689
861.123	20598
861.256	20549
861.388	20632
861.521	21329
861.653	20594
861.786	20454
861.918	20492
862.05	20480
862.183	20560
862.315	20686
862.447	20602
862.58	20598
862.712	20488
862.844	20328
862.976	20457
863.108	20374
863.24	20811
863.372	20362
863.504	20332
863.636	20366
863.768	20358
863.9	20499
864.032	20275
864.164	20298
864.296	20355
864.428	20522
864.559	20351
864.691	20465
864.823	20431
864.954	20324
865.086	20298
865.217	20195
865.349	20187
865.48	20286
865.612	20138
865.743	20347
865.875	20343
866.006	20290
866.137	20336
866.269	20183
866.4	20172
866.531	20081
866.662	20199
866.793	20233
866.924	20294
867.055	20172
867.186	20180
867.317	20202
867.448	20153
867.579	20225
867.71	20142
867.841	20176
867.972	20092
868.103	20259
868.233	20225
868.364	20221
868.495	20358
868.625	20461
868.756	20541
868.886	20351
869.017	20492
869.147	20511
869.278	20473
869.408	20476
869.539	20419
869.669	20488
869.799	20385
869.929	20613
870.06	20499
870.19	20842
870.32	20663
870.45	20785
870.58	20781
870.71	20982
870.84	21112
870.97	20838
871.1	20838
871.23	21020
871.36	20857
871.489	20971
871.619	21051
871.749	21081
871.879	21135
872.008	21214
872.138	21100
872.267	21116
872.397	20857
872.526	20883
872.656	20925
872.785	20849
872.915	21135
873.044	21093
873.173	21017
873.303	21127
873.432	21150
873.561	21165
873.69	21161
873.819	21028
873.948	21241
874.077	21096
874.206	20986
874.335	21055
874.464	21241
874.593	21230
874.722	21344
874.851	21428
874.979	21386
875.108	21344
875.237	21214
875.365	21294
875.494	21203
875.623	21367
875.751	21355
875.88	21443
876.008	21428
876.136	21542
876.265	21709
876.393	21793
876.521	21766
876.65	21781
876.778	21823
876.906	21652
877.034	21595
877.162	21660
877.29	21671
877.418	21679
877.546	21580
877.674	21644
877.802	21720
877.93	21610
878.058	21576
878.185	21519
878.313	21732
878.441	21637
878.568	21507
878.696	21553
878.824	21648
878.951	21671
879.079	21835
879.206	22013
879.333	21800
879.461	21686
879.588	21641
879.715	21755
879.842	21915
879.97	21728
880.097	21473
880.224	21435
880.351	21511
880.478	21389
880.605	21485
880.732	21557
880.859	21774
880.986	21595
881.112	21652
881.239	21355
881.366	21264
881.493	21096
881.619	20990
881.746	21100
881.872	21058
881.999	21104
882.125	21005
882.252	21093
882.378	21089
882.505	21119
882.631	20880
882.757	20693
882.883	20849
883.01	20842
883.136	20880
883.262	20663
883.388	20632
883.514	20769
883.64	20701
883.766	20678
883.892	20625
884.018	20648
884.143	20746
884.269	20724
884.395	20545
884.52	20400
884.646	20488
884.772	20305
884.897	20332
885.023	20412
885.148	20484
885.274	20606
885.399	20511
885.524	20347
885.65	20412
885.775	20495
885.9	20320
886.025	20625
886.15	20412
886.275	20465
886.4	20317
886.525	20347
886.65	20290
886.775	20431
886.9	20522
887.025	20480
887.149	20362
887.274	20107
887.399	20294
887.523	20252
887.648	20168
887.773	20138
887.897	20298
888.021	20271
888.146	20062
888.27	20324
888.395	20244
888.519	20248
888.643	20256
888.767	20153
888.891	20149
889.015	19955
889.139	20161
889.263	20001
889.387	20153
889.511	20275
889.635	20107
889.759	19974
889.883	20001
890.006	20050
890.13	20119
890.254	19868
890.377	19909
890.501	19784
890.624	19708
890.748	19776
890.871	19643
890.995	19548
891.118	19552
891.241	19597
891.364	19731
891.488	19601
891.611	19575
891.734	19552
891.857	19582
891.98	19628
892.103	19609
892.226	19655
892.349	19518
892.471	19400
892.594	19559
892.717	19540
892.839	19426
892.962	19495
893.085	19605
893.207	19533
893.33	19457
893.452	19518
893.575	19559
893.697	19499
893.819	19609
893.941	19772
894.064	19696
894.186	19518
894.308	19441
894.43	19590
894.552	19670
894.674	19594
894.796	19468
894.918	19460
895.04	19483
895.161	19438
895.283	19670
895.405	19377
895.526	19445
895.648	19480
895.769	19419
895.891	19567
896.012	19643
896.134	19529
896.255	19635
896.376	19590
896.498	19502
896.619	19590
896.74	19586
896.861	19635
896.982	19742
897.103	19932
897.224	19807
897.345	19639
897.466	19647
897.587	19776
897.708	19761
897.828	19826
897.949	19753
898.07	19582
898.19	19780
898.311	19875
898.431	19712
898.552	19742
898.672	19890
898.792	19845
898.913	19723
899.033	19712
899.153	19613
899.273	19639
899.393	19544
899.513	19582
899.633	19556
899.753	19480
899.873	19472
899.993	19548
900.113	19464
900.232	19422
900.352	19392
900.472	19346
900.591	19343
900.711	19426
900.83	19316
900.95	19453
901.069	19533
901.189	19244
901.308	18993
901.427	18905
901.546	18840
901.665	18935
901.784	18924
901.904	18814
902.023	18711
902.141	18536
902.26	18437
902.379	18544
902.498	18509
902.617	18376
902.735	18490
902.854	18509
902.973	18388
903.091	18152
903.21	18159
903.328	18121
903.446	17980
903.565	17939
903.683	18053
903.801	17859
903.919	17885
904.038	17851
904.156	17714
904.274	17847
904.392	17729
904.51	17676
904.627	17676
904.745	17729
904.863	17722
904.981	17604
905.098	17360
905.216	17410
905.334	17493
905.451	17448
905.569	17478
905.686	17452
905.803	17421
905.921	17136
906.038	17261
906.155	17162
906.272	17003
906.389	17113
906.506	16930
906.623	16896
906.74	16778
906.857	16843
906.974	16710
907.091	16900
907.208	17037
907.324	16984
907.441	16782
907.557	16634
907.674	16626
907.79	16580
907.907	16675
908.023	16694
908.139	16592
908.256	16489
908.372	16603
908.488	16489
908.604	16440
908.72	16306
908.836	16470
908.952	16352
909.068	16295
909.184	16382
909.3	16367
909.415	16352
909.531	16344
909.647	16086
909.762	16006
909.878	15994
909.993	16013
910.108	16017
910.224	15983
910.339	16071
910.454	15827
910.57	15842
910.685	15789
910.8	16116
910.915	15991
911.03	15915
911.145	15774
911.259	15675
911.374	15701
911.489	15667
911.604	15603
911.718	15416
911.833	15431
911.947	15332
912.062	15340
912.176	15439
912.291	15496
912.405	15462
912.519	15679
912.633	15534
912.748	15428
912.862	15397
912.976	15279
913.09	15108
913.204	15241
913.318	15256
913.431	15435
913.545	15359
913.659	15336
913.772	15108
913.886	15135
914	15020
914.113	15085
914.226	15203
914.34	15138
914.453	14864
914.566	15116
914.68	14895
914.793	14883
914.906	14758
915.019	14613
915.132	14659
915.245	14545
915.358	14750
915.47	14632
915.583	14648
915.696	14678
915.809	14887
915.921	14746
916.034	14655
916.146	14587
916.259	14537
916.371	14724
916.483	14678
916.595	14530
916.708	14545
916.82	14583
916.932	14568
917.044	14442
917.156	14438
917.268	14347
917.38	14313
917.491	14294
917.603	14351
917.715	14442
917.826	14438
917.938	14336
918.049	14187
918.161	14259
918.272	14419
918.384	14492
918.495	14164
918.606	14168
918.717	14046
918.828	14172
918.939	14123
919.05	14069
919.161	14138
919.272	13970
919.383	13982
919.494	14100
919.604	14324
919.715	14084
919.826	13932
919.936	14046
920.047	14164
920.157	14172
920.267	14374
920.378	14081
920.488	14073
920.598	14332
920.708	14374
920.818	14225
920.928	14206
921.038	14282
921.148	14336
921.258	13989
921.368	13898
921.477	13871
921.587	13860
921.697	13620
921.806	13887
921.916	13624
922.025	13556
922.134	13468
922.244	13407
922.353	13529
922.462	13259
922.571	13354
922.68	13080
922.789	13114
922.898	13209
923.007	13175
923.116	13206
923.224	13118
923.333	13034
923.442	13027
923.55	13004
923.659	12947
923.767	13019
923.876	13012
923.984	12970
924.092	12749
924.201	12939
924.309	12939
924.417	12894
924.525	12852
924.633	12806
924.741	13567
924.849	12623
924.956	12738
925.064	12513
925.172	12513
925.279	12521
925.387	12635
925.494	12593
925.602	12696
925.709	12585
925.816	12536
925.924	12460
926.031	12616
926.138	12521
926.245	12460
926.352	12464
926.459	12532
926.566	12563
926.673	12521
926.779	12273
926.886	12296
926.993	12285
927.099	12213
927.206	12144
927.312	12102
927.419	12201
927.525	12125
927.631	12182
927.737	12045
927.843	12022
927.95	11923
928.056	11996
928.162	12011
928.267	12064
928.373	12692
928.479	12053
928.585	11813
928.69	11904
928.796	11973
928.901	11798
929.007	11672
929.112	11855
929.218	11786
929.323	11745
929.428	11733
929.533	11798
929.638	11608
929.743	11592
929.848	11691
929.953	11585
930.058	11570
930.163	11433
930.267	11345
930.372	11581
930.477	11398
930.581	11592
930.685	11471
930.79	11334
930.894	11353
930.998	11284
931.103	11410
931.207	11060
931.311	11006
931.415	10900
931.519	10714
931.623	10714
