Data from test_V78500241_1308.txt Node
Date: Fri Mar 25 15:18:57 CST 2022
User: usil
Spectrometer: V785-0024
Trigger mode: 0
Integration Time (sec): 4.000000E-1
Scans to average: 1
Nonlinearity correction enabled: false
Boxcar width: 0
Storing dark spectrum: false
XAxis mode: Wavelengths
Number of Pixels in Spectrum: 1024
>>>>>Begin Spectral Data<<<<<
801.071	28143
801.214	27991
801.356	27728
801.499	27580
801.641	27515
801.783	27488
801.926	27701
802.068	27466
802.211	27359
802.353	27435
802.496	27237
802.638	27340
802.78	27184
802.923	27180
803.065	27230
803.208	27112
803.35	27317
803.492	27268
803.635	27336
803.777	27275
803.919	27363
804.061	27671
804.204	27564
804.346	27325
804.488	27408
804.63	27382
804.773	27427
804.915	27576
805.057	27633
805.199	27454
805.341	27473
805.483	27606
805.626	27576
805.768	27545
805.91	27393
806.052	27576
806.194	27481
806.336	27572
806.478	27564
806.62	27576
806.762	27766
806.904	27778
807.046	28059
807.188	28135
807.33	27998
807.472	27854
807.614	27865
807.756	27835
807.898	27842
808.04	27842
808.182	27797
808.324	27724
808.465	27846
808.607	28029
808.749	28234
808.891	28352
809.033	28344
809.174	28246
809.316	27998
809.458	28230
809.6	28025
809.741	28230
809.883	28428
810.025	28580
810.166	28413
810.308	28500
810.45	28386
810.591	28466
810.733	28238
810.875	28234
811.016	28032
811.158	28143
811.299	28215
811.441	28405
811.582	28200
811.724	28169
811.865	28109
812.007	28162
812.148	28185
812.29	28284
812.431	28409
812.573	28527
812.714	28573
812.855	28653
812.997	28858
813.138	29105
813.279	28854
813.421	28835
813.562	28774
813.703	28557
813.845	28557
813.986	28200
814.127	27873
814.268	27930
814.41	28010
814.551	27911
814.692	28040
814.833	27903
814.974	27842
815.115	28002
815.256	27755
815.397	27766
815.539	27816
815.68	27679
815.821	27618
815.962	27603
816.103	27622
816.244	27656
816.385	27526
816.526	27545
816.666	27386
816.807	27340
816.948	27256
817.089	27405
817.23	27294
817.371	27150
817.512	27195
817.653	27275
817.793	27230
817.934	27283
818.075	27154
818.216	27310
818.356	27150
818.497	27070
818.638	27043
818.778	26998
818.919	27112
819.06	26994
819.2	27055
819.341	27214
819.481	27279
819.622	27211
819.762	27561
819.903	27538
820.043	27405
820.184	27272
820.324	27386
820.465	27226
820.605	27332
820.746	27222
820.886	27211
821.026	27359
821.167	27245
821.307	27344
821.447	27161
821.588	27180
821.728	26891
821.868	26899
822.008	26800
822.149	26693
822.289	26750
822.429	26408
822.569	26339
822.709	26473
822.849	26157
822.99	26187
823.13	26191
823.27	26145
823.41	26043
823.55	25845
823.69	26073
823.83	25925
823.97	26069
824.11	25883
824.25	25753
824.389	25769
824.529	25940
824.669	25818
824.809	25993
824.949	25947
825.089	25906
825.228	26024
825.368	25715
825.508	25761
825.648	25738
825.787	25765
825.927	25780
826.067	25594
826.206	25651
826.346	25814
826.485	25700
826.625	25727
826.765	25826
826.904	25807
827.044	25544
827.183	25499
827.323	25438
827.462	25468
827.601	25548
827.741	25430
827.88	25468
828.02	25228
828.159	25434
828.298	25346
828.437	25609
828.577	25407
828.716	25578
828.855	25396
828.994	25133
829.134	25069
829.273	25110
829.412	25141
829.551	25145
829.69	25240
829.829	25129
829.968	25133
830.107	25122
830.246	25255
830.385	25122
830.524	25008
830.663	24981
830.802	24806
830.941	24696
831.08	24707
831.219	24856
831.357	24715
831.496	24943
831.635	24779
831.774	24566
831.913	24635
832.051	24460
832.19	24490
832.329	24703
832.467	24437
832.606	24471
832.744	24437
832.883	24391
833.022	24429
833.16	24441
833.299	24555
833.437	24479
833.576	24502
833.714	24589
833.852	24627
833.991	24467
834.129	24616
834.267	24582
834.406	24574
834.544	24639
834.682	24448
834.821	24445
834.959	24528
835.097	24467
835.235	24509
835.373	24418
835.511	24422
835.65	24418
835.788	24372
835.926	24334
836.064	24079
836.202	24190
836.34	24384
836.478	24376
836.615	24266
836.753	24304
836.891	24350
837.029	24243
837.167	24186
837.305	24323
837.443	24155
837.58	24220
837.718	24201
837.856	24133
837.993	24136
838.131	24167
838.269	24091
838.406	24076
838.544	23958
838.681	23790
838.819	23847
838.956	23611
839.094	23497
839.231	23771
839.369	23805
839.506	24007
839.643	23916
839.781	23653
839.918	23573
840.055	23592
840.193	23649
840.33	23505
840.467	23623
840.604	23581
840.742	23961
840.879	23383
841.016	23501
841.153	23406
841.29	23668
841.427	23497
841.564	23627
841.701	23577
841.838	23402
841.975	23471
842.112	23471
842.249	23349
842.385	23250
842.522	23421
842.659	23227
842.796	23341
842.933	23414
843.069	23326
843.206	23147
843.343	23292
843.479	23193
843.616	23216
843.752	23121
843.889	23090
844.025	23170
844.162	23010
844.298	23102
844.435	23105
844.571	23170
844.708	23113
844.844	23265
844.98	23277
845.117	23086
845.253	23025
845.389	23079
845.525	23025
845.661	22961
845.798	22824
845.934	22854
846.07	22710
846.206	22953
846.342	22908
846.478	22790
846.614	22481
846.75	22405
846.886	22504
847.022	22675
847.158	22603
847.294	22531
847.429	22611
847.565	22512
847.701	22854
847.837	22299
847.972	22215
848.108	22363
848.244	22356
848.379	22261
848.515	22139
848.65	22036
848.786	22177
848.921	22196
849.057	22299
849.192	22181
849.328	22314
849.463	22185
849.598	22093
849.734	22040
849.869	21857
850.004	21854
850.14	21983
850.275	21953
850.41	21800
850.545	21888
850.68	21827
850.815	21922
850.95	21941
851.085	21945
851.22	22025
851.355	21941
851.49	21964
851.625	21899
851.76	21911
851.895	21842
852.03	21717
852.165	21838
852.299	21759
852.434	21968
852.569	21861
852.703	21907
852.838	21915
852.973	22044
853.107	21911
853.242	21812
853.376	21682
853.511	21580
853.645	21603
853.78	21793
853.914	21789
854.048	21610
854.183	21629
854.317	21884
854.451	21838
854.585	21762
854.72	21682
854.854	21812
854.988	21504
855.122	21618
855.256	21401
855.39	21743
855.524	21660
855.658	21713
855.792	21720
855.926	21652
856.06	21793
856.194	21762
856.327	21644
856.461	21599
856.595	21610
856.729	21663
856.862	21850
856.996	21701
857.13	21793
857.263	21755
857.397	21789
857.53	21694
857.664	21679
857.797	21720
857.931	21755
858.064	21713
858.197	21819
858.331	21629
858.464	21599
858.597	21515
858.731	21747
858.864	21690
858.997	21667
859.13	21785
859.263	21705
859.396	21869
859.529	21652
859.662	21701
859.795	21583
859.928	21751
860.061	21781
860.194	21888
860.327	21713
860.46	21724
860.592	21865
860.725	21831
860.858	21915
860.99	21857
861.123	21610
861.256	21622
861.388	21603
861.521	22363
861.653	21568
861.786	21496
861.918	21492
862.05	21694
862.183	21583
862.315	21641
862.447	21641
862.58	21564
862.712	21481
862.844	21348
862.976	21641
863.108	21435
863.24	21800
863.372	21393
863.504	21462
863.636	21370
863.768	21477
863.9	21416
864.032	21348
864.164	21370
864.296	21374
864.428	21557
864.559	21454
864.691	21382
864.823	21500
864.954	21397
865.086	21367
865.217	21279
865.349	21310
865.48	21336
865.612	21237
865.743	21401
865.875	21230
866.006	21294
866.137	21310
866.269	21401
866.4	21310
866.531	21359
866.662	21165
866.793	21154
866.924	21233
867.055	21272
867.186	21310
867.317	21237
867.448	21058
867.579	21214
867.71	21146
867.841	21135
867.972	21211
868.103	21131
868.233	21138
868.364	21283
868.495	21291
868.625	21523
868.756	21564
868.886	21386
869.017	21450
869.147	21504
869.278	21523
869.408	21447
869.539	21496
869.669	21534
869.799	21488
869.929	21629
870.06	21667
870.19	21751
870.32	21812
870.45	21812
870.58	21778
870.71	21960
870.84	21873
870.97	21709
871.1	21739
871.23	22017
871.36	22021
871.489	22040
871.619	21869
871.749	22078
871.879	22051
872.008	22242
872.138	22169
872.267	22051
872.397	21941
872.526	21739
872.656	21964
872.785	21800
872.915	21994
873.044	22185
873.173	22048
873.303	22029
873.432	22078
873.561	22154
873.69	22090
873.819	22063
873.948	22135
874.077	22017
874.206	21960
874.335	22211
874.464	22211
874.593	22246
874.722	22204
874.851	22322
874.979	22291
875.108	22363
875.237	22211
875.365	22284
875.494	22268
875.623	22287
875.751	22207
875.88	22284
876.008	22424
876.136	22382
876.265	22774
876.393	22797
876.521	22702
876.65	22721
876.778	22683
876.906	22683
877.034	22660
877.162	22611
877.29	22599
877.418	22630
877.546	22698
877.674	22694
877.802	22664
877.93	22683
878.058	22538
878.185	22474
878.313	22691
878.441	22584
878.568	22466
878.696	22474
878.824	22500
878.951	22733
879.079	22740
879.206	22809
879.333	22744
879.461	22645
879.588	22755
879.715	22721
879.842	22930
879.97	22725
880.097	22577
880.224	22561
880.351	22561
880.478	22504
880.605	22428
880.732	22405
880.859	22660
880.986	22508
881.112	22466
881.239	22314
881.366	22314
881.493	22204
881.619	22051
881.746	22082
881.872	22006
881.999	22063
882.125	21926
882.252	21994
882.378	21994
882.505	22109
882.631	22006
882.757	21648
882.883	21903
883.01	21709
883.136	21606
883.262	21530
883.388	21443
883.514	21690
883.64	21724
883.766	21587
883.892	21507
884.018	21603
884.143	21633
884.269	21789
884.395	21496
884.52	21306
884.646	21401
884.772	21332
884.897	21157
885.023	21272
885.148	21386
885.274	21496
885.399	21397
885.524	21233
885.65	21355
885.775	21447
885.9	21382
886.025	21477
886.15	21416
886.275	21298
886.4	21256
886.525	21298
886.65	21199
886.775	21313
886.9	21496
887.025	21481
887.149	21359
887.274	21070
887.399	21074
887.523	21119
887.648	21017
887.773	20910
887.897	21272
888.021	21268
888.146	21043
888.27	21226
888.395	21237
888.519	21123
888.643	21089
888.767	21165
888.891	21009
889.015	20906
889.139	20963
889.263	21005
889.387	21055
889.511	21272
889.635	21077
889.759	20925
889.883	20998
890.006	20853
890.13	20975
890.254	20682
890.377	20811
890.501	20686
890.624	20655
890.748	20701
890.871	20461
890.995	20568
891.118	20400
891.241	20370
891.364	20457
891.488	20579
891.611	20454
891.734	20492
891.857	20602
891.98	20511
892.103	20488
892.226	20488
892.349	20446
892.471	20267
892.594	20488
892.717	20400
892.839	20400
892.962	20415
893.085	20492
893.207	20412
893.33	20263
893.452	20252
893.575	20526
893.697	20301
893.819	20571
893.941	20575
894.064	20549
894.186	20278
894.308	20301
894.43	20317
894.552	20549
894.674	20434
894.796	20275
894.918	20351
895.04	20271
895.161	20396
895.283	20461
895.405	20374
895.526	20294
895.648	20309
895.769	20400
895.891	20320
896.012	20552
896.134	20362
896.255	20385
896.376	20317
896.498	20275
896.619	20400
896.74	20480
896.861	20480
896.982	20731
897.103	20811
897.224	20594
897.345	20682
897.466	20511
897.587	20571
897.708	20697
897.828	20644
897.949	20503
898.07	20431
898.19	20556
898.311	20568
898.431	20583
898.552	20625
898.672	20606
898.792	20583
898.913	20613
899.033	20396
899.153	20305
899.273	20267
899.393	20324
899.513	20355
899.633	20332
899.753	20301
899.873	20301
899.993	20328
900.113	20225
900.232	20294
900.352	20267
900.472	20122
900.591	20054
900.711	20088
900.83	20039
900.95	20233
901.069	20126
901.189	19898
901.308	19780
901.427	19597
901.546	19689
901.665	19765
901.784	19674
901.904	19601
902.023	19438
902.141	19183
902.26	19129
902.379	19282
902.498	19213
902.617	19057
902.735	19209
902.854	19095
902.973	19088
903.091	18886
903.21	18878
903.328	18852
903.446	18783
903.565	18707
903.683	18635
903.801	18525
903.919	18616
904.038	18661
904.156	18475
904.274	18456
904.392	18365
904.51	18429
904.627	18490
904.745	18433
904.863	18566
904.981	18220
905.098	18133
905.216	18072
905.334	18053
905.451	18129
905.569	18083
905.686	18136
905.803	18060
905.921	17851
906.038	17954
906.155	17882
906.272	17836
906.389	17832
906.506	17760
906.623	17627
906.74	17524
906.857	17566
906.974	17562
907.091	17665
907.208	17718
907.324	17722
907.441	17600
907.557	17341
907.674	17318
907.79	17284
907.907	17265
908.023	17425
908.139	17383
908.256	17277
908.372	17273
908.488	17246
908.604	16999
908.72	16984
908.836	17010
908.952	17052
909.068	17083
909.184	17204
909.3	17045
909.415	16991
909.531	17067
909.647	16607
909.762	16831
909.878	16706
909.993	16774
910.108	16858
910.224	16675
910.339	16744
910.454	16584
910.57	16596
910.685	16573
910.8	16740
910.915	16710
911.03	16485
911.145	16413
911.259	16443
911.374	16291
911.489	16310
911.604	16181
911.718	16112
911.833	16234
911.947	16002
912.062	15994
912.176	16067
912.291	16139
912.405	16036
912.519	16226
912.633	16238
912.748	16101
912.862	16086
912.976	15998
913.09	15728
913.204	15975
913.318	15903
913.431	16055
913.545	15991
913.659	16071
913.772	15876
913.886	15793
914	15743
914.113	15865
914.226	15823
914.34	15762
914.453	15530
914.566	15812
914.68	15542
914.793	15568
914.906	15294
915.019	15268
915.132	15283
915.245	15268
915.358	15370
915.47	15302
915.583	15359
915.696	15348
915.809	15420
915.921	15382
916.034	15233
916.146	15154
916.259	15169
916.371	15230
916.483	15154
916.595	15093
916.708	15260
916.82	15039
916.932	15146
917.044	14914
917.156	15112
917.268	14941
917.38	14944
917.491	15039
917.603	14952
917.715	15085
917.826	15085
917.938	14807
918.049	14796
918.161	14952
918.272	15024
918.384	14979
918.495	14887
918.606	14739
918.717	14693
918.828	14743
918.939	14769
919.05	14610
919.161	14598
919.272	14587
919.383	14488
919.494	14815
919.604	14948
919.715	14689
919.826	14594
919.936	14792
920.047	14663
920.157	14674
920.267	14838
920.378	14640
920.488	14560
920.598	14758
920.708	14982
920.818	14785
920.928	14705
921.038	14861
921.148	14849
921.258	14640
921.368	14465
921.477	14385
921.587	14423
921.697	14313
921.806	14488
921.916	14191
922.025	14065
922.134	14020
922.244	13963
922.353	14035
922.462	13890
922.571	13860
922.68	13738
922.789	13658
922.898	13571
923.007	13605
923.116	13708
923.224	13552
923.333	13571
923.442	13464
923.55	13472
923.659	13384
923.767	13499
923.876	13476
923.984	13441
924.092	13289
924.201	13571
924.309	13468
924.417	13468
924.525	13255
924.633	13308
924.741	14259
924.849	13179
924.956	13289
925.064	13206
925.172	13095
925.279	13038
925.387	13023
925.494	13069
925.602	13255
925.709	13118
925.816	13046
925.924	12951
926.031	13061
926.138	12958
926.245	13084
926.352	12939
926.459	12962
926.566	13103
926.673	12817
926.779	12825
926.886	12871
926.993	12627
927.099	12700
927.206	12559
927.312	12570
927.419	12654
927.525	12597
927.631	12684
927.737	12525
927.843	12437
927.95	12418
928.056	12433
928.162	12414
928.267	12490
928.373	13061
928.479	12627
928.585	12194
928.69	12448
928.796	12498
928.901	12289
929.007	12216
929.112	12262
929.218	12315
929.323	12243
929.428	12220
929.533	12277
929.638	12182
929.743	12121
929.848	12163
929.953	12019
930.058	12007
930.163	11935
930.267	11843
930.372	12015
930.477	11851
930.581	11999
930.685	11863
930.79	11775
930.894	11817
930.998	11752
931.103	11912
931.207	11459
931.311	11516
931.415	11345
931.519	11155
931.623	11132
