Data from test_V78500241_3333.txt Node
Date: Fri Mar 25 15:33:04 CST 2022
User: usil
Spectrometer: V785-0024
Trigger mode: 0
Integration Time (sec): 4.000000E-1
Scans to average: 1
Nonlinearity correction enabled: false
Boxcar width: 0
Storing dark spectrum: false
XAxis mode: Wavelengths
Number of Pixels in Spectrum: 1024
>>>>>Begin Spectral Data<<<<<
801.071	27332
801.214	27214
801.356	26902
801.499	27032
801.641	26952
801.783	26868
801.926	26857
802.068	26834
802.211	26781
802.353	26621
802.496	26636
802.638	26541
802.78	26381
802.923	26355
803.065	26305
803.208	26317
803.35	26446
803.492	26457
803.635	26701
803.777	26415
803.919	26655
804.061	26895
804.204	26731
804.346	26526
804.488	26522
804.63	26537
804.773	26473
804.915	26678
805.057	26754
805.199	26526
805.341	26621
805.483	26655
805.626	26739
805.768	26613
805.91	26750
806.052	26689
806.194	26686
806.336	26944
806.478	26613
806.62	26629
806.762	26674
806.904	27005
807.046	27241
807.188	27093
807.33	27104
807.472	27017
807.614	27047
807.756	27017
807.898	26975
808.04	26777
808.182	26899
808.324	26925
808.465	26773
808.607	27195
808.749	27329
808.891	27298
809.033	27454
809.174	27249
809.316	27329
809.458	27249
809.6	27291
809.741	27367
809.883	27401
810.025	27686
810.166	27530
810.308	27675
810.45	27405
810.591	27515
810.733	27412
810.875	27298
811.016	27226
811.158	27028
811.299	27515
811.441	27595
811.582	27298
811.724	27355
811.865	27298
812.007	27264
812.148	27325
812.29	27348
812.431	27435
812.573	27481
812.714	27648
812.855	27698
812.997	27857
813.138	27907
813.279	27838
813.421	27759
813.562	27804
813.703	27686
813.845	27367
813.986	27135
814.127	27081
814.268	26861
814.41	26899
814.551	26952
814.692	26925
814.833	26849
814.974	26880
815.115	26956
815.256	26796
815.397	26781
815.539	26838
815.68	26621
815.821	26613
815.962	26826
816.103	26701
816.244	26465
816.385	26465
816.526	26313
816.666	26427
816.807	26126
816.948	26240
817.089	26237
817.23	26161
817.371	26157
817.512	26301
817.653	26145
817.793	26202
817.934	26278
818.075	26202
818.216	26336
818.356	26138
818.497	26069
818.638	25932
818.778	25940
818.919	25917
819.06	25963
819.2	26100
819.341	26134
819.481	26229
819.622	26267
819.762	26651
819.903	26453
820.043	26370
820.184	26225
820.324	26351
820.465	26370
820.605	26237
820.746	26172
820.886	26122
821.026	26172
821.167	26065
821.307	26282
821.447	26115
821.588	26024
821.728	25947
821.868	25818
822.008	25704
822.149	25655
822.289	25677
822.429	25510
822.569	25301
822.709	25407
822.849	25384
822.99	25228
823.13	25285
823.27	25091
823.41	24951
823.55	24776
823.69	25107
823.83	25008
823.97	24962
824.11	24741
824.25	24852
824.389	24833
824.529	24890
824.669	24806
824.809	24935
824.949	24798
825.089	24856
825.228	24669
825.368	24665
825.508	24597
825.648	24833
825.787	24810
825.927	24749
826.067	24601
826.206	24673
826.346	24768
826.485	24772
826.625	24669
826.765	24684
826.904	24532
827.044	24433
827.183	24353
827.323	24311
827.462	24308
827.601	24403
827.741	24441
827.88	24308
828.02	24201
828.159	24357
828.298	24361
828.437	24437
828.577	24289
828.716	24460
828.855	24262
828.994	24015
829.134	24117
829.273	24205
829.412	24038
829.551	23916
829.69	24197
829.829	24133
829.968	24194
830.107	24205
830.246	23973
830.385	24194
830.524	23954
830.663	23980
830.802	23741
830.941	23604
831.08	23619
831.219	23737
831.357	23832
831.496	24003
831.635	23608
831.774	23577
831.913	23589
832.051	23558
832.19	23501
832.329	23528
832.467	23406
832.606	23330
832.744	23474
832.883	23398
833.022	23345
833.16	23402
833.299	23406
833.437	23379
833.576	23402
833.714	23471
833.852	23562
833.991	23524
834.129	23474
834.267	23501
834.406	23368
834.544	23509
834.682	23444
834.821	23608
834.959	23672
835.097	23417
835.235	23608
835.373	23471
835.511	23505
835.65	23322
835.788	23330
835.926	23166
836.064	23208
836.202	23181
836.34	23395
836.478	23398
836.615	23330
836.753	23353
836.891	23311
837.029	23353
837.167	23151
837.305	23235
837.443	23071
837.58	23128
837.718	23178
837.856	23185
837.993	23098
838.131	23208
838.269	23090
838.406	23090
838.544	22915
838.681	22858
838.819	22748
838.956	22603
839.094	22554
839.231	22729
839.369	22831
839.506	23025
839.643	22873
839.781	22653
839.918	22557
840.055	22634
840.193	22580
840.33	22516
840.467	22599
840.604	22573
840.742	22919
840.879	22462
841.016	22443
841.153	22535
841.29	22691
841.427	22645
841.564	22451
841.701	22557
841.838	22489
841.975	22504
842.112	22466
842.249	22367
842.385	22379
842.522	22626
842.659	22443
842.796	22230
842.933	22318
843.069	22375
843.206	22272
843.343	22405
843.479	22291
843.616	22394
843.752	22230
843.889	22226
844.025	22287
844.162	22044
844.298	22162
844.435	22219
844.571	22067
844.708	22150
844.844	22421
844.98	22246
845.117	22158
845.253	22112
845.389	22067
845.525	22067
845.661	21998
845.798	22006
845.934	21934
846.07	21728
846.206	21922
846.342	22090
846.478	21842
846.614	21679
846.75	21557
846.886	21618
847.022	21576
847.158	21603
847.294	21660
847.429	21694
847.565	21583
847.701	21774
847.837	21336
847.972	21275
848.108	21485
848.244	21332
848.379	21310
848.515	21192
848.65	21264
848.786	21321
848.921	21138
849.057	21298
849.192	21218
849.328	21264
849.463	21169
849.598	21180
849.734	20971
849.869	21169
850.004	20941
850.14	20830
850.275	20998
850.41	20861
850.545	20910
850.68	20906
850.815	20891
850.95	20914
851.085	21112
851.22	21051
851.355	20937
851.49	20944
851.625	20910
851.76	20845
851.895	20739
852.03	20735
852.165	20952
852.299	20929
852.434	21009
852.569	20937
852.703	20895
852.838	21108
852.973	21032
853.107	21062
853.242	20887
853.376	20902
853.511	20727
853.645	20754
853.78	20796
853.914	20743
854.048	20754
854.183	20781
854.317	20914
854.451	21028
854.585	20796
854.72	20785
854.854	20872
854.988	20663
855.122	20853
855.256	20716
855.39	20746
855.524	20731
855.658	20925
855.792	20773
855.926	20785
856.06	20819
856.194	20788
856.327	20826
856.461	20659
856.595	20530
856.729	20796
856.862	20842
856.996	20739
857.13	20739
857.263	20925
857.397	20758
857.53	20765
857.664	20758
857.797	20902
857.931	20815
858.064	20853
858.197	20929
858.331	20739
858.464	20731
858.597	20686
858.731	20781
858.864	20743
858.997	20697
859.13	20902
859.263	20629
859.396	20838
859.529	20792
859.662	20754
859.795	20701
859.928	20868
860.061	20899
860.194	20891
860.327	20834
860.46	20861
860.592	21024
860.725	20921
860.858	20948
860.99	20712
861.123	20564
861.256	20773
861.388	20739
861.521	21424
861.653	20720
861.786	20518
861.918	20587
862.05	20640
862.183	20689
862.315	20682
862.447	20727
862.58	20670
862.712	20571
862.844	20427
862.976	20644
863.108	20552
863.24	21009
863.372	20381
863.504	20415
863.636	20488
863.768	20507
863.9	20526
864.032	20465
864.164	20332
864.296	20560
864.428	20530
864.559	20648
864.691	20587
864.823	20492
864.954	20438
865.086	20434
865.217	20492
865.349	20328
865.48	20488
865.612	20499
865.743	20473
865.875	20434
866.006	20450
866.137	20389
866.269	20484
866.4	20495
866.531	20396
866.662	20286
866.793	20381
866.924	20347
867.055	20366
867.186	20282
867.317	20347
867.448	20324
867.579	20168
867.71	20176
867.841	20339
867.972	20358
868.103	20385
868.233	20317
868.364	20366
868.495	20404
868.625	20480
868.756	20636
868.886	20480
869.017	20682
869.147	20617
869.278	20712
869.408	20659
869.539	20587
869.669	20640
869.799	20663
869.929	20705
870.06	20648
870.19	20864
870.32	20906
870.45	20845
870.58	20861
870.71	21039
870.84	21062
870.97	20982
871.1	20975
871.23	21089
871.36	21237
871.489	21028
871.619	21104
871.749	21135
871.879	21157
872.008	21294
872.138	21195
872.267	21310
872.397	21047
872.526	20971
872.656	21089
872.785	21043
872.915	21298
873.044	21146
873.173	21211
873.303	21245
873.432	21310
873.561	21226
873.69	21264
873.819	21256
873.948	21275
874.077	21184
874.206	21096
874.335	21070
874.464	21298
874.593	21340
874.722	21405
874.851	21359
874.979	21370
875.108	21424
875.237	21386
875.365	21336
875.494	21351
875.623	21557
875.751	21443
875.88	21424
876.008	21603
876.136	21622
876.265	21850
876.393	22029
876.521	21907
876.65	21926
876.778	21755
876.906	21675
877.034	21823
877.162	21785
877.29	21705
877.418	21720
877.546	21774
877.674	21720
877.802	21903
877.93	21831
878.058	21842
878.185	21576
878.313	21675
878.441	21854
878.568	21644
878.696	21694
878.824	21747
878.951	21983
879.079	22021
879.206	22078
879.333	21888
879.461	21705
879.588	21861
879.715	22025
879.842	22044
879.97	21892
880.097	21561
880.224	21690
880.351	21637
880.478	21682
880.605	21606
880.732	21679
880.859	21835
880.986	21675
881.112	21599
881.239	21610
881.366	21363
881.493	21249
881.619	21207
881.746	21233
881.872	21218
881.999	21142
882.125	21154
882.252	21252
882.378	21157
882.505	21260
882.631	21005
882.757	20963
882.883	20998
883.01	20960
883.136	20944
883.262	20804
883.388	20792
883.514	20979
883.64	20925
883.766	20705
883.892	20716
884.018	20773
884.143	20849
884.269	20979
884.395	20480
884.52	20549
884.646	20629
884.772	20514
884.897	20568
885.023	20507
885.148	20629
885.274	20712
885.399	20644
885.524	20613
885.65	20590
885.775	20469
885.9	20629
886.025	20693
886.15	20746
886.275	20446
886.4	20389
886.525	20442
886.65	20461
886.775	20370
886.9	20663
887.025	20705
887.149	20503
887.274	20526
887.399	20328
887.523	20339
887.648	20252
887.773	20195
887.897	20442
888.021	20415
888.146	20294
888.27	20351
888.395	20492
888.519	20408
888.643	20343
888.767	20434
888.891	20225
889.015	20100
889.139	20153
889.263	20142
889.387	20229
889.511	20324
889.635	20290
889.759	20043
889.883	20225
890.006	20126
890.13	20252
890.254	19944
890.377	20077
890.501	20024
890.624	19841
890.748	19970
890.871	19734
890.995	19689
891.118	19651
891.241	19696
891.364	19620
891.488	19849
891.611	19746
891.734	19681
891.857	19757
891.98	19795
892.103	19772
892.226	19704
892.349	19639
892.471	19529
892.594	19685
892.717	19674
892.839	19540
892.962	19590
893.085	19670
893.207	19632
893.33	19552
893.452	19559
893.575	19689
893.697	19563
893.819	19769
893.941	19788
894.064	19742
894.186	19563
894.308	19578
894.43	19662
894.552	19704
894.674	19780
894.796	19620
894.918	19594
895.04	19575
895.161	19704
895.283	19677
895.405	19586
895.526	19658
895.648	19609
895.769	19552
895.891	19571
896.012	19666
896.134	19765
896.255	19662
896.376	19563
896.498	19674
896.619	19746
896.74	19677
896.861	19712
896.982	19917
897.103	20050
897.224	19887
897.345	19830
897.466	19818
897.587	19765
897.708	20062
897.828	19837
897.949	19761
898.07	19723
898.19	19757
898.311	19883
898.431	19811
898.552	19833
898.672	19993
898.792	19982
898.913	19875
899.033	19772
899.153	19609
899.273	19567
899.393	19651
899.513	19537
899.633	19662
899.753	19704
899.873	19582
899.993	19723
900.113	19499
900.232	19582
900.352	19605
900.472	19445
900.591	19274
900.711	19365
900.83	19343
900.95	19552
901.069	19445
901.189	19213
901.308	19091
901.427	19038
901.546	19004
901.665	19012
901.784	19053
901.904	18878
902.023	18707
902.141	18597
902.26	18467
902.379	18551
902.498	18532
902.617	18456
902.735	18456
902.854	18490
902.973	18407
903.091	18201
903.21	18281
903.328	18117
903.446	18045
903.565	17988
903.683	17992
903.801	17847
903.919	17973
904.038	17942
904.156	17779
904.274	17771
904.392	17722
904.51	17809
904.627	17657
904.745	17813
904.863	17779
904.981	17570
905.098	17444
905.216	17421
905.334	17455
905.451	17452
905.569	17406
905.686	17493
905.803	17429
905.921	17151
906.038	17334
906.155	17277
906.272	17045
906.389	17117
906.506	16889
906.623	17010
906.74	16892
906.857	16767
906.974	16809
907.091	16957
907.208	17075
907.324	16968
907.441	16854
907.557	16763
907.674	16797
907.79	16618
907.907	16660
908.023	16752
908.139	16630
908.256	16660
908.372	16634
908.488	16584
908.604	16466
908.72	16428
908.836	16318
908.952	16409
909.068	16481
909.184	16508
909.3	16481
909.415	16440
909.531	16462
909.647	16211
909.762	16044
909.878	16150
909.993	16215
910.108	16082
910.224	16124
910.339	16051
910.454	15991
910.57	15972
910.685	15949
910.8	16051
910.915	16139
911.03	15937
911.145	15743
911.259	15819
911.374	15709
911.489	15656
911.604	15576
911.718	15496
911.833	15534
911.947	15348
912.062	15389
912.176	15462
912.291	15511
912.405	15488
912.519	15679
912.633	15713
912.748	15496
912.862	15511
912.976	15313
913.09	15211
913.204	15260
913.318	15355
913.431	15355
913.545	15336
913.659	15370
913.772	15378
913.886	15093
914	15157
914.113	15165
914.226	15241
914.34	15062
914.453	15028
914.566	15119
914.68	14929
914.793	14921
914.906	14788
915.019	14788
915.132	14625
915.245	14758
915.358	14758
915.47	14750
915.583	14689
915.696	14769
915.809	14815
915.921	14899
916.034	14682
916.146	14667
916.259	14594
916.371	14769
916.483	14648
916.595	14625
916.708	14689
916.82	14511
916.932	14575
917.044	14495
917.156	14427
917.268	14408
917.38	14412
917.491	14366
917.603	14457
917.715	14298
917.826	14465
917.938	14286
918.049	14240
918.161	14503
918.272	14431
918.384	14526
918.495	14301
918.606	14191
918.717	14073
918.828	14180
918.939	14100
919.05	14107
919.161	14020
919.272	14016
919.383	13970
919.494	14168
919.604	14358
919.715	14126
919.826	14008
919.936	14107
920.047	14149
920.157	14119
920.267	14358
920.378	14180
920.488	13997
920.598	14298
920.708	14484
920.818	14278
920.928	14202
921.038	14324
921.148	14377
921.258	14134
921.368	13974
921.477	13864
921.587	13852
921.697	13704
921.806	13909
921.916	13597
922.025	13563
922.134	13491
922.244	13480
922.353	13525
922.462	13426
922.571	13346
922.68	13187
922.789	13164
922.898	13187
923.007	13114
923.116	13137
923.224	13164
923.333	13152
923.442	13065
923.55	12989
923.659	13004
923.767	13095
923.876	12966
923.984	13057
924.092	12821
924.201	12977
924.309	13008
924.417	12810
924.525	12802
924.633	12791
924.741	13700
924.849	12639
924.956	12719
925.064	12585
925.172	12662
925.279	12540
925.387	12620
925.494	12574
925.602	12741
925.709	12642
925.816	12502
925.924	12578
926.031	12722
926.138	12509
926.245	12642
926.352	12410
926.459	12635
926.566	12696
926.673	12471
926.779	12353
926.886	12376
926.993	12205
927.099	12311
927.206	12213
927.312	12194
927.419	12220
927.525	12152
927.631	12209
927.737	12110
927.843	11973
927.95	11984
928.056	11984
928.162	12007
928.267	12091
928.373	12601
928.479	12034
928.585	11832
928.69	11954
928.796	12053
928.901	11908
929.007	11786
929.112	11885
929.218	11847
929.323	11775
929.428	11767
929.533	11897
929.638	11688
929.743	11771
929.848	11722
929.953	11726
930.058	11608
930.163	11471
930.267	11387
930.372	11642
930.477	11463
930.581	11703
930.685	11459
930.79	11349
930.894	11417
930.998	11284
931.103	11429
931.207	11060
931.311	10995
931.415	10938
931.519	10835
931.623	10790
