Data from test_V78500241_2018.txt Node
Date: Fri Mar 25 15:23:54 CST 2022
User: usil
Spectrometer: V785-0024
Trigger mode: 0
Integration Time (sec): 4.000000E-1
Scans to average: 1
Nonlinearity correction enabled: false
Boxcar width: 0
Storing dark spectrum: false
XAxis mode: Wavelengths
Number of Pixels in Spectrum: 1024
>>>>>Begin Spectral Data<<<<<
801.071	27861
801.214	27679
801.356	27504
801.499	27557
801.641	27332
801.783	27378
801.926	27435
802.068	27306
802.211	27325
802.353	27176
802.496	27131
802.638	26948
802.78	27127
802.923	27017
803.065	26883
803.208	26906
803.35	26967
803.492	27203
803.635	27348
803.777	27100
803.919	27157
804.061	27519
804.204	27195
804.346	27116
804.488	27142
804.63	27123
804.773	27192
804.915	27207
805.057	27336
805.199	27207
805.341	27268
805.483	27355
805.626	27317
805.768	27237
805.91	27260
806.052	27359
806.194	27211
806.336	27485
806.478	27439
806.62	27294
806.762	27500
806.904	27591
807.046	27671
807.188	27622
807.33	27743
807.472	27781
807.614	27644
807.756	27797
807.898	27641
808.04	27511
808.182	27561
808.324	27538
808.465	27679
808.607	27857
808.749	27873
808.891	27998
809.033	28150
809.174	27979
809.316	27972
809.458	27937
809.6	27850
809.741	27979
809.883	28109
810.025	28242
810.166	28356
810.308	28211
810.45	28109
810.591	28139
810.733	27975
810.875	27835
811.016	27793
811.158	27899
811.299	27979
811.441	27987
811.582	28143
811.724	27800
811.865	27930
812.007	27941
812.148	27960
812.29	27960
812.431	28086
812.573	28246
812.714	28314
812.855	28535
812.997	28455
813.138	28717
813.279	28645
813.421	28455
813.562	28405
813.703	28303
813.845	28211
813.986	27907
814.127	27686
814.268	27637
814.41	27644
814.551	27549
814.692	27667
814.833	27667
814.974	27580
815.115	27637
815.256	27545
815.397	27481
815.539	27443
815.68	27378
815.821	27370
815.962	27431
816.103	27382
816.244	27199
816.385	27321
816.526	27260
816.666	27070
816.807	26849
816.948	27005
817.089	27017
817.23	26910
817.371	26914
817.512	26979
817.653	26826
817.793	26815
817.934	26834
818.075	26906
818.216	26963
818.356	26746
818.497	26754
818.638	26606
818.778	26682
818.919	26590
819.06	26743
819.2	26777
819.341	26807
819.481	26868
819.622	27047
819.762	27138
819.903	27249
820.043	27123
820.184	27062
820.324	27017
820.465	27024
820.605	27032
820.746	26906
820.886	26971
821.026	27150
821.167	26963
821.307	26925
821.447	26940
821.588	26765
821.728	26765
821.868	26545
822.008	26381
822.149	26370
822.289	26396
822.429	26278
822.569	26142
822.709	26096
822.849	25906
822.99	25902
823.13	25841
823.27	25784
823.41	25674
823.55	25468
823.69	25689
823.83	25731
823.97	25552
824.11	25727
824.25	25533
824.389	25533
824.529	25685
824.669	25407
824.809	25594
824.949	25529
825.089	25571
825.228	25727
825.368	25365
825.508	25468
825.648	25430
825.787	25457
825.927	25381
826.067	25453
826.206	25449
826.346	25419
826.485	25441
826.625	25426
826.765	25388
826.904	25479
827.044	25118
827.183	25228
827.323	25107
827.462	25190
827.601	25145
827.741	25057
827.88	25270
828.02	24977
828.159	25126
828.298	25164
828.437	25141
828.577	25015
828.716	25099
828.855	25031
828.994	24745
829.134	24848
829.273	24768
829.412	24764
829.551	24779
829.69	24810
829.829	24787
829.968	24840
830.107	24939
830.246	24802
830.385	24734
830.524	24814
830.663	24616
830.802	24559
830.941	24292
831.08	24388
831.219	24452
831.357	24563
831.496	24631
831.635	24395
831.774	24357
831.913	24304
832.051	24194
832.19	24213
832.329	24186
832.467	24155
832.606	24007
832.744	24007
832.883	24076
833.022	24068
833.16	24087
833.299	24148
833.437	24197
833.576	24155
833.714	24243
833.852	24235
833.991	24144
834.129	24342
834.267	24182
834.406	24243
834.544	24266
834.682	24190
834.821	24186
834.959	24342
835.097	24121
835.235	24228
835.373	24186
835.511	24110
835.65	24003
835.788	24041
835.926	23680
836.064	23878
836.202	23996
836.34	23950
836.478	24007
836.615	24018
836.753	24087
836.891	24106
837.029	24095
837.167	23912
837.305	23885
837.443	23805
837.58	23809
837.718	23916
837.856	23927
837.993	23805
838.131	23680
838.269	23824
838.406	23794
838.544	23619
838.681	23490
838.819	23505
838.956	23299
839.094	23326
839.231	23414
839.369	23490
839.506	23798
839.643	23531
839.781	23315
839.918	23261
840.055	23269
840.193	23311
840.33	23174
840.467	23239
840.604	23288
840.742	23391
840.879	23067
841.016	23102
841.153	23048
841.29	23356
841.427	23231
841.564	23277
841.701	23231
841.838	23094
841.975	23075
842.112	23212
842.249	23105
842.385	22965
842.522	23284
842.659	23067
842.796	23014
842.933	22972
843.069	23006
843.206	22930
843.343	23041
843.479	22949
843.616	23109
843.752	22824
843.889	22748
844.025	22949
844.162	22729
844.298	22896
844.435	22679
844.571	22828
844.708	22782
844.844	22919
844.98	22809
845.117	22889
845.253	22653
845.389	22573
845.525	22736
845.661	22683
845.798	22478
845.934	22379
846.07	22421
846.206	22500
846.342	22618
846.478	22497
846.614	22318
846.75	22223
846.886	22234
847.022	22200
847.158	22177
847.294	22246
847.429	22234
847.565	22185
847.701	22424
847.837	21953
847.972	21998
848.108	22082
848.244	21994
848.379	21888
848.515	21770
848.65	21876
848.786	21713
848.921	22029
849.057	21968
849.192	21956
849.328	21861
849.463	21838
849.598	21720
849.734	21618
849.869	21747
850.004	21496
850.14	21511
850.275	21580
850.41	21523
850.545	21576
850.68	21564
850.815	21519
850.95	21523
851.085	21747
851.22	21686
851.355	21526
851.49	21564
851.625	21492
851.76	21553
851.895	21469
852.03	21572
852.165	21530
852.299	21614
852.434	21663
852.569	21568
852.703	21694
852.838	21629
852.973	21739
853.107	21705
853.242	21477
853.376	21511
853.511	21386
853.645	21374
853.78	21523
853.914	21393
854.048	21386
854.183	21359
854.317	21557
854.451	21667
854.585	21363
854.72	21401
854.854	21534
854.988	21298
855.122	21325
855.256	21351
855.39	21450
855.524	21466
855.658	21405
855.792	21412
855.926	21458
856.06	21412
856.194	21481
856.327	21370
856.461	21405
856.595	21313
856.729	21310
856.862	21561
856.996	21443
857.13	21545
857.263	21439
857.397	21458
857.53	21237
857.664	21542
857.797	21507
857.931	21431
858.064	21450
858.197	21553
858.331	21431
858.464	21336
858.597	21241
858.731	21408
858.864	21378
858.997	21367
859.13	21283
859.263	21435
859.396	21523
859.529	21511
859.662	21443
859.795	21336
859.928	21382
860.061	21572
860.194	21485
860.327	21538
860.46	21416
860.592	21557
860.725	21553
860.858	21549
860.99	21367
861.123	21302
861.256	21428
861.388	21340
861.521	22044
861.653	21355
861.786	21157
861.918	21294
862.05	21317
862.183	21355
862.315	21298
862.447	21424
862.58	21237
862.712	21154
862.844	21089
862.976	21093
863.108	21123
863.24	21534
863.372	21024
863.504	21116
863.636	21039
863.768	21173
863.9	21081
864.032	21070
864.164	21157
864.296	21214
864.428	21154
864.559	21161
864.691	21195
864.823	21070
864.954	21112
865.086	21142
865.217	21089
865.349	21028
865.48	21047
865.612	21150
865.743	21131
865.875	20986
866.006	20948
866.137	20872
866.269	21036
866.4	21036
866.531	20944
866.662	20952
866.793	20857
866.924	20937
867.055	20948
867.186	20994
867.317	20834
867.448	20910
867.579	20952
867.71	20918
867.841	20857
867.972	20975
868.103	20921
868.233	21074
868.364	20994
868.495	21051
868.625	21184
868.756	21355
868.886	21077
869.017	21260
869.147	21370
869.278	21355
869.408	21268
869.539	21100
869.669	21222
869.799	21119
869.929	21393
870.06	21268
870.19	21473
870.32	21450
870.45	21530
870.58	21435
870.71	21629
870.84	21667
870.97	21576
871.1	21610
871.23	21736
871.36	21835
871.489	21732
871.619	21701
871.749	21785
871.879	21846
872.008	21930
872.138	21846
872.267	21850
872.397	21732
872.526	21561
872.656	21606
872.785	21523
872.915	21876
873.044	21831
873.173	21819
873.303	21816
873.432	21732
873.561	21774
873.69	21698
873.819	21835
873.948	21850
874.077	21728
874.206	21652
874.335	21770
874.464	21880
874.593	22120
874.722	22006
874.851	22021
874.979	22063
875.108	22109
875.237	22093
875.365	22002
875.494	22070
875.623	22143
875.751	21956
875.88	21975
876.008	22185
876.136	22253
876.265	22367
876.393	22500
876.521	22405
876.65	22550
876.778	22497
876.906	22451
877.034	22432
877.162	22367
877.29	22322
877.418	22409
877.546	22386
877.674	22348
877.802	22299
877.93	22333
878.058	22291
878.185	22135
878.313	22223
878.441	22314
878.568	22128
878.696	22474
878.824	22417
878.951	22451
879.079	22584
879.206	22683
879.333	22573
879.461	22390
879.588	22394
879.715	22592
879.842	22641
879.97	22360
880.097	22295
880.224	22246
880.351	22226
880.478	22280
880.605	22147
880.732	22310
880.859	22428
880.986	22215
881.112	22150
881.239	22086
881.366	21918
881.493	21838
881.619	21800
881.746	21671
881.872	21629
881.999	21770
882.125	21675
882.252	21739
882.378	21701
882.505	21949
882.631	21606
882.757	21481
882.883	21671
883.01	21416
883.136	21374
883.262	21325
883.388	21382
883.514	21431
883.64	21500
883.766	21386
883.892	21245
884.018	21317
884.143	21526
884.269	21526
884.395	21112
884.52	21169
884.646	21165
884.772	21100
884.897	21043
885.023	21119
885.148	21264
885.274	21283
885.399	21127
885.524	21100
885.65	21108
885.775	21131
885.9	21074
886.025	21188
886.15	21085
886.275	21074
886.4	21039
886.525	21028
886.65	20963
886.775	20952
886.9	21211
887.025	21367
887.149	21074
887.274	20921
887.399	20925
887.523	20902
887.648	20758
887.773	20765
887.897	20979
888.021	20918
888.146	20857
888.27	20849
888.395	20956
888.519	20902
888.643	20929
888.767	20781
888.891	20731
889.015	20720
889.139	20640
889.263	20583
889.387	20746
889.511	20788
889.635	20815
889.759	20632
889.883	20716
890.006	20697
890.13	20769
890.254	20587
890.377	20518
890.501	20503
890.624	20298
890.748	20556
890.871	20317
890.995	20317
891.118	20172
891.241	20214
891.364	20305
891.488	20259
891.611	20138
891.734	20336
891.857	20248
891.98	20210
892.103	20256
892.226	20218
892.349	20168
892.471	19978
892.594	20157
892.717	20145
892.839	20187
892.962	20126
893.085	20278
893.207	20142
893.33	19982
893.452	20058
893.575	20168
893.697	20081
893.819	20218
893.941	20419
894.064	20195
894.186	20043
894.308	20035
894.43	20240
894.552	20332
894.674	20225
894.796	20035
894.918	20043
895.04	20024
895.161	20111
895.283	20202
895.405	20134
895.526	20157
895.648	20084
895.769	20164
895.891	20126
896.012	20278
896.134	20191
896.255	20157
896.376	19989
896.498	20172
896.619	20214
896.74	20119
896.861	20100
896.982	20476
897.103	20579
897.224	20320
897.345	20324
897.466	20240
897.587	20286
897.708	20366
897.828	20434
897.949	20088
898.07	20275
898.19	20263
898.311	20442
898.431	20389
898.552	20374
898.672	20374
898.792	20450
898.913	20233
899.033	20218
899.153	20157
899.273	20024
899.393	20122
899.513	20218
899.633	20039
899.753	20157
899.873	19959
899.993	20153
900.113	19940
900.232	20065
900.352	20069
900.472	19963
900.591	19921
900.711	19780
900.83	19795
900.95	19928
901.069	19887
901.189	19822
901.308	19415
901.427	19346
901.546	19438
901.665	19521
901.784	19590
901.904	19362
902.023	19304
902.141	19031
902.26	19072
902.379	19023
902.498	19019
902.617	18970
902.735	19008
902.854	18951
902.973	18958
903.091	18566
903.21	18665
903.328	18578
903.446	18582
903.565	18521
903.683	18483
903.801	18289
903.919	18308
904.038	18319
904.156	18197
904.274	18209
904.392	18148
904.51	18281
904.627	18201
904.745	18216
904.863	18235
904.981	18011
905.098	17912
905.216	17893
905.334	17984
905.451	17840
905.569	17828
905.686	17855
905.803	17817
905.921	17676
906.038	17870
906.155	17676
906.272	17779
906.389	17638
906.506	17478
906.623	17398
906.74	17478
906.857	17322
906.974	17318
907.091	17520
907.208	17551
907.324	17395
907.441	17292
907.557	17102
907.674	17124
907.79	17102
907.907	17121
908.023	17151
908.139	17121
908.256	17102
908.372	17064
908.488	16991
908.604	16980
908.72	16812
908.836	16904
908.952	16843
909.068	16934
909.184	16980
909.3	16911
909.415	16801
909.531	16896
909.647	16611
909.762	16618
909.878	16584
909.993	16584
910.108	16538
910.224	16417
910.339	16493
910.454	16402
910.57	16409
910.685	16272
910.8	16504
910.915	16550
911.03	16360
911.145	16097
911.259	16150
911.374	16166
911.489	16078
911.604	16029
911.718	15994
911.833	15953
911.947	15675
912.062	15797
912.176	15937
912.291	15949
912.405	15911
912.519	16048
912.633	16120
912.748	15876
912.862	15831
912.976	15686
913.09	15671
913.204	15644
913.318	15724
913.431	15800
913.545	15804
913.659	15785
913.772	15622
913.886	15447
914	15561
914.113	15675
914.226	15633
914.34	15610
914.453	15287
914.566	15416
914.68	15359
914.793	15420
914.906	15207
915.019	15085
915.132	15138
915.245	15123
915.358	15157
915.47	15146
915.583	15097
915.696	15154
915.809	15173
915.921	15264
916.034	14967
916.146	15085
916.259	14975
916.371	15138
916.483	15097
916.595	14925
916.708	14960
916.82	14982
916.932	14948
917.044	14914
917.156	14796
917.268	14739
917.38	14762
917.491	14868
917.603	14670
917.715	14891
917.826	14773
917.938	14693
918.049	14583
918.161	14705
918.272	14864
918.384	14842
918.495	14682
918.606	14583
918.717	14469
918.828	14602
918.939	14594
919.05	14454
919.161	14473
919.272	14362
919.383	14366
919.494	14568
919.604	14682
919.715	14530
919.826	14381
919.936	14461
920.047	14575
920.157	14442
920.267	14594
920.378	14541
920.488	14381
920.598	14655
920.708	14811
920.818	14598
920.928	14632
921.038	14781
921.148	14735
921.258	14415
921.368	14362
921.477	14206
921.587	14214
921.697	14161
921.806	14210
921.916	14046
922.025	13959
922.134	13788
922.244	13852
922.353	14035
922.462	13723
922.571	13738
922.68	13556
922.789	13628
922.898	13521
923.007	13415
923.116	13480
923.224	13518
923.333	13460
923.442	13457
923.55	13381
923.659	13365
923.767	13441
923.876	13312
923.984	13388
924.092	13168
924.201	13335
924.309	13297
924.417	13282
924.525	13156
924.633	13206
924.741	13967
924.849	12985
924.956	13175
925.064	12966
925.172	12947
925.279	13012
925.387	12993
925.494	12837
925.602	13076
925.709	12909
925.816	12844
925.924	12825
926.031	12962
926.138	12833
926.245	12913
926.352	12795
926.459	12863
926.566	12958
926.673	12688
926.779	12642
926.886	12722
926.993	12563
927.099	12525
927.206	12456
927.312	12513
927.419	12551
927.525	12407
927.631	12464
927.737	12418
927.843	12273
927.95	12136
928.056	12342
928.162	12277
928.267	12380
928.373	12947
928.479	12479
928.585	12182
928.69	12319
928.796	12262
928.901	12175
929.007	12007
929.112	12197
929.218	12121
929.323	12072
929.428	11931
929.533	12121
929.638	11969
929.743	11939
929.848	12030
929.953	12041
930.058	11916
930.163	11661
930.267	11745
930.372	11923
930.477	11672
930.581	11920
930.685	11802
930.79	11703
930.894	11680
930.998	11642
931.103	11630
931.207	11368
931.311	11239
931.415	11185
931.519	11006
931.623	10991
