Data from test_V78500241_3427.txt Node
Date: Fri Mar 25 15:33:43 CST 2022
User: usil
Spectrometer: V785-0024
Trigger mode: 0
Integration Time (sec): 4.000000E-1
Scans to average: 1
Nonlinearity correction enabled: false
Boxcar width: 0
Storing dark spectrum: false
XAxis mode: Wavelengths
Number of Pixels in Spectrum: 1024
>>>>>Begin Spectral Data<<<<<
801.071	27306
801.214	27089
801.356	26872
801.499	26838
801.641	26746
801.783	26655
801.926	26762
802.068	26697
802.211	26689
802.353	26549
802.496	26396
802.638	26461
802.78	26442
802.923	26271
803.065	26259
803.208	26347
803.35	26252
803.492	26609
803.635	26480
803.777	26438
803.919	26533
804.061	26811
804.204	26590
804.346	26438
804.488	26583
804.63	26476
804.773	26408
804.915	26602
805.057	26526
805.199	26564
805.341	26549
805.483	26659
805.626	26598
805.768	26469
805.91	26556
806.052	26476
806.194	26526
806.336	26842
806.478	26640
806.62	26602
806.762	26712
806.904	26929
807.046	27214
807.188	26971
807.33	27051
807.472	27104
807.614	26948
807.756	26967
807.898	26857
808.04	26880
808.182	26754
808.324	26861
808.465	26910
808.607	27036
808.749	27241
808.891	27294
809.033	27310
809.174	27298
809.316	27081
809.458	27211
809.6	27169
809.741	27424
809.883	27268
810.025	27515
810.166	27355
810.308	27526
810.45	27469
810.591	27317
810.733	27310
810.875	27264
811.016	27138
811.158	27085
811.299	27374
811.441	27405
811.582	27298
811.724	27180
811.865	27154
812.007	27093
812.148	27195
812.29	27146
812.431	27313
812.573	27614
812.714	27538
812.855	27656
812.997	27762
813.138	27785
813.279	27785
813.421	27854
813.562	27511
813.703	27488
813.845	27332
813.986	27089
814.127	26990
814.268	26876
814.41	26823
814.551	26777
814.692	26861
814.833	26819
814.974	26876
815.115	26781
815.256	26689
815.397	26815
815.539	26701
815.68	26739
815.821	26659
815.962	26629
816.103	26571
816.244	26526
816.385	26423
816.526	26290
816.666	26195
816.807	26077
816.948	26164
817.089	26267
817.23	26107
817.371	26050
817.512	26065
817.653	26145
817.793	26088
817.934	26142
818.075	26183
818.216	26161
818.356	26050
818.497	25982
818.638	25750
818.778	25845
818.919	25833
819.06	25925
819.2	25993
819.341	26142
819.481	26126
819.622	26377
819.762	26492
819.903	26298
820.043	26271
820.184	26195
820.324	26122
820.465	26328
820.605	26377
820.746	26214
820.886	26062
821.026	26153
821.167	26084
821.307	26267
821.447	25947
821.588	25978
821.728	25906
821.868	25795
822.008	25483
822.149	25563
822.289	25540
822.429	25175
822.569	25312
822.709	25308
822.849	25031
822.99	25042
823.13	24951
823.27	25008
823.41	24970
823.55	24791
823.69	24897
823.83	24897
823.97	24840
824.11	24589
824.25	24665
824.389	24620
824.529	24848
824.669	24753
824.809	24913
824.949	24856
825.089	24760
825.228	24707
825.368	24475
825.508	24490
825.648	24661
825.787	24528
825.927	24817
826.067	24528
826.206	24627
826.346	24719
826.485	24536
826.625	24669
826.765	24696
826.904	24623
827.044	24388
827.183	24289
827.323	24273
827.462	24399
827.601	24327
827.741	24232
827.88	24311
828.02	24194
828.159	24273
828.298	24304
828.437	24418
828.577	24220
828.716	24239
828.855	24045
828.994	23950
829.134	24049
829.273	24068
829.412	24068
829.551	24026
829.69	24018
829.829	24034
829.968	24106
830.107	24057
830.246	24034
830.385	23935
830.524	23973
830.663	23904
830.802	23756
830.941	23737
831.08	23767
831.219	23680
831.357	23646
831.496	23923
831.635	23680
831.774	23467
831.913	23455
832.051	23448
832.19	23299
832.329	23288
832.467	23315
832.606	23166
832.744	23212
832.883	23212
833.022	23197
833.16	23356
833.299	23448
833.437	23452
833.576	23356
833.714	23376
833.852	23478
833.991	23379
834.129	23608
834.267	23493
834.406	23478
834.544	23402
834.682	23322
834.821	23307
834.959	23551
835.097	23311
835.235	23497
835.373	23296
835.511	23368
835.65	23277
835.788	23296
835.926	23113
836.064	22976
836.202	23025
836.34	23265
836.478	23322
836.615	23124
836.753	23235
836.891	23258
837.029	23258
837.167	22965
837.305	23109
837.443	23041
837.58	23121
837.718	23060
837.856	23159
837.993	22987
838.131	22995
838.269	23033
838.406	22927
838.544	22835
838.681	22786
838.819	22687
838.956	22580
839.094	22531
839.231	22333
839.369	22854
839.506	22881
839.643	22805
839.781	22588
839.918	22512
840.055	22599
840.193	22516
840.33	22485
840.467	22478
840.604	22478
840.742	22771
840.879	22421
841.016	22413
841.153	22398
841.29	22588
841.427	22424
841.564	22561
841.701	22459
841.838	22489
841.975	22287
842.112	22421
842.249	22299
842.385	22329
842.522	22500
842.659	22367
842.796	22169
842.933	22162
843.069	22116
843.206	22086
843.343	22295
843.479	22249
843.616	22265
843.752	21979
843.889	22090
844.025	22200
844.162	21922
844.298	22093
844.435	21972
844.571	22002
844.708	22029
844.844	22124
844.98	22070
845.117	22143
845.253	22032
845.389	21762
845.525	21983
845.661	21960
845.798	21759
845.934	21755
846.07	21778
846.206	21720
846.342	21850
846.478	21625
846.614	21614
846.75	21435
846.886	21496
847.022	21637
847.158	21534
847.294	21576
847.429	21496
847.565	21462
847.701	21724
847.837	21272
847.972	21176
848.108	21233
848.244	21245
848.379	21154
848.515	21074
848.65	21017
848.786	21150
848.921	21081
849.057	21184
849.192	21142
849.328	21135
849.463	21100
849.598	21036
849.734	21020
849.869	20986
850.004	20868
850.14	20918
850.275	20944
850.41	20826
850.545	20823
850.68	20948
850.815	20910
850.95	20712
851.085	21051
851.22	20982
851.355	20933
851.49	20948
851.625	20800
851.76	20826
851.895	20743
852.03	20686
852.165	20800
852.299	20929
852.434	20895
852.569	20979
852.703	20739
852.838	20849
852.973	21089
853.107	20971
853.242	20864
853.376	20663
853.511	20549
853.645	20655
853.78	20819
853.914	20765
854.048	20602
854.183	20674
854.317	20758
854.451	20712
854.585	20746
854.72	20697
854.854	20765
854.988	20564
855.122	20689
855.256	20640
855.39	20629
855.524	20804
855.658	20769
855.792	20708
855.926	20693
856.06	20762
856.194	20705
856.327	20682
856.461	20629
856.595	20697
856.729	20579
856.862	20773
856.996	20697
857.13	20708
857.263	20659
857.397	20727
857.53	20648
857.664	20590
857.797	20746
857.931	20773
858.064	20773
858.197	20785
858.331	20606
858.464	20731
858.597	20632
858.731	20640
858.864	20686
858.997	20739
859.13	20716
859.263	20651
859.396	20667
859.529	20686
859.662	20689
859.795	20644
859.928	20716
860.061	20861
860.194	20853
860.327	20625
860.46	20811
860.592	20758
860.725	20773
860.858	20845
860.99	20686
861.123	20606
861.256	20575
861.388	20705
861.521	21313
861.653	20571
861.786	20514
861.918	20476
862.05	20537
862.183	20682
862.315	20731
862.447	20762
862.58	20663
862.712	20454
862.844	20381
862.976	20564
863.108	20358
863.24	20861
863.372	20385
863.504	20465
863.636	20385
863.768	20434
863.9	20351
864.032	20377
864.164	20290
864.296	20404
864.428	20590
864.559	20503
864.691	20431
864.823	20286
864.954	20457
865.086	20446
865.217	20336
865.349	20176
865.48	20271
865.612	20259
865.743	20480
865.875	20332
866.006	20336
866.137	20370
866.269	20263
866.4	20328
866.531	20237
866.662	20240
866.793	20252
866.924	20221
867.055	20229
867.186	20256
867.317	20145
867.448	20199
867.579	20172
867.71	20122
867.841	20218
867.972	20248
868.103	20267
868.233	20256
868.364	20259
868.495	20389
868.625	20518
868.756	20651
868.886	20396
869.017	20484
869.147	20640
869.278	20514
869.408	20541
869.539	20446
869.669	20457
869.799	20560
869.929	20659
870.06	20606
870.19	20830
870.32	20773
870.45	20925
870.58	20967
870.71	21032
870.84	20979
870.97	20800
871.1	20853
871.23	21047
871.36	21066
871.489	21032
871.619	21135
871.749	21112
871.879	21032
872.008	21199
872.138	21074
872.267	21157
872.397	21017
872.526	20902
872.656	20849
872.785	20891
872.915	21135
873.044	21203
873.173	21096
873.303	21184
873.432	21112
873.561	21329
873.69	21138
873.819	21169
873.948	21260
874.077	21150
874.206	21009
874.335	21047
874.464	21176
874.593	21302
874.722	21230
874.851	21313
874.979	21272
875.108	21367
875.237	21359
875.365	21249
875.494	21325
875.623	21485
875.751	21340
875.88	21458
876.008	21485
876.136	21523
876.265	21739
876.393	21808
876.521	21838
876.65	21816
876.778	21766
876.906	21770
877.034	21762
877.162	21838
877.29	21625
877.418	21663
877.546	21781
877.674	21781
877.802	21698
877.93	21583
878.058	21713
878.185	21530
878.313	21557
878.441	21743
878.568	21515
878.696	21526
878.824	21781
878.951	21827
879.079	21934
879.206	22044
879.333	21838
879.461	21781
879.588	21663
879.715	21880
879.842	21964
879.97	21926
880.097	21492
880.224	21405
880.351	21545
880.478	21526
880.605	21408
880.732	21606
880.859	21778
880.986	21591
881.112	21523
881.239	21431
881.366	21287
881.493	21157
881.619	21055
881.746	21218
881.872	21055
881.999	21051
882.125	21123
882.252	21123
882.378	21154
882.505	21116
882.631	20971
882.757	20853
882.883	20929
883.01	20941
883.136	20697
883.262	20712
883.388	20503
883.514	20914
883.64	20944
883.766	20727
883.892	20724
884.018	20746
884.143	20701
884.269	20708
884.395	20533
884.52	20499
884.646	20465
884.772	20446
884.897	20427
885.023	20457
885.148	20514
885.274	20594
885.399	20598
885.524	20400
885.65	20434
885.775	20442
885.9	20415
886.025	20583
886.15	20556
886.275	20499
886.4	20358
886.525	20541
886.65	20362
886.775	20275
886.9	20503
887.025	20670
887.149	20499
887.274	20256
887.399	20267
887.523	20252
887.648	20172
887.773	20145
887.897	20267
888.021	20244
888.146	20183
888.27	20366
888.395	20275
888.519	20286
888.643	20362
888.767	20225
888.891	20180
889.015	20119
889.139	20157
889.263	20046
889.387	20267
889.511	20233
889.635	20172
889.759	20035
889.883	20054
890.006	20016
890.13	20168
890.254	19932
890.377	19814
890.501	19746
890.624	19757
890.748	19970
890.871	19772
890.995	19635
891.118	19582
891.241	19597
891.364	19601
891.488	19715
891.611	19704
891.734	19476
891.857	19723
891.98	19647
892.103	19658
892.226	19704
892.349	19647
892.471	19468
892.594	19609
892.717	19544
892.839	19571
892.962	19548
893.085	19586
893.207	19548
893.33	19441
893.452	19460
893.575	19533
893.697	19525
893.819	19689
893.941	19814
894.064	19681
894.186	19567
894.308	19445
894.43	19620
894.552	19605
894.674	19628
894.796	19499
894.918	19559
895.04	19556
895.161	19575
895.283	19548
895.405	19556
895.526	19518
895.648	19502
895.769	19510
895.891	19510
896.012	19616
896.134	19601
896.255	19563
896.376	19578
896.498	19563
896.619	19597
896.74	19582
896.861	19681
896.982	19890
897.103	20020
897.224	19932
897.345	19643
897.466	19666
897.587	19761
897.708	19932
897.828	19833
897.949	19791
898.07	19635
898.19	19712
898.311	19860
898.431	19765
898.552	19818
898.672	19868
898.792	19799
898.913	19841
899.033	19689
899.153	19559
899.273	19419
899.393	19499
899.513	19419
899.633	19681
899.753	19571
899.873	19472
899.993	19548
900.113	19529
900.232	19597
900.352	19502
900.472	19320
900.591	19244
900.711	19316
900.83	19225
900.95	19426
901.069	19339
901.189	19190
901.308	19069
901.427	18878
901.546	18939
901.665	18939
901.784	18897
901.904	18848
902.023	18673
902.141	18608
902.26	18372
902.379	18475
902.498	18410
902.617	18448
902.735	18433
902.854	18418
902.973	18319
903.091	18102
903.21	18117
903.328	18095
903.446	17954
903.565	17992
903.683	17897
903.801	17882
903.919	17813
904.038	17954
904.156	17611
904.274	17805
904.392	17748
904.51	17707
904.627	17672
904.745	17809
904.863	17802
904.981	17562
905.098	17315
905.216	17364
905.334	17444
905.451	17459
905.569	17258
905.686	17311
905.803	17345
905.921	17124
906.038	17315
906.155	17162
906.272	17064
906.389	16904
906.506	16938
906.623	16911
906.74	16866
906.857	16805
906.974	16877
907.091	16995
907.208	17041
907.324	16858
907.441	16706
907.557	16721
907.674	16698
907.79	16546
907.907	16523
908.023	16603
908.139	16660
908.256	16679
908.372	16500
908.488	16523
908.604	16341
908.72	16287
908.836	16379
908.952	16276
909.068	16424
909.184	16367
909.3	16428
909.415	16348
909.531	16314
909.647	15975
909.762	16059
909.878	16112
909.993	16097
910.108	16044
910.224	16059
910.339	16059
910.454	15983
910.57	15892
910.685	15854
910.8	16082
910.915	16021
911.03	15960
911.145	15781
911.259	15739
911.374	15682
911.489	15614
911.604	15530
911.718	15447
911.833	15443
911.947	15336
912.062	15275
912.176	15355
912.291	15450
912.405	15447
912.519	15618
912.633	15603
912.748	15458
912.862	15336
912.976	15237
913.09	15093
913.204	15237
913.318	15256
913.431	15424
913.545	15317
913.659	15272
913.772	15252
913.886	15112
914	15062
914.113	15154
914.226	15138
914.34	15157
914.453	14994
914.566	15135
914.68	14967
914.793	15009
914.906	14811
915.019	14663
915.132	14686
915.245	14674
915.358	14712
915.47	14659
915.583	14701
915.696	14724
915.809	14792
915.921	14826
916.034	14686
916.146	14651
916.259	14594
916.371	14636
916.483	14670
916.595	14659
916.708	14499
916.82	14530
916.932	14499
917.044	14594
917.156	14484
917.268	14412
917.38	14450
917.491	14324
917.603	14385
917.715	14473
917.826	14492
917.938	14290
918.049	14145
918.161	14282
918.272	14492
918.384	14396
918.495	14313
918.606	14176
918.717	14077
918.828	14123
918.939	14195
919.05	14180
919.161	14157
919.272	13989
919.383	14065
919.494	14199
919.604	14343
919.715	14081
919.826	14123
919.936	14115
920.047	14195
920.157	14145
920.267	14301
920.378	14073
920.488	14077
920.598	14301
920.708	14396
920.818	14225
920.928	14221
921.038	14374
921.148	14278
921.258	14081
921.368	13993
921.477	13963
921.587	13826
921.697	13765
921.806	13841
921.916	13666
922.025	13563
922.134	13506
922.244	13445
922.353	13575
922.462	13457
922.571	13384
922.68	13187
922.789	13107
922.898	13168
923.007	13095
923.116	13209
923.224	13031
923.333	13076
923.442	13019
923.55	12996
923.659	13103
923.767	13065
923.876	12981
923.984	13023
924.092	12859
924.201	13000
924.309	12928
924.417	12897
924.525	12776
924.633	12890
924.741	13799
924.849	12658
924.956	12795
925.064	12616
925.172	12513
925.279	12601
925.387	12608
925.494	12578
925.602	12719
925.709	12623
925.816	12506
925.924	12547
926.031	12700
926.138	12616
926.245	12566
926.352	12414
926.459	12494
926.566	12639
926.673	12464
926.779	12361
926.886	12350
926.993	12216
927.099	12213
927.206	12232
927.312	12159
927.419	12205
927.525	12102
927.631	12159
927.737	12087
927.843	12022
927.95	11847
928.056	11939
928.162	12026
928.267	12076
928.373	12551
928.479	12049
928.585	11901
928.69	11939
928.796	12019
928.901	11889
929.007	11661
929.112	11908
929.218	11775
929.323	11805
929.428	11707
929.533	11809
929.638	11737
929.743	11691
929.848	11684
929.953	11653
930.058	11653
930.163	11474
930.267	11391
930.372	11566
930.477	11330
930.581	11646
930.685	11474
930.79	11356
930.894	11398
930.998	11398
931.103	11463
931.207	11102
931.311	10961
931.415	10869
931.519	10782
931.623	10641
