Data from test_V78500241_675.txt Node
Date: Fri Mar 25 15:14:33 CST 2022
User: usil
Spectrometer: V785-0024
Trigger mode: 0
Integration Time (sec): 4.000000E-1
Scans to average: 1
Nonlinearity correction enabled: false
Boxcar width: 0
Storing dark spectrum: false
XAxis mode: Wavelengths
Number of Pixels in Spectrum: 1024
>>>>>Begin Spectral Data<<<<<
801.071	27937
801.214	27865
801.356	27751
801.499	27660
801.641	27667
801.783	27568
801.926	27557
802.068	27599
802.211	27496
802.353	27412
802.496	27264
802.638	27279
802.78	27214
802.923	27306
803.065	27138
803.208	27108
803.35	27317
803.492	27351
803.635	27370
803.777	27287
803.919	27424
804.061	27709
804.204	27466
804.346	27363
804.488	27416
804.63	27526
804.773	27340
804.915	27412
805.057	27507
805.199	27500
805.341	27679
805.483	27606
805.626	27500
805.768	27382
805.91	27454
806.052	27633
806.194	27485
806.336	27819
806.478	27603
806.62	27534
806.762	27743
806.904	27785
807.046	28013
807.188	28006
807.33	28017
807.472	27956
807.614	27922
807.756	27914
807.898	27873
808.04	27968
808.182	27884
808.324	27724
808.465	27857
808.607	27987
808.749	28013
808.891	28162
809.033	28348
809.174	28318
809.316	28207
809.458	28287
809.6	28325
809.741	28291
809.883	28367
810.025	28584
810.166	28398
810.308	28508
810.45	28363
810.591	28535
810.733	28360
810.875	28192
811.016	28162
811.158	28200
811.299	28379
811.441	28421
811.582	28451
811.724	28143
811.865	28070
812.007	28185
812.148	28238
812.29	28310
812.431	28447
812.573	28634
812.714	28710
812.855	28797
812.997	28915
813.138	29166
813.279	28957
813.421	28759
813.562	28908
813.703	28622
813.845	28573
813.986	28246
814.127	27991
814.268	27857
814.41	28063
814.551	27930
814.692	27983
814.833	27987
814.974	27846
815.115	27888
815.256	27842
815.397	27895
815.539	27831
815.68	27774
815.821	27751
815.962	27762
816.103	27819
816.244	27720
816.385	27660
816.526	27462
816.666	27466
816.807	27199
816.948	27321
817.089	27249
817.23	27313
817.371	27329
817.512	27363
817.653	27287
817.793	27321
817.934	27329
818.075	27279
818.216	27264
818.356	27150
818.497	27138
818.638	27005
818.778	27055
818.919	27112
819.06	27085
819.2	27043
819.341	27173
819.481	27180
819.622	27473
819.762	27530
819.903	27401
820.043	27447
820.184	27397
820.324	27287
820.465	27481
820.605	27386
820.746	27462
820.886	27397
821.026	27291
821.167	27332
821.307	27317
821.447	27233
821.588	27237
821.728	27001
821.868	26887
822.008	26887
822.149	26773
822.289	26705
822.429	26625
822.569	26282
822.709	26252
822.849	26328
822.99	26271
823.13	26145
823.27	26183
823.41	26172
823.55	25974
823.69	26050
823.83	26024
823.97	26138
824.11	25966
824.25	25875
824.389	25917
824.529	25902
824.669	25849
824.809	26012
824.949	26020
825.089	26107
825.228	25864
825.368	25830
825.508	25986
825.648	25719
825.787	25795
825.927	25852
826.067	25674
826.206	25761
826.346	25765
826.485	25849
826.625	25712
826.765	25906
826.904	25799
827.044	25525
827.183	25514
827.323	25445
827.462	25529
827.601	25502
827.741	25548
827.88	25441
828.02	25396
828.159	25422
828.298	25407
828.437	25434
828.577	25445
828.716	25468
828.855	25369
828.994	25217
829.134	25202
829.273	25358
829.412	25209
829.551	25164
829.69	25179
829.829	25228
829.968	25274
830.107	25255
830.246	25152
830.385	25110
830.524	25050
830.663	25023
830.802	24821
830.941	24859
831.08	24757
831.219	24951
831.357	24924
831.496	24890
831.635	24715
831.774	24730
831.913	24669
832.051	24547
832.19	24658
832.329	24734
832.467	24505
832.606	24330
832.744	24418
832.883	24311
833.022	24547
833.16	24513
833.299	24441
833.437	24460
833.576	24547
833.714	24494
833.852	24563
833.991	24509
834.129	24490
834.267	24722
834.406	24544
834.544	24616
834.682	24475
834.821	24490
834.959	24570
835.097	24437
835.235	24578
835.373	24418
835.511	24380
835.65	24479
835.788	24304
835.926	24182
836.064	24053
836.202	24216
836.34	24376
836.478	24304
836.615	24266
836.753	24376
836.891	24452
837.029	24486
837.167	24292
837.305	24209
837.443	24182
837.58	24247
837.718	24254
837.856	24220
837.993	24117
838.131	24174
838.269	23935
838.406	24022
838.544	23961
838.681	23752
838.819	23790
838.956	23634
839.094	23802
839.231	23745
839.369	23805
839.506	23965
839.643	23779
839.781	23592
839.918	23562
840.055	23687
840.193	23558
840.33	23608
840.467	23604
840.604	23642
840.742	23805
840.879	23570
841.016	23474
841.153	23417
841.29	23665
841.427	23368
841.564	23733
841.701	23440
841.838	23547
841.975	23448
842.112	23368
842.249	23349
842.385	23242
842.522	23440
842.659	23376
842.796	23204
842.933	23223
843.069	23341
843.206	23280
843.343	23353
843.479	23296
843.616	23216
843.752	23174
843.889	23086
844.025	23284
844.162	23041
844.298	23284
844.435	23102
844.571	22957
844.708	22995
844.844	23284
844.98	23303
845.117	23280
845.253	23003
845.389	22949
845.525	23128
845.661	22957
845.798	22919
845.934	22748
846.07	22790
846.206	22938
846.342	22908
846.478	22736
846.614	22634
846.75	22592
846.886	22516
847.022	22622
847.158	22596
847.294	22508
847.429	22573
847.565	22493
847.701	22752
847.837	22363
847.972	22310
848.108	22303
848.244	22242
848.379	22185
848.515	22162
848.65	22226
848.786	22074
848.921	22249
849.057	22306
849.192	22150
849.328	22082
849.463	22063
849.598	22040
849.734	22013
849.869	21941
850.004	21979
850.14	21926
850.275	21979
850.41	21892
850.545	21888
850.68	21880
850.815	21915
850.95	22021
851.085	22067
851.22	22010
851.355	21812
851.49	21865
851.625	21949
851.76	21846
851.895	21781
852.03	21838
852.165	21949
852.299	21956
852.434	21964
852.569	21941
852.703	21956
852.838	22002
852.973	22059
853.107	22025
853.242	21846
853.376	21903
853.511	21679
853.645	21747
853.78	21808
853.914	21732
854.048	21648
854.183	21507
854.317	21709
854.451	21850
854.585	21755
854.72	21743
854.854	21743
854.988	21633
855.122	21709
855.256	21652
855.39	21793
855.524	21732
855.658	21728
855.792	21686
855.926	21698
856.06	21762
856.194	21778
856.327	21728
856.461	21667
856.595	21587
856.729	21682
856.862	21846
856.996	21797
857.13	21770
857.263	21816
857.397	21819
857.53	21785
857.664	21705
857.797	21759
857.931	21823
858.064	21747
858.197	21739
858.331	21641
858.464	21759
858.597	21572
858.731	21728
858.864	21679
858.997	21720
859.13	21709
859.263	21652
859.396	21835
859.529	21682
859.662	21622
859.795	21644
859.928	21823
860.061	21895
860.194	21922
860.327	21682
860.46	21804
860.592	21876
860.725	21895
860.858	21850
860.99	21720
861.123	21561
861.256	21629
861.388	21747
861.521	22421
861.653	21622
861.786	21538
861.918	21477
862.05	21515
862.183	21564
862.315	21743
862.447	21770
862.58	21591
862.712	21447
862.844	21382
862.976	21530
863.108	21538
863.24	21694
863.372	21363
863.504	21382
863.636	21511
863.768	21454
863.9	21359
864.032	21340
864.164	21298
864.296	21447
864.428	21622
864.559	21553
864.691	21545
864.823	21477
864.954	21431
865.086	21447
865.217	21264
865.349	21161
865.48	21408
865.612	21424
865.743	21523
865.875	21374
866.006	21355
866.137	21275
866.269	21344
866.4	21230
866.531	21146
866.662	21287
866.793	21275
866.924	21119
867.055	21161
867.186	21237
867.317	21241
867.448	21119
867.579	21150
867.71	21093
867.841	21058
867.972	21283
868.103	21173
868.233	21256
868.364	21325
868.495	21230
868.625	21507
868.756	21549
868.886	21439
869.017	21519
869.147	21610
869.278	21629
869.408	21526
869.539	21534
869.669	21523
869.799	21595
869.929	21614
870.06	21526
870.19	21838
870.32	21747
870.45	21713
870.58	21861
870.71	21964
870.84	22010
870.97	21865
871.1	21800
871.23	22078
871.36	22059
871.489	22082
871.619	21975
871.749	21949
871.879	22124
872.008	22196
872.138	21987
872.267	22093
872.397	21907
872.526	22002
872.656	21922
872.785	21964
872.915	21930
873.044	22204
873.173	22044
873.303	22150
873.432	22204
873.561	22310
873.69	22097
873.819	22006
873.948	22124
874.077	22116
874.206	22048
874.335	22200
874.464	22143
874.593	22303
874.722	22253
874.851	22409
874.979	22421
875.108	22455
875.237	22188
875.365	22173
875.494	22314
875.623	22329
875.751	22280
875.88	22451
876.008	22481
876.136	22531
876.265	22698
876.393	22748
876.521	22877
876.65	22744
876.778	22660
876.906	22763
877.034	22660
877.162	22588
877.29	22584
877.418	22755
877.546	22679
877.674	22755
877.802	22645
877.93	22611
878.058	22588
878.185	22538
878.313	22668
878.441	22584
878.568	22390
878.696	22691
878.824	22797
878.951	22679
879.079	22717
879.206	22961
879.333	22805
879.461	22733
879.588	22782
879.715	22748
879.842	22987
879.97	22725
880.097	22493
880.224	22428
880.351	22596
880.478	22607
880.605	22527
880.732	22470
880.859	22755
880.986	22489
881.112	22451
881.239	22382
881.366	22196
881.493	22169
881.619	22097
881.746	22082
881.872	22013
881.999	22051
882.125	21911
882.252	22173
882.378	21991
882.505	22010
882.631	21895
882.757	21724
882.883	21983
883.01	21831
883.136	21709
883.262	21663
883.388	21534
883.514	21899
883.64	21698
883.766	21671
883.892	21496
884.018	21561
884.143	21694
884.269	21778
884.395	21431
884.52	21214
884.646	21363
884.772	21317
884.897	21313
885.023	21462
885.148	21450
885.274	21481
885.399	21603
885.524	21367
885.65	21397
885.775	21454
885.9	21298
886.025	21462
886.15	21378
886.275	21313
886.4	21317
886.525	21329
886.65	21336
886.775	21302
886.9	21397
887.025	21557
887.149	21317
887.274	21245
887.399	21116
887.523	21161
887.648	21055
887.773	21013
887.897	21192
888.021	21226
888.146	21020
888.27	21298
888.395	21146
888.519	21252
888.643	21214
888.767	21279
888.891	20998
889.015	20998
889.139	21036
889.263	20857
889.387	21070
889.511	21104
889.635	20952
889.759	21032
889.883	20986
890.006	20811
890.13	20910
890.254	20845
890.377	20861
890.501	20765
890.624	20720
890.748	20708
890.871	20568
890.995	20389
891.118	20423
891.241	20522
891.364	20499
891.488	20583
891.611	20560
891.734	20556
891.857	20533
891.98	20590
892.103	20556
892.226	20549
892.349	20461
892.471	20374
892.594	20339
892.717	20454
892.839	20396
892.962	20358
893.085	20537
893.207	20290
893.33	20343
893.452	20248
893.575	20434
893.697	20366
893.819	20457
893.941	20549
894.064	20514
894.186	20351
894.308	20374
894.43	20362
894.552	20389
894.674	20511
894.796	20377
894.918	20415
895.04	20442
895.161	20427
895.283	20499
895.405	20454
895.526	20355
895.648	20336
895.769	20492
895.891	20393
896.012	20514
896.134	20514
896.255	20427
896.376	20454
896.498	20374
896.619	20366
896.74	20408
896.861	20473
896.982	20674
897.103	20769
897.224	20697
897.345	20587
897.466	20571
897.587	20625
897.708	20705
897.828	20606
897.949	20533
898.07	20442
898.19	20476
898.311	20640
898.431	20678
898.552	20651
898.672	20659
898.792	20651
898.913	20659
899.033	20503
899.153	20385
899.273	20317
899.393	20442
899.513	20362
899.633	20336
899.753	20351
899.873	20275
899.993	20503
900.113	20271
900.232	20370
900.352	20271
900.472	20195
900.591	20119
900.711	20267
900.83	20309
900.95	20176
901.069	20176
901.189	20031
901.308	19753
901.427	19632
901.546	19708
901.665	19753
901.784	19791
901.904	19582
902.023	19491
902.141	19369
902.26	19381
902.379	19331
902.498	19293
902.617	19107
902.735	19236
902.854	19236
902.973	19095
903.091	18840
903.21	18890
903.328	18776
903.446	18886
903.565	18757
903.683	18711
903.801	18551
903.919	18620
904.038	18692
904.156	18566
904.274	18528
904.392	18319
904.51	18391
904.627	18433
904.745	18525
904.863	18422
904.981	18232
905.098	18155
905.216	18190
905.334	18205
905.451	18148
905.569	18076
905.686	18053
905.803	18019
905.921	17885
906.038	18091
906.155	17954
906.272	17851
906.389	17760
906.506	17592
906.623	17581
906.74	17703
906.857	17623
906.974	17532
907.091	17630
907.208	17748
907.324	17611
907.441	17558
907.557	17433
907.674	17436
907.79	17296
907.907	17231
908.023	17368
908.139	17341
908.256	17254
908.372	17288
908.488	17204
908.604	17140
908.72	17060
908.836	17117
908.952	17006
909.068	17121
909.184	17307
909.3	16976
909.415	17029
909.531	17147
909.647	16850
909.762	16786
909.878	16786
909.993	16801
910.108	16763
910.224	16793
910.339	16653
910.454	16687
910.57	16577
910.685	16443
910.8	16755
910.915	16687
911.03	16607
911.145	16352
911.259	16478
911.374	16253
911.489	16272
911.604	16268
911.718	16135
911.833	16093
911.947	16013
912.062	16010
912.176	16143
912.291	16105
912.405	16048
912.519	16143
912.633	16337
912.748	16200
912.862	16082
912.976	15937
913.09	15838
913.204	15854
913.318	15903
913.431	15975
913.545	16071
913.659	16051
913.772	15884
913.886	15720
914	15743
914.113	15873
914.226	15846
914.34	15739
914.453	15648
914.566	15701
914.68	15580
914.793	15606
914.906	15519
915.019	15321
915.132	15256
915.245	15382
915.358	15283
915.47	15416
915.583	15336
915.696	15367
915.809	15450
915.921	15367
916.034	15233
916.146	15199
916.259	15165
916.371	15237
916.483	15298
916.595	15214
916.708	15116
916.82	15131
916.932	15199
917.044	15093
917.156	15062
917.268	14887
917.38	15077
917.491	15032
917.603	14956
917.715	15001
917.826	15043
917.938	14872
918.049	14830
918.161	14960
918.272	15047
918.384	15085
918.495	14876
918.606	14826
918.717	14701
918.828	14826
918.939	14769
919.05	14659
919.161	14617
919.272	14602
919.383	14530
919.494	14743
919.604	14887
919.715	14765
919.826	14625
919.936	14613
920.047	14785
920.157	14682
920.267	14853
920.378	14636
920.488	14689
920.598	14895
920.708	14998
920.818	14895
920.928	14868
921.038	14994
921.148	14853
921.258	14731
921.368	14507
921.477	14473
921.587	14438
921.697	14286
921.806	14400
921.916	14229
922.025	14153
922.134	14069
922.244	14027
922.353	14031
922.462	13970
922.571	13833
922.68	13765
922.789	13685
922.898	13719
923.007	13605
923.116	13647
923.224	13643
923.333	13677
923.442	13597
923.55	13472
923.659	13594
923.767	13594
923.876	13502
923.984	13537
924.092	13419
924.201	13430
924.309	13457
924.417	13407
924.525	13362
924.633	13468
924.741	14107
924.849	13217
924.956	13339
925.064	13171
925.172	13019
925.279	13118
925.387	13213
925.494	12962
925.602	13255
925.709	13240
925.816	12897
925.924	13091
926.031	13145
926.138	12970
926.245	13084
926.352	12962
926.459	13042
926.566	13122
926.673	12958
926.779	12825
926.886	12817
926.993	12703
927.099	12776
927.206	12654
927.312	12593
927.419	12658
927.525	12681
927.631	12707
927.737	12585
927.843	12536
927.95	12395
928.056	12399
928.162	12509
928.267	12578
928.373	13206
928.479	12570
928.585	12304
928.69	12471
928.796	12490
928.901	12384
929.007	12262
929.112	12376
929.218	12285
929.323	12357
929.428	12243
929.533	12262
929.638	12121
929.743	12133
929.848	12178
929.953	12175
930.058	12049
930.163	11897
930.267	11764
930.372	12041
930.477	11824
930.581	12159
930.685	11946
930.79	11775
930.894	11779
930.998	11752
931.103	11878
931.207	11520
931.311	11402
931.415	11296
931.519	11143
931.623	11109
