Data from test_V78500241_964.txt Node
Date: Fri Mar 25 15:16:34 CST 2022
User: usil
Spectrometer: V785-0024
Trigger mode: 0
Integration Time (sec): 4.000000E-1
Scans to average: 1
Nonlinearity correction enabled: false
Boxcar width: 0
Storing dark spectrum: false
XAxis mode: Wavelengths
Number of Pixels in Spectrum: 1024
>>>>>Begin Spectral Data<<<<<
801.071	27930
801.214	27888
801.356	27838
801.499	27679
801.641	27576
801.783	27549
801.926	27564
802.068	27530
802.211	27401
802.353	27454
802.496	27226
802.638	27142
802.78	27157
802.923	27104
803.065	27188
803.208	27268
803.35	27199
803.492	27283
803.635	27389
803.777	27256
803.919	27393
804.061	27751
804.204	27439
804.346	27329
804.488	27283
804.63	27321
804.773	27245
804.915	27469
805.057	27485
805.199	27507
805.341	27481
805.483	27580
805.626	27568
805.768	27466
805.91	27458
806.052	27599
806.194	27450
806.336	27701
806.478	27553
806.62	27450
806.762	27622
806.904	27876
807.046	28048
807.188	27865
807.33	27934
807.472	27846
807.614	27785
807.756	27941
807.898	27743
808.04	27770
808.182	27759
808.324	27808
808.465	28025
808.607	27994
808.749	28116
808.891	28204
809.033	28348
809.174	28158
809.316	28086
809.458	28204
809.6	28036
809.741	28234
809.883	28249
810.025	28417
810.166	28443
810.308	28436
810.45	28443
810.591	28360
810.733	28131
810.875	28310
811.016	27991
811.158	28048
811.299	28280
811.441	28386
811.582	28428
811.724	28306
811.865	28074
812.007	28147
812.148	28143
812.29	28128
812.431	28371
812.573	28516
812.714	28538
812.855	28672
812.997	28744
813.138	28991
813.279	28847
813.421	28656
813.562	28630
813.703	28531
813.845	28417
813.986	27972
814.127	28017
814.268	27895
814.41	27759
814.551	27953
814.692	27880
814.833	27823
814.974	27903
815.115	27968
815.256	27827
815.397	27663
815.539	27713
815.68	27713
815.821	27732
815.962	27713
816.103	27549
816.244	27648
816.385	27405
816.526	27538
816.666	27351
816.807	27062
816.948	27294
817.089	27245
817.23	27291
817.371	27207
817.512	27230
817.653	27226
817.793	27062
817.934	27138
818.075	27150
818.216	27325
818.356	27131
818.497	27051
818.638	26925
818.778	27013
818.919	26975
819.06	26998
819.2	26986
819.341	27173
819.481	27169
819.622	27302
819.762	27348
819.903	27454
820.043	27294
820.184	27382
820.324	27405
820.465	27420
820.605	27302
820.746	27207
820.886	27184
821.026	27218
821.167	27287
821.307	27237
821.447	27294
821.588	27093
821.728	26952
821.868	26788
822.008	26667
822.149	26621
822.289	26598
822.429	26374
822.569	26275
822.709	26252
822.849	26100
822.99	26214
823.13	26058
823.27	26168
823.41	26069
823.55	25917
823.69	26027
823.83	26050
823.97	25955
824.11	25883
824.25	25849
824.389	25712
824.529	25974
824.669	25791
824.809	25795
824.949	25986
825.089	25890
825.228	25845
825.368	25620
825.508	25685
825.648	25666
825.787	25677
825.927	25700
826.067	25689
826.206	25647
826.346	25708
826.485	25731
826.625	25670
826.765	25696
826.904	25818
827.044	25460
827.183	25419
827.323	25479
827.462	25449
827.601	25464
827.741	25384
827.88	25365
828.02	25274
828.159	25415
828.298	25430
828.437	25457
828.577	25308
828.716	25533
828.855	25308
828.994	25114
829.134	25137
829.273	25145
829.412	25103
829.551	25118
829.69	25133
829.829	25251
829.968	25187
830.107	25042
830.246	25156
830.385	25019
830.524	25069
830.663	24859
830.802	24867
830.941	24707
831.08	24604
831.219	24951
831.357	24939
831.496	24886
831.635	24840
831.774	24646
831.913	24646
832.051	24494
832.19	24563
832.329	24505
832.467	24391
832.606	24422
832.744	24365
832.883	24300
833.022	24475
833.16	24410
833.299	24536
833.437	24399
833.576	24418
833.714	24471
833.852	24490
833.991	24574
834.129	24437
834.267	24570
834.406	24486
834.544	24551
834.682	24437
834.821	24414
834.959	24597
835.097	24441
835.235	24521
835.373	24429
835.511	24505
835.65	24266
835.788	24308
835.926	24205
836.064	24083
836.202	24117
836.34	24338
836.478	24399
836.615	24403
836.753	24308
836.891	24426
837.029	24308
837.167	24251
837.305	24224
837.443	24289
837.58	24224
837.718	24239
837.856	24136
837.993	23980
838.131	24121
838.269	23965
838.406	24049
838.544	23954
838.681	23680
838.819	23714
838.956	23623
839.094	23638
839.231	23843
839.369	23794
839.506	23988
839.643	23790
839.781	23657
839.918	23486
840.055	23627
840.193	23570
840.33	23467
840.467	23509
840.604	23490
840.742	23687
840.879	23284
841.016	23318
841.153	23349
841.29	23615
841.427	23467
841.564	23558
841.701	23391
841.838	23547
841.975	23322
842.112	23414
842.249	23261
842.385	23318
842.522	23585
842.659	23372
842.796	23246
842.933	23212
843.069	23200
843.206	23185
843.343	23410
843.479	23227
843.616	23379
843.752	23109
843.889	23147
844.025	23227
844.162	23071
844.298	23136
844.435	23086
844.571	23014
844.708	23033
844.844	23178
844.98	23170
845.117	22999
845.253	22972
845.389	22911
845.525	22984
845.661	22915
845.798	22866
845.934	22763
846.07	22683
846.206	22843
846.342	22877
846.478	22797
846.614	22573
846.75	22417
846.886	22432
847.022	22717
847.158	22618
847.294	22459
847.429	22535
847.565	22462
847.701	22748
847.837	22257
847.972	22367
848.108	22344
848.244	22402
848.379	22112
848.515	21987
848.65	22128
848.786	22223
848.921	22147
849.057	22223
849.192	22150
849.328	22147
849.463	22276
849.598	22044
849.734	22055
849.869	21861
850.004	21895
850.14	21892
850.275	21937
850.41	21797
850.545	21800
850.68	21861
850.815	21892
850.95	21895
851.085	22032
851.22	21956
851.355	21915
851.49	21804
851.625	21873
851.76	21766
851.895	21759
852.03	21804
852.165	21842
852.299	22010
852.434	21915
852.569	22010
852.703	21831
852.838	21861
852.973	22082
853.107	22006
853.242	21686
853.376	21766
853.511	21656
853.645	21599
853.78	21808
853.914	21736
854.048	21686
854.183	21591
854.317	21667
854.451	22070
854.585	21675
854.72	21660
854.854	21717
854.988	21648
855.122	21709
855.256	21538
855.39	21724
855.524	21816
855.658	21652
855.792	21572
855.926	21622
856.06	21770
856.194	21770
856.327	21736
856.461	21660
856.595	21633
856.729	21705
856.862	21876
856.996	21766
857.13	21785
857.263	21850
857.397	21800
857.53	21591
857.664	21747
857.797	21713
857.931	21759
858.064	21720
858.197	21785
858.331	21762
858.464	21618
858.597	21587
858.731	21644
858.864	21629
858.997	21705
859.13	21789
859.263	21709
859.396	21800
859.529	21686
859.662	21747
859.795	21622
859.928	21663
860.061	21911
860.194	21892
860.327	21766
860.46	21793
860.592	21869
860.725	21743
860.858	21880
860.99	21759
861.123	21625
861.256	21679
861.388	21736
861.521	22371
861.653	21625
861.786	21614
861.918	21500
862.05	21572
862.183	21576
862.315	21671
862.447	21587
862.58	21660
862.712	21359
862.844	21458
862.976	21583
863.108	21526
863.24	21717
863.372	21298
863.504	21458
863.636	21325
863.768	21424
863.9	21481
864.032	21382
864.164	21230
864.296	21496
864.428	21538
864.559	21454
864.691	21507
864.823	21488
864.954	21325
865.086	21428
865.217	21268
865.349	21291
865.48	21348
865.612	21336
865.743	21348
865.875	21431
866.006	21252
866.137	21325
866.269	21298
866.4	21332
866.531	21264
866.662	21245
866.793	21218
866.924	21142
867.055	21214
867.186	21138
867.317	21157
867.448	21093
867.579	21302
867.71	21116
867.841	21142
867.972	21226
868.103	21226
868.233	21154
868.364	21279
868.495	21260
868.625	21412
868.756	21542
868.886	21389
869.017	21568
869.147	21549
869.278	21553
869.408	21595
869.539	21507
869.669	21469
869.799	21504
869.929	21568
870.06	21561
870.19	21751
870.32	21720
870.45	21759
870.58	22002
870.71	21899
870.84	21956
870.97	21762
871.1	21899
871.23	22040
871.36	22120
871.489	21994
871.619	22044
871.749	21987
871.879	22131
872.008	22082
872.138	22048
872.267	22025
872.397	21884
872.526	21774
872.656	21857
872.785	21797
872.915	22109
873.044	22112
873.173	22021
873.303	22207
873.432	22150
873.561	22207
873.69	22162
873.819	22211
873.948	22147
874.077	22131
874.206	21956
874.335	22177
874.464	22147
874.593	22360
874.722	22242
874.851	22242
874.979	22322
875.108	22314
875.237	22230
875.365	22246
875.494	22276
875.623	22318
875.751	22367
875.88	22265
876.008	22447
876.136	22535
876.265	22626
876.393	22812
876.521	22774
876.65	22790
876.778	22630
876.906	22611
877.034	22637
877.162	22736
877.29	22687
877.418	22660
877.546	22599
877.674	22569
877.802	22577
877.93	22634
878.058	22641
878.185	22611
878.313	22565
878.441	22573
878.568	22382
878.696	22535
878.824	22675
878.951	22679
879.079	22752
879.206	23010
879.333	22755
879.461	22733
879.588	22694
879.715	22797
879.842	22885
879.97	22664
880.097	22497
880.224	22550
880.351	22538
880.478	22413
880.605	22413
880.732	22409
880.859	22759
880.986	22451
881.112	22459
881.239	22489
881.366	22261
881.493	22204
881.619	22048
881.746	22010
881.872	22070
881.999	22010
882.125	22017
882.252	22017
882.378	22059
882.505	22135
882.631	21827
882.757	21831
882.883	21873
883.01	21747
883.136	21629
883.262	21523
883.388	21599
883.514	21709
883.64	21709
883.766	21675
883.892	21576
884.018	21561
884.143	21739
884.269	21736
884.395	21378
884.52	21439
884.646	21515
884.772	21428
884.897	21199
885.023	21374
885.148	21530
885.274	21473
885.399	21477
885.524	21393
885.65	21416
885.775	21363
885.9	21363
886.025	21507
886.15	21561
886.275	21363
886.4	21256
886.525	21351
886.65	21283
886.775	21283
886.9	21412
887.025	21583
887.149	21302
887.274	21214
887.399	21085
887.523	21081
887.648	21146
887.773	21024
887.897	21074
888.021	21233
888.146	21077
888.27	21241
888.395	21211
888.519	21096
888.643	21195
888.767	21249
888.891	21119
889.015	20887
889.139	20982
889.263	20952
889.387	21009
889.511	21074
889.635	21017
889.759	20883
889.883	20971
890.006	20842
890.13	20921
890.254	20899
890.377	20948
890.501	20575
890.624	20731
890.748	20651
890.871	20560
890.995	20552
891.118	20374
891.241	20530
891.364	20419
891.488	20560
891.611	20503
891.734	20549
891.857	20590
891.98	20522
892.103	20568
892.226	20412
892.349	20389
892.471	20347
892.594	20408
892.717	20480
892.839	20415
892.962	20320
893.085	20473
893.207	20290
893.33	20282
893.452	20263
893.575	20404
893.697	20347
893.819	20541
893.941	20579
894.064	20545
894.186	20332
894.308	20415
894.43	20484
894.552	20492
894.674	20461
894.796	20290
894.918	20389
895.04	20271
895.161	20484
895.283	20377
895.405	20396
895.526	20366
895.648	20408
895.769	20442
895.891	20461
896.012	20484
896.134	20518
896.255	20339
896.376	20343
896.498	20530
896.619	20358
896.74	20298
896.861	20400
896.982	20735
897.103	20868
897.224	20640
897.345	20571
897.466	20488
897.587	20568
897.708	20720
897.828	20602
897.949	20442
898.07	20324
898.19	20438
898.311	20720
898.431	20438
898.552	20564
898.672	20606
898.792	20651
898.913	20461
899.033	20454
899.153	20358
899.273	20259
899.393	20305
899.513	20465
899.633	20362
899.753	20408
899.873	20225
899.993	20385
900.113	20313
900.232	20263
900.352	20157
900.472	20225
900.591	20020
900.711	20111
900.83	20069
900.95	20214
901.069	20081
901.189	19917
901.308	19818
901.427	19677
901.546	19719
901.665	19662
901.784	19658
901.904	19518
902.023	19552
902.141	19263
902.26	19232
902.379	19343
902.498	19126
902.617	19164
902.735	19285
902.854	19190
902.973	19046
903.091	18939
903.21	18909
903.328	18935
903.446	18890
903.565	18768
903.683	18658
903.801	18616
903.919	18585
904.038	18593
904.156	18418
904.274	18448
904.392	18418
904.51	18330
904.627	18467
904.745	18418
904.863	18414
904.981	18311
905.098	18163
905.216	18076
905.334	18117
905.451	18106
905.569	18190
905.686	18159
905.803	17992
905.921	17885
906.038	18072
906.155	18034
906.272	17828
906.389	17779
906.506	17707
906.623	17691
906.74	17638
906.857	17520
906.974	17566
907.091	17714
907.208	17726
907.324	17611
907.441	17478
907.557	17364
907.674	17341
907.79	17227
907.907	17440
908.023	17379
908.139	17337
908.256	17197
908.372	17197
908.488	17242
908.604	17296
908.72	16904
908.836	17121
908.952	17060
909.068	17056
909.184	17197
909.3	17037
909.415	17033
909.531	17094
909.647	16805
909.762	16790
909.878	16736
909.993	16843
910.108	16729
910.224	16763
910.339	16767
910.454	16630
910.57	16577
910.685	16527
910.8	16824
910.915	16748
911.03	16588
911.145	16443
911.259	16333
911.374	16386
911.489	16306
911.604	16253
911.718	16055
911.833	16177
911.947	15945
912.062	15964
912.176	16158
912.291	16048
912.405	16029
912.519	16249
912.633	16200
912.748	16074
912.862	16105
912.976	15937
913.09	15857
913.204	15861
913.318	15953
913.431	15998
913.545	15994
913.659	15937
913.772	15915
913.886	15800
914	15781
914.113	15804
914.226	15823
914.34	15766
914.453	15606
914.566	15804
914.68	15656
914.793	15595
914.906	15439
915.019	15351
915.132	15241
915.245	15302
915.358	15382
915.47	15458
915.583	15378
915.696	15348
915.809	15408
915.921	15466
916.034	15230
916.146	15294
916.259	15161
916.371	15272
916.483	15275
916.595	15169
916.708	15097
916.82	15161
916.932	15058
917.044	15074
917.156	15055
917.268	15017
917.38	15013
917.491	14994
917.603	14979
917.715	14975
917.826	15085
917.938	14944
918.049	14918
918.161	14925
918.272	15066
918.384	15028
918.495	14994
918.606	14785
918.717	14708
918.828	14758
918.939	14667
919.05	14568
919.161	14640
919.272	14541
919.383	14632
919.494	14739
919.604	14925
919.715	14697
919.826	14697
919.936	14693
920.047	14746
920.157	14686
920.267	14944
920.378	14708
920.488	14670
920.598	14830
920.708	14937
920.818	14857
920.928	14739
921.038	14982
921.148	14876
921.258	14560
921.368	14473
921.477	14446
921.587	14499
921.697	14206
921.806	14396
921.916	14210
922.025	14130
922.134	14062
922.244	13951
922.353	14191
922.462	13963
922.571	13799
922.68	13742
922.789	13731
922.898	13643
923.007	13590
923.116	13696
923.224	13708
923.333	13651
923.442	13514
923.55	13464
923.659	13643
923.767	13537
923.876	13518
923.984	13601
924.092	13438
924.201	13449
924.309	13464
924.417	13529
924.525	13301
924.633	13346
924.741	14313
924.849	13126
924.956	13320
925.064	13107
925.172	12993
925.279	13091
925.387	13110
925.494	13126
925.602	13129
925.709	13091
925.816	13080
925.924	13061
926.031	13091
926.138	13095
926.245	13061
926.352	12973
926.459	13053
926.566	13072
926.673	13004
926.779	12806
926.886	12962
926.993	12722
927.099	12654
927.206	12616
927.312	12623
927.419	12681
927.525	12684
927.631	12684
927.737	12585
927.843	12536
927.95	12426
928.056	12456
928.162	12479
928.267	12490
928.373	13061
928.479	12616
928.585	12289
928.69	12445
928.796	12448
928.901	12353
929.007	12239
929.112	12270
929.218	12323
929.323	12117
929.428	12159
929.533	12380
929.638	12087
929.743	12201
929.848	12178
929.953	12182
930.058	12022
930.163	11889
930.267	11847
930.372	12007
930.477	11809
930.581	12057
930.685	11889
930.79	11805
930.894	11786
930.998	11832
931.103	11893
931.207	11516
931.311	11478
931.415	11356
931.519	11185
931.623	11098
