Data from test_V78500241_1489.txt Node
Date: Fri Mar 25 15:20:13 CST 2022
User: usil
Spectrometer: V785-0024
Trigger mode: 0
Integration Time (sec): 4.000000E-1
Scans to average: 1
Nonlinearity correction enabled: false
Boxcar width: 0
Storing dark spectrum: false
XAxis mode: Wavelengths
Number of Pixels in Spectrum: 1024
>>>>>Begin Spectral Data<<<<<
801.071	28139
801.214	28086
801.356	27857
801.499	27686
801.641	27625
801.783	27549
801.926	27713
802.068	27561
802.211	27644
802.353	27648
802.496	27488
802.638	27378
802.78	27272
802.923	27207
803.065	27131
803.208	27340
803.35	27199
803.492	27386
803.635	27443
803.777	27272
803.919	27473
804.061	27831
804.204	27591
804.346	27485
804.488	27378
804.63	27523
804.773	27477
804.915	27534
805.057	27580
805.199	27469
805.341	27561
805.483	27781
805.626	27747
805.768	27530
805.91	27705
806.052	27641
806.194	27587
806.336	27789
806.478	27705
806.62	27667
806.762	27759
806.904	27823
807.046	28044
807.188	28029
807.33	28017
807.472	28181
807.614	27945
807.756	28006
807.898	27857
808.04	27934
808.182	27873
808.324	27956
808.465	28040
808.607	28226
808.749	28246
808.891	28413
809.033	28421
809.174	28257
809.316	28173
809.458	28234
809.6	28303
809.741	28424
809.883	28637
810.025	28630
810.166	28660
810.308	28596
810.45	28698
810.591	28561
810.733	28352
810.875	28284
811.016	28124
811.158	28188
811.299	28314
811.441	28413
811.582	28325
811.724	28398
811.865	28246
812.007	28211
812.148	28196
812.29	28337
812.431	28409
812.573	28710
812.714	28683
812.855	28778
812.997	29003
813.138	29018
813.279	28812
813.421	28736
813.562	28847
813.703	28717
813.845	28451
813.986	28371
814.127	28032
814.268	27987
814.41	28150
814.551	28044
814.692	28158
814.833	28025
814.974	27888
815.115	27994
815.256	27934
815.397	28051
815.539	28006
815.68	27724
815.821	27633
815.962	27869
816.103	27850
816.244	27739
816.385	27618
816.526	27576
816.666	27488
816.807	27302
816.948	27466
817.089	27401
817.23	27397
817.371	27386
817.512	27260
817.653	27302
817.793	27138
817.934	27310
818.075	27370
818.216	27195
818.356	27237
818.497	27119
818.638	27066
818.778	27085
818.919	27089
819.06	27150
819.2	27268
819.341	27249
819.481	27275
819.622	27397
819.762	27644
819.903	27739
820.043	27370
820.184	27332
820.324	27306
820.465	27458
820.605	27492
820.746	27481
820.886	27321
821.026	27420
821.167	27317
821.307	27329
821.447	27359
821.588	27321
821.728	27211
821.868	26960
822.008	26925
822.149	26781
822.289	26708
822.429	26560
822.569	26450
822.709	26480
822.849	26206
822.99	26336
823.13	26191
823.27	26191
823.41	26100
823.55	25898
823.69	26206
823.83	26084
823.97	26046
824.11	25849
824.25	25906
824.389	25887
824.529	25883
824.669	26008
824.809	26050
824.949	25890
825.089	25902
825.228	25970
825.368	25708
825.508	25772
825.648	25894
825.787	25723
825.927	25841
826.067	25723
826.206	25643
826.346	25936
826.485	25788
826.625	25871
826.765	26012
826.904	25902
827.044	25609
827.183	25483
827.323	25460
827.462	25632
827.601	25597
827.741	25502
827.88	25556
828.02	25293
828.159	25567
828.298	25468
828.437	25605
828.577	25479
828.716	25632
828.855	25426
828.994	25232
829.134	25293
829.273	25221
829.412	25179
829.551	25270
829.69	25228
829.829	25285
829.968	25320
830.107	25255
830.246	25225
830.385	25164
830.524	25179
830.663	25088
830.802	24973
830.941	24852
831.08	24726
831.219	24867
831.357	24905
831.496	24966
831.635	24726
831.774	24669
831.913	24833
832.051	24502
832.19	24623
832.329	24688
832.467	24460
832.606	24460
832.744	24426
832.883	24414
833.022	24448
833.16	24429
833.299	24574
833.437	24517
833.576	24517
833.714	24513
833.852	24566
833.991	24639
834.129	24547
834.267	24570
834.406	24589
834.544	24585
834.682	24525
834.821	24551
834.959	24764
835.097	24505
835.235	24582
835.373	24540
835.511	24437
835.65	24369
835.788	24399
835.926	24216
836.064	24144
836.202	24129
836.34	24361
836.478	24513
836.615	24395
836.753	24384
836.891	24399
837.029	24441
837.167	24315
837.305	24178
837.443	24251
837.58	24163
837.718	24319
837.856	24209
837.993	24155
838.131	24190
838.269	23954
838.406	24125
838.544	23973
838.681	23885
838.819	23885
838.956	23623
839.094	23649
839.231	23646
839.369	23783
839.506	24133
839.643	23999
839.781	23737
839.918	23604
840.055	23760
840.193	23649
840.33	23551
840.467	23661
840.604	23592
840.742	23843
840.879	23581
841.016	23623
841.153	23505
841.29	23691
841.427	23570
841.564	23570
841.701	23558
841.838	23547
841.975	23589
842.112	23455
842.249	23436
842.385	23356
842.522	23520
842.659	23372
842.796	23227
842.933	23402
843.069	23220
843.206	23261
843.343	23421
843.479	23330
843.616	23330
843.752	22984
843.889	23105
844.025	23288
844.162	23086
844.298	23185
844.435	23117
844.571	23105
844.708	23204
844.844	23242
844.98	23105
845.117	23128
845.253	23090
845.389	22972
845.525	23052
845.661	22919
845.798	22744
845.934	22957
846.07	22820
846.206	22660
846.342	22946
846.478	22881
846.614	22656
846.75	22603
846.886	22607
847.022	22580
847.158	22622
847.294	22588
847.429	22634
847.565	22489
847.701	22717
847.837	22295
847.972	22207
848.108	22344
848.244	22329
848.379	22150
848.515	22128
848.65	22124
848.786	22150
848.921	22124
849.057	22333
849.192	22200
849.328	22120
849.463	22242
849.598	22147
849.734	22078
849.869	21949
850.004	21842
850.14	21994
850.275	21994
850.41	21838
850.545	21835
850.68	21918
850.815	21934
850.95	21876
851.085	22101
851.22	21994
851.355	21911
851.49	21869
851.625	21732
851.76	21823
851.895	21812
852.03	21922
852.165	21869
852.299	21884
852.434	22036
852.569	21972
852.703	21975
852.838	21953
852.973	22082
853.107	22036
853.242	21876
853.376	21831
853.511	21679
853.645	21797
853.78	21789
853.914	21633
854.048	21701
854.183	21614
854.317	21698
854.451	21899
854.585	21736
854.72	21671
854.854	21888
854.988	21629
855.122	21770
855.256	21606
855.39	21747
855.524	21766
855.658	21686
855.792	21781
855.926	21819
856.06	21682
856.194	21804
856.327	21724
856.461	21736
856.595	21701
856.729	21800
856.862	21895
856.996	21698
857.13	21732
857.263	21918
857.397	21846
857.53	21675
857.664	21682
857.797	21793
857.931	21793
858.064	21827
858.197	21816
858.331	21842
858.464	21660
858.597	21698
858.731	21774
858.864	21789
858.997	21656
859.13	21694
859.263	21694
859.396	21838
859.529	21595
859.662	21682
859.795	21781
859.928	21797
860.061	21812
860.194	21975
860.327	21724
860.46	21838
860.592	21918
860.725	21819
860.858	21717
860.99	21789
861.123	21545
861.256	21736
861.388	21644
861.521	22352
861.653	21663
861.786	21538
861.918	21568
862.05	21557
862.183	21526
862.315	21724
862.447	21675
862.58	21492
862.712	21382
862.844	21466
862.976	21500
863.108	21370
863.24	21873
863.372	21363
863.504	21359
863.636	21389
863.768	21420
863.9	21526
864.032	21268
864.164	21439
864.296	21458
864.428	21553
864.559	21367
864.691	21606
864.823	21428
864.954	21408
865.086	21428
865.217	21306
865.349	21245
865.48	21313
865.612	21329
865.743	21435
865.875	21252
866.006	21325
866.137	21351
866.269	21294
866.4	21222
866.531	21051
866.662	21264
866.793	21260
866.924	21211
867.055	21214
867.186	21230
867.317	21272
867.448	21138
867.579	21203
867.71	21081
867.841	21077
867.972	21241
868.103	21176
868.233	21237
868.364	21214
868.495	21321
868.625	21488
868.756	21519
868.886	21393
869.017	21416
869.147	21656
869.278	21622
869.408	21511
869.539	21496
869.669	21530
869.799	21492
869.929	21606
870.06	21549
870.19	21781
870.32	21907
870.45	21812
870.58	21816
870.71	21884
870.84	21755
870.97	21876
871.1	21842
871.23	22154
871.36	21972
871.489	21964
871.619	22055
871.749	22070
871.879	22055
872.008	22185
872.138	22097
872.267	22051
872.397	22059
872.526	21941
872.656	21899
872.785	21812
872.915	22070
873.044	22158
873.173	22021
873.303	22139
873.432	22192
873.561	22135
873.69	22280
873.819	22109
873.948	22097
874.077	22105
874.206	22013
874.335	22169
874.464	22143
874.593	22337
874.722	22268
874.851	22265
874.979	22382
875.108	22428
875.237	22280
875.365	22192
875.494	22246
875.623	22360
875.751	22200
875.88	22356
876.008	22440
876.136	22584
876.265	22736
876.393	22763
876.521	22839
876.65	22713
876.778	22687
876.906	22660
877.034	22615
877.162	22717
877.29	22557
877.418	22645
877.546	22672
877.674	22649
877.802	22592
877.93	22622
878.058	22611
878.185	22531
878.313	22542
878.441	22675
878.568	22459
878.696	22500
878.824	22637
878.951	22622
879.079	22797
879.206	22877
879.333	22771
879.461	22653
879.588	22782
879.715	22801
879.842	22896
879.97	22774
880.097	22489
880.224	22466
880.351	22508
880.478	22497
880.605	22360
880.732	22474
880.859	22637
880.986	22348
881.112	22417
881.239	22344
881.366	22246
881.493	22246
881.619	22059
881.746	22055
881.872	21949
881.999	22078
882.125	22048
882.252	22101
882.378	21998
882.505	22154
882.631	21808
882.757	21724
882.883	21800
883.01	21713
883.136	21709
883.262	21701
883.388	21477
883.514	21880
883.64	21766
883.766	21603
883.892	21507
884.018	21545
884.143	21557
884.269	21778
884.395	21386
884.52	21275
884.646	21275
884.772	21317
884.897	21233
885.023	21355
885.148	21515
885.274	21473
885.399	21408
885.524	21336
885.65	21424
885.775	21348
885.9	21363
886.025	21439
886.15	21435
886.275	21176
886.4	21321
886.525	21287
886.65	21294
886.775	21291
886.9	21466
887.025	21530
887.149	21306
887.274	21108
887.399	21252
887.523	21161
887.648	21055
887.773	21096
887.897	21176
888.021	21188
888.146	20960
888.27	21100
888.395	21119
888.519	21013
888.643	21066
888.767	21199
888.891	21032
889.015	21005
889.139	20979
889.263	20967
889.387	21051
889.511	21150
889.635	21032
889.759	20933
889.883	20910
890.006	20960
890.13	20963
890.254	20891
890.377	20872
890.501	20750
890.624	20701
890.748	20735
890.871	20712
890.995	20465
891.118	20415
891.241	20511
891.364	20438
891.488	20655
891.611	20465
891.734	20450
891.857	20415
891.98	20408
892.103	20507
892.226	20366
892.349	20568
892.471	20317
892.594	20454
892.717	20419
892.839	20393
892.962	20469
893.085	20465
893.207	20351
893.33	20385
893.452	20366
893.575	20518
893.697	20404
893.819	20537
893.941	20625
894.064	20465
894.186	20309
894.308	20252
894.43	20495
894.552	20571
894.674	20389
894.796	20393
894.918	20389
895.04	20317
895.161	20461
895.283	20385
895.405	20355
895.526	20457
895.648	20446
895.769	20408
895.891	20393
896.012	20438
896.134	20358
896.255	20400
896.376	20408
896.498	20374
896.619	20347
896.74	20461
896.861	20408
896.982	20552
897.103	20750
897.224	20613
897.345	20625
897.466	20522
897.587	20579
897.708	20781
897.828	20670
897.949	20522
898.07	20503
898.19	20598
898.311	20621
898.431	20526
898.552	20682
898.672	20670
898.792	20587
898.913	20503
899.033	20473
899.153	20415
899.273	20271
899.393	20415
899.513	20377
899.633	20393
899.753	20313
899.873	20195
899.993	20244
900.113	20313
900.232	20351
900.352	20313
900.472	20050
900.591	20100
900.711	20138
900.83	19967
900.95	20180
901.069	20145
901.189	19951
901.308	19772
901.427	19616
901.546	19616
901.665	19715
901.784	19693
901.904	19483
902.023	19430
902.141	19324
902.26	19187
902.379	19327
902.498	19118
902.617	19175
902.735	19343
902.854	19137
902.973	19114
903.091	19008
903.21	18829
903.328	18833
903.446	18741
903.565	18646
903.683	18745
903.801	18460
903.919	18745
904.038	18700
904.156	18456
904.274	18513
904.392	18391
904.51	18346
904.627	18414
904.745	18441
904.863	18437
904.981	18205
905.098	18106
905.216	18034
905.334	18121
905.451	18144
905.569	18057
905.686	18060
905.803	18133
905.921	17961
906.038	17950
906.155	18007
906.272	17741
906.389	17824
906.506	17589
906.623	17653
906.74	17657
906.857	17474
906.974	17505
907.091	17729
907.208	17737
907.324	17638
907.441	17585
907.557	17436
907.674	17356
907.79	17265
907.907	17356
908.023	17395
908.139	17391
908.256	17216
908.372	17239
908.488	17239
908.604	17079
908.72	17102
908.836	17132
908.952	17098
909.068	17094
909.184	17155
909.3	17025
909.415	17102
909.531	17075
909.647	16824
909.762	16812
909.878	16752
909.993	16862
910.108	16793
910.224	16675
910.339	16801
910.454	16592
910.57	16584
910.685	16588
910.8	16805
910.915	16740
911.03	16516
911.145	16459
911.259	16333
911.374	16398
911.489	16295
911.604	16261
911.718	16299
911.833	16101
911.947	15911
912.062	15892
912.176	16188
912.291	16002
912.405	16101
912.519	16249
912.633	16341
912.748	16093
912.862	16082
912.976	15972
913.09	15812
913.204	15915
913.318	15892
913.431	16112
913.545	15956
913.659	15953
913.772	15907
913.886	15793
914	15641
914.113	15755
914.226	15861
914.34	15755
914.453	15591
914.566	15717
914.68	15572
914.793	15519
914.906	15393
915.019	15275
915.132	15195
915.245	15306
915.358	15405
915.47	15279
915.583	15317
915.696	15310
915.809	15523
915.921	15367
916.034	15222
916.146	15283
916.259	15108
916.371	15416
916.483	15180
916.595	15146
916.708	15093
916.82	15119
916.932	15047
917.044	15146
917.156	15097
917.268	14807
917.38	15062
917.491	14902
917.603	14910
917.715	15047
917.826	15062
917.938	14948
918.049	14876
918.161	14925
918.272	14967
918.384	15066
918.495	14842
918.606	14792
918.717	14556
918.828	14785
918.939	14716
919.05	14682
919.161	14705
919.272	14480
919.383	14602
919.494	14739
919.604	14777
919.715	14743
919.826	14636
919.936	14590
920.047	14754
920.157	14686
920.267	14838
920.378	14689
920.488	14632
920.598	14830
920.708	14960
920.818	14864
920.928	14823
921.038	14880
921.148	14982
921.258	14583
921.368	14473
921.477	14396
921.587	14427
921.697	14267
921.806	14358
921.916	14256
922.025	14100
922.134	13989
922.244	14005
922.353	14035
922.462	13913
922.571	13868
922.68	13772
922.789	13674
922.898	13605
923.007	13624
923.116	13753
923.224	13685
923.333	13666
923.442	13624
923.55	13518
923.659	13464
923.767	13537
923.876	13434
923.984	13487
924.092	13365
924.201	13407
924.309	13400
924.417	13403
924.525	13365
924.633	13354
924.741	14161
924.849	13198
924.956	13312
925.064	13023
925.172	13179
925.279	13084
925.387	13141
925.494	13137
925.602	13232
925.709	13137
925.816	13042
925.924	13000
926.031	13088
926.138	13122
926.245	13038
926.352	12993
926.459	13012
926.566	13065
926.673	12951
926.779	12901
926.886	12859
926.993	12665
927.099	12650
927.206	12601
927.312	12551
927.419	12620
927.525	12635
927.631	12601
927.737	12506
927.843	12486
927.95	12342
928.056	12464
928.162	12388
928.267	12536
928.373	13023
928.479	12509
928.585	12376
928.69	12372
928.796	12391
928.901	12300
929.007	12186
929.112	12254
929.218	12266
929.323	12251
929.428	12197
929.533	12319
929.638	12194
929.743	12098
929.848	12125
929.953	12159
930.058	11980
930.163	11832
930.267	11927
930.372	12011
930.477	11748
930.581	12057
930.685	11935
930.79	11737
930.894	11843
930.998	11733
931.103	11855
931.207	11478
931.311	11410
931.415	11448
931.519	11254
931.623	11048
