Data from test_V78500241_1935.txt Node
Date: Fri Mar 25 15:23:19 CST 2022
User: usil
Spectrometer: V785-0024
Trigger mode: 0
Integration Time (sec): 4.000000E-1
Scans to average: 1
Nonlinearity correction enabled: false
Boxcar width: 0
Storing dark spectrum: false
XAxis mode: Wavelengths
Number of Pixels in Spectrum: 1024
>>>>>Begin Spectral Data<<<<<
801.071	27759
801.214	27641
801.356	27424
801.499	27370
801.641	27237
801.783	27192
801.926	27378
802.068	27306
802.211	27203
802.353	27081
802.496	26956
802.638	26830
802.78	26914
802.923	26785
803.065	26777
803.208	26921
803.35	26952
803.492	27112
803.635	26910
803.777	27032
803.919	27100
804.061	27329
804.204	27058
804.346	27074
804.488	27024
804.63	27051
804.773	26940
804.915	26975
805.057	27222
805.199	27028
805.341	27203
805.483	27268
805.626	27146
805.768	26982
805.91	27218
806.052	27230
806.194	27169
806.336	27397
806.478	27272
806.62	27138
806.762	27176
806.904	27526
807.046	27652
807.188	27587
807.33	27538
807.472	27481
807.614	27618
807.756	27519
807.898	27595
808.04	27485
808.182	27363
808.324	27477
808.465	27553
808.607	27778
808.749	27778
808.891	27895
809.033	27850
809.174	27797
809.316	27736
809.458	27800
809.6	27747
809.741	27850
809.883	28013
810.025	28036
810.166	28207
810.308	28025
810.45	27979
810.591	27934
810.733	27865
810.875	27850
811.016	27701
811.158	27698
811.299	27869
811.441	27972
811.582	28002
811.724	27759
811.865	27861
812.007	27747
812.148	27850
812.29	27736
812.431	28029
812.573	28154
812.714	28234
812.855	28265
812.997	28401
813.138	28538
813.279	28421
813.421	28318
813.562	28238
813.703	28128
813.845	28105
813.986	27682
814.127	27705
814.268	27523
814.41	27610
814.551	27496
814.692	27530
814.833	27481
814.974	27351
815.115	27534
815.256	27351
815.397	27382
815.539	27507
815.68	27355
815.821	27192
815.962	27351
816.103	27230
816.244	27211
816.385	27138
816.526	27081
816.666	26864
816.807	26762
816.948	26788
817.089	26815
817.23	26765
817.371	26762
817.512	26712
817.653	26617
817.793	26750
817.934	26701
818.075	26819
818.216	26872
818.356	26781
818.497	26743
818.638	26476
818.778	26587
818.919	26579
819.06	26609
819.2	26651
819.341	26781
819.481	26773
819.622	26887
819.762	27074
819.903	27055
820.043	26956
820.184	26914
820.324	26834
820.465	26861
820.605	26849
820.746	26933
820.886	26670
821.026	26731
821.167	26758
821.307	26872
821.447	26731
821.588	26720
821.728	26621
821.868	26400
822.008	26221
822.149	26240
822.289	26328
822.429	25970
822.569	25791
822.709	25966
822.849	25841
822.99	25887
823.13	25575
823.27	25628
823.41	25582
823.55	25479
823.69	25658
823.83	25556
823.97	25445
824.11	25247
824.25	25384
824.389	25445
824.529	25525
824.669	25457
824.809	25384
824.949	25537
825.089	25609
825.228	25468
825.368	25187
825.508	25266
825.648	25365
825.787	25331
825.927	25274
826.067	25217
826.206	25282
826.346	25228
826.485	25373
826.625	25228
826.765	25346
826.904	25236
827.044	25084
827.183	25118
827.323	25168
827.462	25129
827.601	25031
827.741	25065
827.88	24977
828.02	24848
828.159	24890
828.298	24939
828.437	24928
828.577	24932
828.716	25175
828.855	24886
828.994	24741
829.134	24745
829.273	24802
829.412	24692
829.551	24578
829.69	24719
829.829	24681
829.968	24821
830.107	24741
830.246	24814
830.385	24673
830.524	24627
830.663	24505
830.802	24410
830.941	24414
831.08	24254
831.219	24475
831.357	24384
831.496	24467
831.635	24342
831.774	24178
831.913	24300
832.051	24167
832.19	24167
832.329	23980
832.467	23977
832.606	23950
832.744	23874
832.883	24007
833.022	24022
833.16	23999
833.299	24091
833.437	23988
833.576	24030
833.714	24201
833.852	24072
833.991	24117
834.129	24163
834.267	24167
834.406	24064
834.544	23923
834.682	24083
834.821	24034
834.959	24121
835.097	23927
835.235	24038
835.373	24049
835.511	23946
835.65	23935
835.788	23942
835.926	23855
836.064	23703
836.202	23748
836.34	23904
836.478	24057
836.615	23760
836.753	23866
836.891	23999
837.029	23851
837.167	23745
837.305	23927
837.443	23798
837.58	23672
837.718	23946
837.856	23760
837.993	23726
838.131	23687
838.269	23630
838.406	23668
838.544	23596
838.681	23490
838.819	23467
838.956	23189
839.094	23105
839.231	23311
839.369	23360
839.506	23634
839.643	23398
839.781	23220
839.918	23147
840.055	23212
840.193	23200
840.33	23147
840.467	23159
840.604	23140
840.742	23398
840.879	22957
841.016	22923
841.153	23022
841.29	23208
841.427	23128
841.564	23159
841.701	23162
841.838	23014
841.975	23094
842.112	23025
842.249	22927
842.385	22915
842.522	23109
842.659	23014
842.796	22774
842.933	22904
843.069	22862
843.206	22805
843.343	22866
843.479	22877
843.616	22835
843.752	22710
843.889	22698
844.025	22847
844.162	22561
844.298	22824
844.435	22645
844.571	22694
844.708	22721
844.844	22919
844.98	22869
845.117	22748
845.253	22561
845.389	22527
845.525	22542
845.661	22485
845.798	22417
845.934	22516
846.07	22356
846.206	22352
846.342	22459
846.478	22417
846.614	22223
846.75	21956
846.886	22139
847.022	22082
847.158	22135
847.294	22207
847.429	22200
847.565	22093
847.701	22489
847.837	21819
847.972	21812
848.108	22013
848.244	21793
848.379	21838
848.515	21755
848.65	21785
848.786	21652
848.921	21736
849.057	21945
849.192	21793
849.328	21762
849.463	21728
849.598	21667
849.734	21682
849.869	21622
850.004	21599
850.14	21450
850.275	21447
850.41	21336
850.545	21481
850.68	21599
850.815	21622
850.95	21450
851.085	21743
851.22	21485
851.355	21576
851.49	21477
851.625	21583
851.76	21530
851.895	21382
852.03	21329
852.165	21549
852.299	21523
852.434	21500
852.569	21469
852.703	21466
852.838	21671
852.973	21568
853.107	21568
853.242	21424
853.376	21264
853.511	21150
853.645	21329
853.78	21386
853.914	21211
854.048	21233
854.183	21298
854.317	21405
854.451	21416
854.585	21329
854.72	21233
854.854	21450
854.988	21195
855.122	21310
855.256	21260
855.39	21233
855.524	21252
855.658	21298
855.792	21393
855.926	21283
856.06	21298
856.194	21344
856.327	21268
856.461	21233
856.595	21310
856.729	21336
856.862	21450
856.996	21332
857.13	21310
857.263	21397
857.397	21291
857.53	21211
857.664	21268
857.797	21431
857.931	21363
858.064	21348
858.197	21481
858.331	21370
858.464	21127
858.597	21123
858.731	21241
858.864	21249
858.997	21192
859.13	21344
859.263	21401
859.396	21241
859.529	21260
859.662	21214
859.795	21211
859.928	21332
860.061	21466
860.194	21526
860.327	21317
860.46	21279
860.592	21469
860.725	21515
860.858	21386
860.99	21310
861.123	21241
861.256	21180
861.388	21275
861.521	22070
861.653	21199
861.786	21070
861.918	21176
862.05	21119
862.183	21146
862.315	21211
862.447	21237
862.58	21199
862.712	20998
862.844	21062
862.976	21184
863.108	21093
863.24	21485
863.372	21039
863.504	21062
863.636	21020
863.768	21058
863.9	20929
864.032	21005
864.164	20960
864.296	21024
864.428	21154
864.559	21070
864.691	21108
864.823	21074
864.954	21009
865.086	21100
865.217	20979
865.349	20826
865.48	20918
865.612	21024
865.743	21047
865.875	20944
866.006	20895
866.137	20933
866.269	20929
866.4	20906
866.531	20929
866.662	20895
866.793	20800
866.924	20746
867.055	20906
867.186	20925
867.317	20792
867.448	20830
867.579	20807
867.71	20807
867.841	20655
867.972	20937
868.103	20758
868.233	20819
868.364	20925
868.495	20929
868.625	20982
868.756	21116
868.886	20956
869.017	21036
869.147	21146
869.278	21150
869.408	21058
869.539	21104
869.669	21169
869.799	21138
869.929	21138
870.06	21138
870.19	21336
870.32	21359
870.45	21382
870.58	21420
870.71	21481
870.84	21511
870.97	21500
871.1	21401
871.23	21686
871.36	21713
871.489	21614
871.619	21564
871.749	21751
871.879	21629
872.008	21831
872.138	21732
872.267	21781
872.397	21637
872.526	21549
872.656	21519
872.785	21515
872.915	21793
873.044	21747
873.173	21724
873.303	21778
873.432	21759
873.561	21827
873.69	21766
873.819	21694
873.948	21827
874.077	21800
874.206	21694
874.335	21686
874.464	21797
874.593	22013
874.722	21865
874.851	21949
874.979	22070
875.108	21956
875.237	21953
875.365	21835
875.494	21915
875.623	22025
875.751	22078
875.88	22021
876.008	22074
876.136	22093
876.265	22360
876.393	22432
876.521	22405
876.65	22318
876.778	22291
876.906	22257
877.034	22348
877.162	22234
877.29	22253
877.418	22322
877.546	22249
877.674	22314
877.802	22257
877.93	22284
878.058	22230
878.185	22169
878.313	22131
878.441	22318
878.568	22032
878.696	22109
878.824	22322
878.951	22386
879.079	22512
879.206	22607
879.333	22436
879.461	22234
879.588	22344
879.715	22451
879.842	22455
879.97	22238
880.097	22093
880.224	22166
880.351	22154
880.478	22215
880.605	22040
880.732	22173
880.859	22272
880.986	22173
881.112	22101
881.239	21964
881.366	21945
881.493	21842
881.619	21675
881.746	21766
881.872	21648
881.999	21667
882.125	21717
882.252	21644
882.378	21614
882.505	21736
882.631	21530
882.757	21389
882.883	21538
883.01	21382
883.136	21351
883.262	21157
883.388	21207
883.514	21386
883.64	21519
883.766	21393
883.892	21131
884.018	21195
884.143	21283
884.269	21408
884.395	20952
884.52	20967
884.646	21055
884.772	20952
884.897	20842
885.023	20986
885.148	21142
885.274	21188
885.399	21230
885.524	21066
885.65	20994
885.775	21024
885.9	20979
886.025	21108
886.15	21150
886.275	20925
886.4	20975
886.525	20918
886.65	20956
886.775	20963
886.9	21062
887.025	21260
887.149	21074
887.274	20754
887.399	20849
887.523	20716
887.648	20678
887.773	20701
887.897	20754
888.021	20746
888.146	20735
888.27	20876
888.395	20910
888.519	20788
888.643	20853
888.767	20876
888.891	20708
889.015	20602
889.139	20682
889.263	20556
889.387	20720
889.511	20712
889.635	20720
889.759	20606
889.883	20511
890.006	20469
890.13	20663
890.254	20530
890.377	20518
890.501	20473
890.624	20336
890.748	20328
890.871	20229
890.995	20168
891.118	20012
891.241	20225
891.364	20161
891.488	20317
891.611	20031
891.734	20191
891.857	20195
891.98	20073
892.103	20191
892.226	20244
892.349	20008
892.471	20008
892.594	20088
892.717	20172
892.839	20065
892.962	20084
893.085	20069
893.207	20134
893.33	19951
893.452	19947
893.575	20100
893.697	20088
893.819	20263
893.941	20210
894.064	20100
894.186	19947
894.308	19978
894.43	20115
894.552	20218
894.674	20115
894.796	19940
894.918	19982
895.04	19997
895.161	20081
895.283	20107
895.405	19993
895.526	20088
895.648	19936
895.769	20157
895.891	20164
896.012	20191
896.134	20081
896.255	20001
896.376	20096
896.498	20119
896.619	20092
896.74	20111
896.861	20103
896.982	20457
897.103	20587
897.224	20377
897.345	20286
897.466	20157
897.587	20237
897.708	20309
897.828	20218
897.949	20244
898.07	20119
898.19	20153
898.311	20396
898.431	20271
898.552	20195
898.672	20343
898.792	20336
898.913	20237
899.033	20161
899.153	20046
899.273	20012
899.393	19986
899.513	20039
899.633	20077
899.753	20096
899.873	19993
899.993	19944
900.113	19959
900.232	19963
900.352	19940
900.472	19765
900.591	19677
900.711	19807
900.83	19750
900.95	19978
901.069	19791
901.189	19696
901.308	19468
901.427	19422
901.546	19343
901.665	19411
901.784	19430
901.904	19236
902.023	19072
902.141	18894
902.26	18905
902.379	19000
902.498	18916
902.617	18905
902.735	18924
902.854	18817
902.973	18844
903.091	18551
903.21	18658
903.328	18547
903.446	18502
903.565	18388
903.683	18441
903.801	18266
903.919	18433
904.038	18277
904.156	18190
904.274	18243
904.392	18186
904.51	18072
904.627	18095
904.745	18041
904.863	18163
904.981	17980
905.098	17722
905.216	17790
905.334	17885
905.451	17836
905.569	17722
905.686	17866
905.803	17775
905.921	17653
906.038	17638
906.155	17562
906.272	17505
906.389	17497
906.506	17376
906.623	17402
906.74	17414
906.857	17258
906.974	17265
907.091	17353
907.208	17440
907.324	17322
907.441	17204
907.557	17155
907.674	17216
907.79	16972
907.907	17022
908.023	17098
908.139	17200
908.256	17006
908.372	16972
908.488	16999
908.604	16752
908.72	16702
908.836	16801
908.952	16725
909.068	16805
909.184	16911
909.3	16816
909.415	16778
909.531	16729
909.647	16508
909.762	16531
909.878	16485
909.993	16531
910.108	16497
910.224	16405
910.339	16390
910.454	16417
910.57	16299
910.685	16120
910.8	16538
910.915	16417
911.03	16310
911.145	16204
911.259	16150
911.374	16074
911.489	16010
911.604	15907
911.718	15865
911.833	15926
911.947	15690
912.062	15671
912.176	15785
912.291	15888
912.405	15785
912.519	15968
912.633	15949
912.748	15865
912.862	15781
912.976	15785
913.09	15538
913.204	15603
913.318	15629
913.431	15751
913.545	15694
913.659	15736
913.772	15584
913.886	15523
914	15477
914.113	15526
914.226	15549
914.34	15625
914.453	15329
914.566	15443
914.68	15359
914.793	15256
914.906	15157
915.019	15157
915.132	15108
915.245	15043
915.358	15024
915.47	15013
915.583	15039
915.696	15123
915.809	15268
915.921	15161
916.034	15013
916.146	14918
916.259	14868
916.371	15032
916.483	14982
916.595	14838
916.708	14937
916.82	14906
916.932	14807
917.044	14792
917.156	14769
917.268	14716
917.38	14727
917.491	14667
917.603	14754
917.715	14716
917.826	14781
917.938	14610
918.049	14545
918.161	14629
918.272	14773
918.384	14754
918.495	14659
918.606	14530
918.717	14450
918.828	14522
918.939	14571
919.05	14381
919.161	14533
919.272	14298
919.383	14278
919.494	14469
919.604	14648
919.715	14465
919.826	14362
919.936	14393
920.047	14579
920.157	14431
920.267	14621
920.378	14518
920.488	14393
920.598	14606
920.708	14735
920.818	14575
920.928	14667
921.038	14762
921.148	14602
921.258	14332
921.368	14320
921.477	14107
921.587	14157
921.697	14054
921.806	14172
921.916	13940
922.025	13879
922.134	13826
922.244	13765
922.353	13822
922.462	13655
922.571	13693
922.68	13514
922.789	13453
922.898	13506
923.007	13381
923.116	13445
923.224	13415
923.333	13434
923.442	13324
923.55	13301
923.659	13373
923.767	13365
923.876	13183
923.984	13339
924.092	13217
924.201	13164
924.309	13320
924.417	13183
924.525	13145
924.633	13137
924.741	14069
924.849	12871
924.956	13099
925.064	12943
925.172	12711
925.279	12745
925.387	12882
925.494	12844
925.602	12913
925.709	12920
925.816	12722
925.924	12829
926.031	12859
926.138	12745
926.245	12882
926.352	12779
926.459	12886
926.566	12939
926.673	12764
926.779	12623
926.886	12684
926.993	12483
927.099	12456
927.206	12418
927.312	12361
927.419	12448
927.525	12399
927.631	12509
927.737	12323
927.843	12315
927.95	12205
928.056	12285
928.162	12342
928.267	12304
928.373	12802
928.479	12334
928.585	12087
928.69	12175
928.796	12251
928.901	12178
929.007	11980
929.112	12136
929.218	12091
929.323	12102
929.428	11973
929.533	12102
929.638	11965
929.743	11893
929.848	11946
929.953	11942
930.058	11870
930.163	11661
930.267	11714
930.372	11798
930.477	11714
930.581	11809
930.685	11661
930.79	11615
930.894	11592
930.998	11589
931.103	11684
931.207	11345
931.311	11258
931.415	11136
931.519	11018
931.623	10877
