Data from test_V78500241_2450.txt Node
Date: Fri Mar 25 15:26:55 CST 2022
User: usil
Spectrometer: V785-0024
Trigger mode: 0
Integration Time (sec): 4.000000E-1
Scans to average: 1
Nonlinearity correction enabled: false
Boxcar width: 0
Storing dark spectrum: false
XAxis mode: Wavelengths
Number of Pixels in Spectrum: 1024
>>>>>Begin Spectral Data<<<<<
801.071	27036
801.214	26918
801.356	26769
801.499	26511
801.641	26663
801.783	26530
801.926	26636
802.068	26583
802.211	26476
802.353	26484
802.496	26351
802.638	26233
802.78	26229
802.923	26115
803.065	26157
803.208	26111
803.35	26157
803.492	26358
803.635	26469
803.777	26233
803.919	26377
804.061	26705
804.204	26450
804.346	26412
804.488	26278
804.63	26332
804.773	26294
804.915	26480
805.057	26461
805.199	26358
805.341	26480
805.483	26556
805.626	26507
805.768	26507
805.91	26438
806.052	26476
806.194	26412
806.336	26499
806.478	26465
806.62	26560
806.762	26602
806.904	26663
807.046	26948
807.188	26872
807.33	26811
807.472	27047
807.614	26876
807.756	26880
807.898	26773
808.04	26663
808.182	26682
808.324	26693
808.465	26788
808.607	26880
808.749	27013
808.891	27150
809.033	27249
809.174	27081
809.316	27104
809.458	27104
809.6	27051
809.741	27226
809.883	27165
810.025	27321
810.166	27344
810.308	27275
810.45	27325
810.591	27184
810.733	27074
810.875	26994
811.016	26826
811.158	26815
811.299	27074
811.441	27104
811.582	27142
811.724	26967
811.865	26944
812.007	26940
812.148	27051
812.29	27142
812.431	27161
812.573	27241
812.714	27397
812.855	27488
812.997	27747
813.138	27641
813.279	27515
813.421	27587
813.562	27462
813.703	27370
813.845	27214
813.986	26815
814.127	26777
814.268	26689
814.41	26651
814.551	26613
814.692	26701
814.833	26746
814.974	26434
815.115	26670
815.256	26609
815.397	26499
815.539	26442
815.68	26480
815.821	26282
815.962	26393
816.103	26427
816.244	26507
816.385	26320
816.526	26221
816.666	26069
816.807	25849
816.948	26058
817.089	26039
817.23	26008
817.371	25830
817.512	26054
817.653	25864
817.793	25822
817.934	26100
818.075	25856
818.216	26027
818.356	25944
818.497	25776
818.638	25750
818.778	25590
818.919	25681
819.06	25708
819.2	25928
819.341	25769
819.481	25818
819.622	26172
819.762	26233
819.903	26210
820.043	26050
820.184	26043
820.324	25966
820.465	26210
820.605	26084
820.746	25837
820.886	25940
821.026	25978
821.167	25913
821.307	26122
821.447	25917
821.588	25826
821.728	25719
821.868	25616
822.008	25597
822.149	25426
822.289	25411
822.429	25240
822.569	25072
822.709	25000
822.849	24996
822.99	24897
823.13	24894
823.27	24890
823.41	24684
823.55	24692
823.69	24700
823.83	24829
823.97	24620
824.11	24467
824.25	24452
824.389	24448
824.529	24555
824.669	24547
824.809	24563
824.949	24631
825.089	24646
825.228	24654
825.368	24369
825.508	24498
825.648	24486
825.787	24380
825.927	24422
826.067	24365
826.206	24486
826.346	24289
826.485	24582
826.625	24456
826.765	24582
826.904	24426
827.044	24296
827.183	24201
827.323	23923
827.462	24136
827.601	24106
827.741	24167
827.88	24205
828.02	24076
828.159	24041
828.298	24144
828.437	24232
828.577	24194
828.716	24296
828.855	24026
828.994	23901
829.134	23916
829.273	23870
829.412	23882
829.551	23813
829.69	23870
829.829	23927
829.968	23969
830.107	23859
830.246	23958
830.385	23771
830.524	23851
830.663	23676
830.802	23573
830.941	23478
831.08	23471
831.219	23478
831.357	23638
831.496	23623
831.635	23531
831.774	23387
831.913	23239
832.051	23258
832.19	23360
832.329	23296
832.467	23254
832.606	23204
832.744	23075
832.883	23109
833.022	22984
833.16	23181
833.299	23231
833.437	23132
833.576	23166
833.714	23254
833.852	23113
833.991	23322
834.129	23212
834.267	23193
834.406	23250
834.544	23151
834.682	23193
834.821	23102
834.959	23261
835.097	23075
835.235	23239
835.373	23132
835.511	23064
835.65	23098
835.788	23098
835.926	22778
836.064	22881
836.202	22889
836.34	22987
836.478	23090
836.615	23018
836.753	23025
836.891	22995
837.029	23041
837.167	22915
837.305	22991
837.443	22866
837.58	22904
837.718	22972
837.856	22786
837.993	22889
838.131	22793
838.269	22744
838.406	22713
838.544	22847
838.681	22603
838.819	22478
838.956	22428
839.094	22367
839.231	22447
839.369	22557
839.506	22915
839.643	22554
839.781	22466
839.918	22287
840.055	22440
840.193	22329
840.33	22238
840.467	22329
840.604	22249
840.742	22504
840.879	22280
841.016	22219
841.153	22204
841.29	22371
841.427	22219
841.564	22322
841.701	22261
841.838	22371
841.975	22272
842.112	22181
842.249	22219
842.385	22063
842.522	22200
842.659	22139
842.796	22036
842.933	22002
843.069	22032
843.206	22036
843.343	22169
843.479	22055
843.616	22128
843.752	21941
843.889	21907
844.025	21979
844.162	21854
844.298	21918
844.435	21869
844.571	21751
844.708	21812
844.844	21949
844.98	22002
845.117	21854
845.253	21720
845.389	21679
845.525	21819
845.661	21675
845.798	21564
845.934	21747
846.07	21660
846.206	21591
846.342	21728
846.478	21629
846.614	21389
846.75	21226
846.886	21329
847.022	21466
847.158	21397
847.294	21306
847.429	21386
847.565	21424
847.701	21549
847.837	21154
847.972	20979
848.108	21188
848.244	20998
848.379	20876
848.515	20815
848.65	20853
848.786	21009
848.921	20921
849.057	20971
849.192	20880
849.328	21001
849.463	20823
849.598	20750
849.734	20811
849.869	20785
850.004	20674
850.14	20716
850.275	20651
850.41	20655
850.545	20590
850.68	20655
850.815	20750
850.95	20644
851.085	20838
851.22	20746
851.355	20590
851.49	20674
851.625	20632
851.76	20587
851.895	20533
852.03	20686
852.165	20701
852.299	20727
852.434	20739
852.569	20788
852.703	20640
852.838	20621
852.973	20815
853.107	20765
853.242	20648
853.376	20465
853.511	20377
853.645	20446
853.78	20590
853.914	20503
854.048	20522
854.183	20457
854.317	20541
854.451	20636
854.585	20415
854.72	20488
854.854	20522
854.988	20537
855.122	20495
855.256	20389
855.39	20564
855.524	20431
855.658	20518
855.792	20613
855.926	20514
856.06	20461
856.194	20568
856.327	20450
856.461	20507
856.595	20381
856.729	20522
856.862	20629
856.996	20575
857.13	20499
857.263	20590
857.397	20476
857.53	20560
857.664	20484
857.797	20518
857.931	20587
858.064	20473
858.197	20602
858.331	20503
858.464	20560
858.597	20393
858.731	20434
858.864	20469
858.997	20427
859.13	20499
859.263	20495
859.396	20514
859.529	20476
859.662	20499
859.795	20396
859.928	20514
860.061	20575
860.194	20682
860.327	20651
860.46	20465
860.592	20625
860.725	20587
860.858	20693
860.99	20465
861.123	20355
861.256	20355
861.388	20438
861.521	21154
861.653	20419
861.786	20339
861.918	20275
862.05	20434
862.183	20476
862.315	20480
862.447	20415
862.58	20358
862.712	20252
862.844	20263
862.976	20199
863.108	20290
863.24	20609
863.372	20149
863.504	20149
863.636	20248
863.768	20153
863.9	20298
864.032	20119
864.164	20153
864.296	20210
864.428	20385
864.559	20328
864.691	20259
864.823	20199
864.954	20202
865.086	20282
865.217	20020
865.349	20027
865.48	20180
865.612	20142
865.743	20290
865.875	20122
866.006	20134
866.137	20046
866.269	20031
866.4	20134
866.531	20005
866.662	19868
866.793	20073
866.924	20012
867.055	20043
867.186	20081
867.317	19940
867.448	19963
867.579	20043
867.71	19963
867.841	19982
867.972	20027
868.103	20084
868.233	20157
868.364	20008
868.495	20214
868.625	20195
868.756	20370
868.886	20294
869.017	20336
869.147	20442
869.278	20408
869.408	20275
869.539	20199
869.669	20412
869.799	20275
869.929	20514
870.06	20507
870.19	20587
870.32	20583
870.45	20602
870.58	20651
870.71	20826
870.84	20864
870.97	20598
871.1	20682
871.23	20914
871.36	20914
871.489	20838
871.619	20906
871.749	20906
871.879	20902
872.008	21051
872.138	20918
872.267	20891
872.397	20727
872.526	20640
872.656	20815
872.785	20712
872.915	20902
873.044	20952
873.173	20868
873.303	20971
873.432	21150
873.561	20990
873.69	21043
873.819	20937
873.948	21051
874.077	20982
874.206	20941
874.335	20937
874.464	21032
874.593	21218
874.722	21180
874.851	21157
874.979	21184
875.108	21207
875.237	21039
875.365	21028
875.494	21249
875.623	21287
875.751	21184
875.88	21256
876.008	21302
876.136	21458
876.265	21507
876.393	21774
876.521	21618
876.65	21534
876.778	21644
876.906	21496
877.034	21564
877.162	21580
877.29	21477
877.418	21553
877.546	21530
877.674	21542
877.802	21564
877.93	21500
878.058	21408
878.185	21321
878.313	21530
878.441	21515
878.568	21336
878.696	21458
878.824	21561
878.951	21633
879.079	21797
879.206	21876
879.333	21641
879.461	21576
879.588	21633
879.715	21690
879.842	21759
879.97	21641
880.097	21291
880.224	21355
880.351	21389
880.478	21272
880.605	21272
880.732	21310
880.859	21504
880.986	21348
881.112	21382
881.239	21264
881.366	20998
881.493	21154
881.619	20883
881.746	20944
881.872	21112
881.999	20944
882.125	20975
882.252	20906
882.378	20895
882.505	21020
882.631	20819
882.757	20682
882.883	20758
883.01	20560
883.136	20640
883.262	20434
883.388	20492
883.514	20587
883.64	20716
883.766	20541
883.892	20465
884.018	20480
884.143	20594
884.269	20754
884.395	20229
884.52	20294
884.646	20294
884.772	20130
884.897	20183
885.023	20305
885.148	20374
885.274	20347
885.399	20339
885.524	20290
885.65	20320
885.775	20237
885.9	20225
886.025	20446
886.15	20370
886.275	20290
886.4	20138
886.525	20225
886.65	20183
886.775	20233
886.9	20290
887.025	20381
887.149	20202
887.274	20122
887.399	20039
887.523	20096
887.648	20039
887.773	19894
887.897	20115
888.021	20138
888.146	19967
888.27	20206
888.395	20202
888.519	20180
888.643	20062
888.767	20058
888.891	19989
889.015	19837
889.139	20073
889.263	19909
889.387	19989
889.511	20096
889.635	19921
889.759	19742
889.883	19845
890.006	19837
890.13	19967
890.254	19780
890.377	19799
890.501	19788
890.624	19575
890.748	19666
890.871	19567
890.995	19472
891.118	19430
891.241	19464
891.364	19548
891.488	19651
891.611	19415
891.734	19445
891.857	19586
891.98	19521
892.103	19518
892.226	19335
892.349	19434
892.471	19282
892.594	19430
892.717	19502
892.839	19339
892.962	19308
893.085	19381
893.207	19384
893.33	19202
893.452	19301
893.575	19502
893.697	19441
893.819	19403
893.941	19605
894.064	19518
894.186	19293
894.308	19289
894.43	19464
894.552	19601
894.674	19495
894.796	19247
894.918	19403
895.04	19259
895.161	19422
895.283	19529
895.405	19316
895.526	19403
895.648	19362
895.769	19464
895.891	19377
896.012	19518
896.134	19468
896.255	19263
896.376	19430
896.498	19293
896.619	19403
896.74	19350
896.861	19521
896.982	19647
897.103	19818
897.224	19628
897.345	19582
897.466	19438
897.587	19609
897.708	19662
897.828	19578
897.949	19533
898.07	19476
898.19	19514
898.311	19715
898.431	19445
898.552	19677
898.672	19715
898.792	19723
898.913	19662
899.033	19525
899.153	19434
899.273	19316
899.393	19358
899.513	19441
899.633	19434
899.753	19392
899.873	19339
899.993	19365
900.113	19206
900.232	19384
900.352	19282
900.472	19129
900.591	19156
900.711	19065
900.83	19171
900.95	19209
901.069	19381
901.189	19084
901.308	18852
901.427	18757
901.546	18692
901.665	18753
901.784	18768
901.904	18490
902.023	18498
902.141	18380
902.26	18308
902.379	18330
902.498	18334
902.617	18353
902.735	18407
902.854	18338
902.973	18129
903.091	18079
903.21	17916
903.328	18045
903.446	17863
903.565	17756
903.683	17771
903.801	17676
903.919	17726
904.038	17741
904.156	17608
904.274	17691
904.392	17474
904.51	17433
904.627	17509
904.745	17649
904.863	17501
904.981	17315
905.098	17292
905.216	17273
905.334	17265
905.451	17223
905.569	17128
905.686	17299
905.803	17132
905.921	17025
906.038	17079
906.155	17025
906.272	16957
906.389	16858
906.506	16820
906.623	16767
906.74	16706
906.857	16561
906.974	16656
907.091	16930
907.208	16835
907.324	16828
907.441	16630
907.557	16516
907.674	16428
907.79	16428
907.907	16413
908.023	16538
908.139	16596
908.256	16489
908.372	16398
908.488	16382
908.604	16322
908.72	16181
908.836	16238
908.952	16166
909.068	16158
909.184	16272
909.3	16196
909.415	16238
909.531	16181
909.647	15983
909.762	15983
909.878	15880
909.993	15876
910.108	15937
910.224	15873
910.339	15945
910.454	15838
910.57	15739
910.685	15553
910.8	15911
910.915	15812
911.03	15698
911.145	15549
911.259	15504
911.374	15584
911.489	15473
911.604	15530
911.718	15306
911.833	15260
911.947	15241
912.062	15005
912.176	15287
912.291	15283
912.405	15214
912.519	15564
912.633	15393
912.748	15230
912.862	15256
912.976	15089
913.09	15051
913.204	15039
913.318	15093
913.431	15188
913.545	15237
913.659	15226
913.772	15058
913.886	14986
914	14895
914.113	15001
914.226	15074
914.34	14994
914.453	14834
914.566	14891
914.68	14845
914.793	14735
914.906	14629
915.019	14579
915.132	14412
915.245	14495
915.358	14568
915.47	14583
915.583	14450
915.696	14610
915.809	14670
915.921	14602
916.034	14412
916.146	14438
916.259	14431
916.371	14431
916.483	14419
916.595	14309
916.708	14530
916.82	14370
916.932	14298
917.044	14282
917.156	14240
917.268	14199
917.38	14187
917.491	14195
917.603	14252
917.715	14282
917.826	14294
917.938	14065
918.049	14020
918.161	14164
918.272	14271
918.384	14305
918.495	14103
918.606	13967
918.717	13887
918.828	13997
918.939	14084
919.05	13852
919.161	13921
919.272	13750
919.383	13860
919.494	14081
919.604	14172
919.715	13902
919.826	13814
919.936	13776
920.047	13986
920.157	13997
920.267	14119
920.378	13906
920.488	14001
920.598	14142
920.708	14275
920.818	13970
920.928	14054
921.038	14210
921.148	14153
921.258	13932
921.368	13875
921.477	13765
921.587	13601
921.697	13548
921.806	13765
921.916	13548
922.025	13426
922.134	13335
922.244	13350
922.353	13441
922.462	13225
922.571	13099
922.68	13072
922.789	12966
922.898	13065
923.007	13008
923.116	13038
923.224	13004
923.333	12981
923.442	12776
923.55	12768
923.659	12837
923.767	12882
923.876	12741
923.984	12878
924.092	12711
924.201	12901
924.309	12776
924.417	12772
924.525	12642
924.633	12650
924.741	13616
924.849	12498
924.956	12745
925.064	12536
925.172	12395
925.279	12464
925.387	12456
925.494	12391
925.602	12612
925.709	12467
925.816	12429
925.924	12467
926.031	12441
926.138	12445
926.245	12433
926.352	12338
926.459	12494
926.566	12464
926.673	12304
926.779	12182
926.886	12247
926.993	12041
927.099	12041
927.206	12034
927.312	12015
927.419	12072
927.525	12003
927.631	12060
927.737	11923
927.843	11893
927.95	11798
928.056	11847
928.162	11840
928.267	11916
928.373	12509
928.479	11863
928.585	11737
928.69	11798
928.796	11863
928.901	11718
929.007	11577
929.112	11752
929.218	11733
929.323	11668
929.428	11649
929.533	11688
929.638	11570
929.743	11512
929.848	11585
929.953	11478
930.058	11440
930.163	11345
930.267	11299
930.372	11425
930.477	11166
930.581	11501
930.685	11379
930.79	11197
930.894	11197
930.998	11147
931.103	11345
931.207	10934
931.311	10896
931.415	10847
931.519	10637
931.623	10622
