Data from test_V78500241_2168.txt Node
Date: Fri Mar 25 15:24:57 CST 2022
User: usil
Spectrometer: V785-0024
Trigger mode: 0
Integration Time (sec): 4.000000E-1
Scans to average: 1
Nonlinearity correction enabled: false
Boxcar width: 0
Storing dark spectrum: false
XAxis mode: Wavelengths
Number of Pixels in Spectrum: 1024
>>>>>Begin Spectral Data<<<<<
801.071	27816
801.214	27720
801.356	27473
801.499	27496
801.641	27310
801.783	27447
801.926	27389
802.068	27256
802.211	27237
802.353	27211
802.496	27043
802.638	26990
802.78	26777
802.923	26830
803.065	26921
803.208	26842
803.35	26925
803.492	27009
803.635	27184
803.777	27138
803.919	27207
804.061	27416
804.204	27329
804.346	27112
804.488	26982
804.63	27199
804.773	27157
804.915	27218
805.057	27157
805.199	27180
805.341	27226
805.483	27332
805.626	27275
805.768	27249
805.91	27306
806.052	27336
806.194	27077
806.336	27348
806.478	27108
806.62	27393
806.762	27374
806.904	27538
807.046	27736
807.188	27842
807.33	27637
807.472	27724
807.614	27603
807.756	27603
807.898	27572
808.04	27549
808.182	27458
808.324	27515
808.465	27717
808.607	27762
808.749	27983
808.891	27914
809.033	28067
809.174	27876
809.316	27739
809.458	27884
809.6	27842
809.741	27949
809.883	28109
810.025	28314
810.166	28310
810.308	28112
810.45	28147
810.591	27998
810.733	28025
810.875	27846
811.016	27907
811.158	27797
811.299	27914
811.441	27934
811.582	27846
811.724	27895
811.865	27766
812.007	27838
812.148	27953
812.29	27850
812.431	28139
812.573	28234
812.714	28401
812.855	28360
812.997	28481
813.138	28622
813.279	28421
813.421	28417
813.562	28337
813.703	28185
813.845	28086
813.986	27911
814.127	27713
814.268	27663
814.41	27679
814.551	27492
814.692	27759
814.833	27488
814.974	27690
815.115	27717
815.256	27583
815.397	27367
815.539	27374
815.68	27374
815.821	27188
815.962	27336
816.103	27313
816.244	27157
816.385	27230
816.526	27252
816.666	26861
816.807	26762
816.948	26868
817.089	26933
817.23	26899
817.371	26857
817.512	26777
817.653	26872
817.793	26720
817.934	26845
818.075	26853
818.216	26853
818.356	26876
818.497	26693
818.638	26511
818.778	26571
818.919	26545
819.06	26743
819.2	26629
819.341	26853
819.481	26834
819.622	27062
819.762	27055
819.903	27173
820.043	27043
820.184	27051
820.324	26914
820.465	26937
820.605	27001
820.746	26880
820.886	26781
821.026	26933
821.167	26895
821.307	26933
821.447	27032
821.588	26899
821.728	26579
821.868	26594
822.008	26412
822.149	26206
822.289	26317
822.429	26039
822.569	26020
822.709	26031
822.849	25799
822.99	25795
823.13	25799
823.27	25814
823.41	25601
823.55	25563
823.69	25590
823.83	25814
823.97	25472
824.11	25426
824.25	25282
824.389	25396
824.529	25616
824.669	25407
824.809	25556
824.949	25609
825.089	25540
825.228	25533
825.368	25289
825.508	25331
825.648	25407
825.787	25320
825.927	25369
826.067	25358
826.206	25362
826.346	25301
826.485	25365
826.625	25240
826.765	25499
826.904	25369
827.044	25072
827.183	25099
827.323	25019
827.462	25053
827.601	25095
827.741	25038
827.88	25057
828.02	24913
828.159	25050
828.298	25050
828.437	25126
828.577	24970
828.716	25202
828.855	25050
828.994	24642
829.134	24734
829.273	24738
829.412	24673
829.551	24776
829.69	24688
829.829	24726
829.968	24837
830.107	24867
830.246	24688
830.385	24726
830.524	24631
830.663	24532
830.802	24479
830.941	24388
831.08	24247
831.219	24525
831.357	24376
831.496	24566
831.635	24319
831.774	24308
831.913	24194
832.051	24174
832.19	24171
832.329	24102
832.467	24045
832.606	23965
832.744	23961
832.883	24068
833.022	24026
833.16	24022
833.299	24087
833.437	24095
833.576	24114
833.714	24072
833.852	24144
833.991	24129
834.129	24155
834.267	24140
834.406	24068
834.544	24148
834.682	23973
834.821	23988
834.959	24167
835.097	24068
835.235	24068
835.373	24003
835.511	24060
835.65	23828
835.788	23927
835.926	23805
836.064	23722
836.202	23809
836.34	23874
836.478	23916
836.615	23870
836.753	24011
836.891	23889
837.029	23840
837.167	23737
837.305	23855
837.443	23794
837.58	23756
837.718	23836
837.856	23737
837.993	23649
838.131	23687
838.269	23619
838.406	23733
838.544	23585
838.681	23444
838.819	23368
838.956	23128
839.094	23193
839.231	23200
839.369	23398
839.506	23539
839.643	23383
839.781	23098
839.918	23208
840.055	23200
840.193	23254
840.33	23090
840.467	23060
840.604	23132
840.742	23402
840.879	23022
841.016	22930
841.153	22972
841.29	23102
841.427	23109
841.564	23132
841.701	23113
841.838	23041
841.975	22923
842.112	23048
842.249	22892
842.385	22908
842.522	22980
842.659	22972
842.796	22877
842.933	22999
843.069	22793
843.206	22869
843.343	22968
843.479	22816
843.616	22938
843.752	22679
843.889	22656
844.025	22744
844.162	22577
844.298	22721
844.435	22679
844.571	22664
844.708	22763
844.844	22778
844.98	22778
845.117	22702
845.253	22516
845.389	22421
845.525	22615
845.661	22542
845.798	22367
845.934	22386
846.07	22325
846.206	22451
846.342	22443
846.478	22390
846.614	22067
846.75	21937
846.886	22112
847.022	22234
847.158	22067
847.294	22093
847.429	22181
847.565	22116
847.701	22421
847.837	21903
847.972	21804
848.108	21873
848.244	21926
848.379	21713
848.515	21568
848.65	21686
848.786	21679
848.921	21709
849.057	21819
849.192	21625
849.328	21774
849.463	21591
849.598	21701
849.734	21538
849.869	21564
850.004	21401
850.14	21553
850.275	21439
850.41	21348
850.545	21408
850.68	21351
850.815	21553
850.95	21386
851.085	21717
851.22	21538
851.355	21492
851.49	21458
851.625	21397
851.76	21431
851.895	21363
852.03	21302
852.165	21408
852.299	21393
852.434	21595
852.569	21431
852.703	21462
852.838	21462
852.973	21568
853.107	21530
853.242	21462
853.376	21313
853.511	21184
853.645	21298
853.78	21344
853.914	21306
854.048	21188
854.183	21264
854.317	21344
854.451	21454
854.585	21306
854.72	21351
854.854	21272
854.988	21241
855.122	21336
855.256	21154
855.39	21192
855.524	21211
855.658	21233
855.792	21378
855.926	21211
856.06	21378
856.194	21329
856.327	21279
856.461	21195
856.595	21393
856.729	21252
856.862	21466
856.996	21424
857.13	21279
857.263	21302
857.397	21492
857.53	21249
857.664	21321
857.797	21279
857.931	21355
858.064	21393
858.197	21420
858.331	21268
858.464	21336
858.597	21199
858.731	21230
858.864	21218
858.997	21195
859.13	21283
859.263	21272
859.396	21405
859.529	21252
859.662	21245
859.795	21245
859.928	21275
860.061	21359
860.194	21458
860.327	21355
860.46	21302
860.592	21374
860.725	21279
860.858	21515
860.99	21363
861.123	21199
861.256	21207
861.388	21203
861.521	22032
861.653	21180
861.786	21024
861.918	21058
862.05	21165
862.183	21218
862.315	21226
862.447	21279
862.58	21131
862.712	21154
862.844	20876
862.976	21047
863.108	20986
863.24	21466
863.372	20941
863.504	20963
863.636	20925
863.768	20941
863.9	20998
864.032	20914
864.164	20883
864.296	21051
864.428	21093
864.559	21013
864.691	20960
864.823	20979
864.954	20800
865.086	20982
865.217	20868
865.349	20777
865.48	20883
865.612	20868
865.743	21028
865.875	20876
866.006	20823
866.137	20826
866.269	20777
866.4	20845
866.531	20895
866.662	20773
866.793	20788
866.924	20853
867.055	20773
867.186	20944
867.317	20815
867.448	20659
867.579	20743
867.71	20735
867.841	20788
867.972	20876
868.103	20804
868.233	20720
868.364	20811
868.495	20929
868.625	21062
868.756	21100
868.886	20895
869.017	21005
869.147	21112
869.278	21131
869.408	21085
869.539	21074
869.669	21199
869.799	21116
869.929	21154
870.06	21108
870.19	21416
870.32	21317
870.45	21306
870.58	21530
870.71	21511
870.84	21469
870.97	21431
871.1	21424
871.23	21549
871.36	21648
871.489	21568
871.619	21599
871.749	21637
871.879	21663
872.008	21671
872.138	21641
872.267	21720
872.397	21507
872.526	21477
872.656	21595
872.785	21428
872.915	21705
873.044	21778
873.173	21663
873.303	21778
873.432	21747
873.561	21717
873.69	21606
873.819	21701
873.948	21785
874.077	21739
874.206	21591
874.335	21686
874.464	21781
874.593	21842
874.722	21880
874.851	21895
874.979	21937
875.108	21793
875.237	21823
875.365	21808
875.494	21930
875.623	21945
875.751	21911
875.88	21800
876.008	22154
876.136	22200
876.265	22310
876.393	22569
876.521	22413
876.65	22360
876.778	22367
876.906	22322
877.034	22177
877.162	22306
877.29	22268
877.418	22303
877.546	22337
877.674	22276
877.802	22234
877.93	22253
878.058	22177
878.185	22067
878.313	22173
878.441	22322
878.568	22112
878.696	22169
878.824	22246
878.951	22421
879.079	22371
879.206	22447
879.333	22325
879.461	22303
879.588	22386
879.715	22424
879.842	22516
879.97	22375
880.097	22074
880.224	22086
880.351	22109
880.478	22181
880.605	22074
880.732	22131
880.859	22249
880.986	22131
881.112	21975
881.239	21983
881.366	21789
881.493	21812
881.619	21800
881.746	21682
881.872	21660
881.999	21526
882.125	21534
882.252	21686
882.378	21690
882.505	21831
882.631	21439
882.757	21363
882.883	21462
883.01	21363
883.136	21340
883.262	21203
883.388	21108
883.514	21355
883.64	21351
883.766	21302
883.892	21188
884.018	21131
884.143	21245
884.269	21393
884.395	21070
884.52	20857
884.646	21055
884.772	20849
884.897	20864
885.023	20937
885.148	21173
885.274	21112
885.399	21116
885.524	21032
885.65	21020
885.775	20960
885.9	21005
886.025	21108
886.15	20998
886.275	20880
886.4	20918
886.525	20906
886.65	20929
886.775	20861
886.9	21039
887.025	21173
887.149	20937
887.274	20727
887.399	20781
887.523	20743
887.648	20792
887.773	20762
887.897	20731
888.021	20765
888.146	20594
888.27	20811
888.395	20842
888.519	20739
888.643	20838
888.767	20739
888.891	20621
889.015	20507
889.139	20651
889.263	20545
889.387	20598
889.511	20720
889.635	20598
889.759	20568
889.883	20511
890.006	20522
890.13	20560
890.254	20556
890.377	20434
890.501	20195
890.624	20248
890.748	20404
890.871	20206
890.995	20088
891.118	20073
891.241	20176
891.364	20088
891.488	20065
891.611	20100
891.734	20122
891.857	20103
891.98	20081
892.103	20103
892.226	20065
892.349	20016
892.471	19993
892.594	20069
892.717	20031
892.839	19993
892.962	20050
893.085	20073
893.207	20050
893.33	19936
893.452	19955
893.575	20012
893.697	19986
893.819	20183
893.941	20183
894.064	20157
894.186	19947
894.308	19967
894.43	20161
894.552	20214
894.674	20031
894.796	19799
894.918	19993
895.04	20016
895.161	20103
895.283	19986
895.405	19955
895.526	19982
895.648	19997
895.769	20012
895.891	20024
896.012	20142
896.134	20088
896.255	20088
896.376	19963
896.498	20050
896.619	20005
896.74	20008
896.861	19928
896.982	20240
897.103	20495
897.224	20362
897.345	20290
897.466	20286
897.587	20195
897.708	20377
897.828	20328
897.949	20267
898.07	20107
898.19	20111
898.311	20290
898.431	20206
898.552	20267
898.672	20225
898.792	20294
898.913	20263
899.033	20206
899.153	20096
899.273	19902
899.393	20005
899.513	20046
899.633	20016
899.753	20073
899.873	19887
899.993	20111
900.113	19833
900.232	19967
900.352	19932
900.472	19856
900.591	19765
900.711	19860
900.83	19712
900.95	19898
901.069	19784
901.189	19666
901.308	19563
901.427	19232
901.546	19400
901.665	19320
901.784	19369
901.904	19198
902.023	19171
902.141	18909
902.26	18890
902.379	18943
902.498	18916
902.617	18795
902.735	19008
902.854	18916
902.973	18905
903.091	18570
903.21	18604
903.328	18654
903.446	18486
903.565	18350
903.683	18315
903.801	18296
903.919	18330
904.038	18281
904.156	18114
904.274	18213
904.392	18064
904.51	18174
904.627	18194
904.745	18117
904.863	18155
904.981	17923
905.098	17920
905.216	17798
905.334	17874
905.451	17843
905.569	17828
905.686	17889
905.803	17703
905.921	17551
906.038	17752
906.155	17630
906.272	17482
906.389	17570
906.506	17250
906.623	17414
906.74	17356
906.857	17227
906.974	17258
907.091	17440
907.208	17421
907.324	17379
907.441	17280
907.557	17083
907.674	17048
907.79	17079
907.907	16938
908.023	17064
908.139	16995
908.256	17037
908.372	16930
908.488	16911
908.604	16797
908.72	16786
908.836	16744
908.952	16637
909.068	16820
909.184	16866
909.3	16782
909.415	16733
909.531	16683
909.647	16504
909.762	16493
909.878	16386
909.993	16519
910.108	16402
910.224	16417
910.339	16398
910.454	16360
910.57	16329
910.685	16158
910.8	16489
910.915	16493
911.03	16150
911.145	16124
911.259	16154
911.374	16093
911.489	16055
911.604	15930
911.718	15732
911.833	15827
911.947	15641
912.062	15698
912.176	15823
912.291	15793
912.405	15766
912.519	16013
912.633	15930
912.748	15880
912.862	15800
912.976	15591
913.09	15576
913.204	15485
913.318	15720
913.431	15789
913.545	15724
913.659	15751
913.772	15587
913.886	15447
914	15401
914.113	15485
914.226	15545
914.34	15538
914.453	15370
914.566	15401
914.68	15412
914.793	15302
914.906	15070
915.019	14990
915.132	14986
915.245	15001
915.358	14971
915.47	15036
915.583	15043
915.696	14971
915.809	15180
915.921	15199
916.034	14948
916.146	14956
916.259	14982
916.371	14982
916.483	14883
916.595	14872
916.708	14819
916.82	14941
916.932	14800
917.044	14792
917.156	14849
917.268	14689
917.38	14689
917.491	14697
917.603	14750
917.715	14689
917.826	14811
917.938	14693
918.049	14613
918.161	14697
918.272	14804
918.384	14838
918.495	14552
918.606	14522
918.717	14355
918.828	14438
918.939	14541
919.05	14351
919.161	14370
919.272	14218
919.383	14377
919.494	14530
919.604	14617
919.715	14457
919.826	14358
919.936	14412
920.047	14423
920.157	14347
920.267	14495
920.378	14351
920.488	14309
920.598	14514
920.708	14708
920.818	14552
920.928	14507
921.038	14697
921.148	14716
921.258	14336
921.368	14191
921.477	14149
921.587	14084
921.697	14096
921.806	14221
921.916	13986
922.025	13776
922.134	13765
922.244	13742
922.353	13856
922.462	13643
922.571	13586
922.68	13415
922.789	13392
922.898	13434
923.007	13449
923.116	13373
923.224	13548
923.333	13369
923.442	13263
923.55	13289
923.659	13327
923.767	13312
923.876	13160
923.984	13225
924.092	13270
924.201	13285
924.309	13259
924.417	13168
924.525	13247
924.633	13099
924.741	13830
924.849	12890
924.956	13023
925.064	12973
925.172	12894
925.279	12867
925.387	12951
925.494	12825
925.602	12954
925.709	12852
925.816	12776
925.924	12734
926.031	12913
926.138	12837
926.245	12814
926.352	12707
926.459	12939
926.566	12890
926.673	12741
926.779	12612
926.886	12578
926.993	12563
927.099	12464
927.206	12384
927.312	12384
927.419	12452
927.525	12384
927.631	12422
927.737	12285
927.843	12300
927.95	12205
928.056	12273
928.162	12277
928.267	12262
928.373	12932
928.479	12330
928.585	12102
928.69	12262
928.796	12285
928.901	12102
929.007	11977
929.112	12171
929.218	12083
929.323	12019
929.428	12083
929.533	12125
929.638	11901
929.743	11950
929.848	12022
929.953	11851
930.058	11851
930.163	11729
930.267	11627
930.372	11767
930.477	11547
930.581	11866
930.685	11733
930.79	11467
930.894	11596
930.998	11554
931.103	11657
931.207	11277
931.311	11235
931.415	11162
931.519	10995
931.623	10911
