Data from test_V78500241_3243.txt Node
Date: Fri Mar 25 15:32:26 CST 2022
User: usil
Spectrometer: V785-0024
Trigger mode: 0
Integration Time (sec): 4.000000E-1
Scans to average: 1
Nonlinearity correction enabled: false
Boxcar width: 0
Storing dark spectrum: false
XAxis mode: Wavelengths
Number of Pixels in Spectrum: 1024
>>>>>Begin Spectral Data<<<<<
801.071	27329
801.214	27146
801.356	27074
801.499	26925
801.641	26807
801.783	26777
801.926	26868
802.068	26735
802.211	26708
802.353	26701
802.496	26480
802.638	26450
802.78	26396
802.923	26317
803.065	26313
803.208	26244
803.35	26408
803.492	26492
803.635	26701
803.777	26446
803.919	26518
804.061	26842
804.204	26739
804.346	26621
804.488	26419
804.63	26598
804.773	26393
804.915	26533
805.057	26727
805.199	26590
805.341	26564
805.483	26682
805.626	26674
805.768	26575
805.91	26727
806.052	26815
806.194	26609
806.336	26785
806.478	26674
806.62	26583
806.762	26697
806.904	26788
807.046	27093
807.188	27116
807.33	27104
807.472	27241
807.614	27085
807.756	27036
807.898	26804
808.04	26925
808.182	26948
808.324	26883
808.465	26963
808.607	27089
808.749	27355
808.891	27454
809.033	27458
809.174	27355
809.316	27351
809.458	27268
809.6	27180
809.741	27317
809.883	27367
810.025	27538
810.166	27553
810.308	27591
810.45	27637
810.591	27462
810.733	27233
810.875	27214
811.016	27138
811.158	27123
811.299	27340
811.441	27408
811.582	27473
811.724	27218
811.865	27199
812.007	27245
812.148	27233
812.29	27306
812.431	27382
812.573	27496
812.714	27637
812.855	27781
812.997	27846
813.138	28059
813.279	27865
813.421	27781
813.562	27766
813.703	27576
813.845	27427
813.986	27089
814.127	27062
814.268	26963
814.41	26902
814.551	26925
814.692	27024
814.833	26853
814.974	26883
815.115	26960
815.256	26724
815.397	26796
815.539	26754
815.68	26663
815.821	26526
815.962	26693
816.103	26708
816.244	26533
816.385	26541
816.526	26556
816.666	26195
816.807	26298
816.948	26233
817.089	26286
817.23	26161
817.371	26119
817.512	26046
817.653	26225
817.793	26065
817.934	26252
818.075	26221
818.216	26282
818.356	26111
818.497	26092
818.638	25837
818.778	25951
818.919	25955
819.06	25970
819.2	26050
819.341	26153
819.481	26134
819.622	26298
819.762	26473
819.903	26408
820.043	26339
820.184	26187
820.324	26218
820.465	26199
820.605	26210
820.746	26176
820.886	26126
821.026	26256
821.167	26214
821.307	26305
821.447	26183
821.588	25955
821.728	26008
821.868	25879
822.008	25734
822.149	25776
822.289	25738
822.429	25422
822.569	25430
822.709	25373
822.849	25061
822.99	25114
823.13	25133
823.27	25114
823.41	25034
823.55	24859
823.69	24947
823.83	24981
823.97	24954
824.11	24707
824.25	24795
824.389	24837
824.529	24787
824.669	24749
824.809	24947
824.949	24825
825.089	24924
825.228	24745
825.368	24589
825.508	24623
825.648	24677
825.787	24692
825.927	24741
826.067	24734
826.206	24593
826.346	24840
826.485	24608
826.625	24642
826.765	24669
826.904	24726
827.044	24452
827.183	24395
827.323	24323
827.462	24361
827.601	24315
827.741	24216
827.88	24319
828.02	24380
828.159	24407
828.298	24388
828.437	24422
828.577	24273
828.716	24452
828.855	24194
828.994	24038
829.134	23996
829.273	24018
829.412	24053
829.551	23923
829.69	24018
829.829	24091
829.968	24224
830.107	24140
830.246	24140
830.385	24041
830.524	23950
830.663	23832
830.802	23961
830.941	23691
831.08	23665
831.219	23771
831.357	23832
831.496	23832
831.635	23695
831.774	23581
831.913	23608
832.051	23482
832.19	23398
832.329	23531
832.467	23398
832.606	23299
832.744	23334
832.883	23364
833.022	23303
833.16	23265
833.299	23429
833.437	23509
833.576	23425
833.714	23364
833.852	23486
833.991	23398
834.129	23528
834.267	23592
834.406	23436
834.544	23410
834.682	23406
834.821	23448
834.959	23676
835.097	23486
835.235	23486
835.373	23360
835.511	23421
835.65	23337
835.788	23292
835.926	23128
836.064	23079
836.202	23094
836.34	23284
836.478	23280
836.615	23200
836.753	23254
836.891	23372
837.029	23398
837.167	23208
837.305	23052
837.443	23197
837.58	23273
837.718	23299
837.856	23178
837.993	23048
838.131	23200
838.269	22930
838.406	23029
838.544	22854
838.681	22706
838.819	22706
838.956	22626
839.094	22577
839.231	22622
839.369	22885
839.506	23041
839.643	22858
839.781	22592
839.918	22546
840.055	22653
840.193	22519
840.33	22538
840.467	22523
840.604	22584
840.742	22900
840.879	22409
841.016	22417
841.153	22375
841.29	22538
841.427	22512
841.564	22588
841.701	22516
841.838	22478
841.975	22432
842.112	22466
842.249	22409
842.385	22246
842.522	22481
842.659	22413
842.796	22310
842.933	22223
843.069	22196
843.206	22268
843.343	22451
843.479	22287
843.616	22177
843.752	22116
843.889	22112
844.025	22234
844.162	22063
844.298	22169
844.435	22093
844.571	22135
844.708	22135
844.844	22196
844.98	22200
845.117	22086
845.253	21945
845.389	22109
845.525	22006
845.661	21838
845.798	21823
845.934	21972
846.07	21793
846.206	21808
846.342	21861
846.478	21880
846.614	21595
846.75	21530
846.886	21587
847.022	21606
847.158	21686
847.294	21587
847.429	21549
847.565	21591
847.701	21728
847.837	21256
847.972	21283
848.108	21530
848.244	21340
848.379	21207
848.515	21135
848.65	21066
848.786	21070
848.921	21131
849.057	21264
849.192	21214
849.328	21074
849.463	21127
849.598	21180
849.734	20979
849.869	20960
850.004	20982
850.14	20895
850.275	20868
850.41	20876
850.545	20864
850.68	20826
850.815	20956
850.95	20811
851.085	21055
851.22	21062
851.355	21051
851.49	20925
851.625	20948
851.76	20944
851.895	20914
852.03	20765
852.165	20914
852.299	20967
852.434	21123
852.569	20891
852.703	20876
852.838	21070
852.973	20929
853.107	21077
853.242	20933
853.376	20708
853.511	20701
853.645	20697
853.78	20899
853.914	20701
854.048	20830
854.183	20648
854.317	20815
854.451	20952
854.585	20678
854.72	20842
854.854	20857
854.988	20594
855.122	20754
855.256	20602
855.39	20743
855.524	20849
855.658	20659
855.792	20834
855.926	20712
856.06	20830
856.194	20910
856.327	20796
856.461	20564
856.595	20712
856.729	20777
856.862	20815
856.996	20849
857.13	20838
857.263	20769
857.397	20910
857.53	20674
857.664	20727
857.797	20872
857.931	20838
858.064	20880
858.197	20887
858.331	20663
858.464	20708
858.597	20663
858.731	20777
858.864	20739
858.997	20613
859.13	20708
859.263	20640
859.396	20682
859.529	20670
859.662	20746
859.795	20674
859.928	20689
860.061	20853
860.194	20975
860.327	20716
860.46	20876
860.592	20800
860.725	20834
860.858	20853
860.99	20705
861.123	20621
861.256	20678
861.388	20750
861.521	21230
861.653	20621
861.786	20552
861.918	20579
862.05	20575
862.183	20693
862.315	20640
862.447	20655
862.58	20746
862.712	20351
862.844	20530
862.976	20507
863.108	20636
863.24	20857
863.372	20347
863.504	20511
863.636	20381
863.768	20469
863.9	20438
864.032	20415
864.164	20434
864.296	20556
864.428	20556
864.559	20594
864.691	20507
864.823	20533
864.954	20530
865.086	20412
865.217	20450
865.349	20298
865.48	20412
865.612	20358
865.743	20461
865.875	20362
866.006	20343
866.137	20351
866.269	20347
866.4	20305
866.531	20278
866.662	20381
866.793	20336
866.924	20206
867.055	20389
867.186	20438
867.317	20275
867.448	20271
867.579	20271
867.71	20225
867.841	20256
867.972	20328
868.103	20328
868.233	20244
868.364	20240
868.495	20385
868.625	20522
868.756	20708
868.886	20503
869.017	20602
869.147	20769
869.278	20674
869.408	20606
869.539	20560
869.669	20659
869.799	20568
869.929	20811
870.06	20644
870.19	20921
870.32	20796
870.45	20872
870.58	20937
870.71	21001
870.84	21020
870.97	20887
871.1	20952
871.23	20982
871.36	21214
871.489	21096
871.619	21116
871.749	21199
871.879	21104
872.008	21222
872.138	21138
872.267	21062
872.397	21009
872.526	20895
872.656	21017
872.785	20986
872.915	21260
873.044	21264
873.173	21275
873.303	21272
873.432	21272
873.561	21287
873.69	21169
873.819	21252
873.948	21249
874.077	21249
874.206	21150
874.335	21039
874.464	21393
874.593	21420
874.722	21367
874.851	21401
874.979	21477
875.108	21435
875.237	21344
875.365	21298
875.494	21424
875.623	21583
875.751	21382
875.88	21382
876.008	21416
876.136	21637
876.265	21831
876.393	21941
876.521	21835
876.65	21873
876.778	21895
876.906	21671
877.034	21622
877.162	21732
877.29	21720
877.418	21865
877.546	21819
877.674	21751
877.802	21850
877.93	21675
878.058	21762
878.185	21652
878.313	21732
878.441	21637
878.568	21591
878.696	21717
878.824	21720
878.951	21781
879.079	21960
879.206	22044
879.333	22017
879.461	21876
879.588	21895
879.715	21838
879.842	22025
879.97	21911
880.097	21682
880.224	21545
880.351	21622
880.478	21675
880.605	21652
880.732	21488
880.859	21819
880.986	21530
881.112	21660
881.239	21359
881.366	21348
881.493	21332
881.619	21176
881.746	21218
881.872	21180
881.999	21058
882.125	21180
882.252	21150
882.378	21203
882.505	21435
882.631	21043
882.757	20960
882.883	20739
883.01	20944
883.136	20906
883.262	20670
883.388	20724
883.514	21055
883.64	20849
883.766	20899
883.892	20617
884.018	20750
884.143	20948
884.269	20887
884.395	20651
884.52	20507
884.646	20503
884.772	20488
884.897	20320
885.023	20617
885.148	20545
885.274	20785
885.399	20648
885.524	20450
885.65	20590
885.775	20518
885.9	20522
886.025	20613
886.15	20511
886.275	20484
886.4	20446
886.525	20522
886.65	20488
886.775	20415
886.9	20583
887.025	20651
887.149	20454
887.274	20294
887.399	20256
887.523	20355
887.648	20225
887.773	20191
887.897	20419
888.021	20385
888.146	20195
888.27	20396
888.395	20301
888.519	20324
888.643	20347
888.767	20282
888.891	20153
889.015	20069
889.139	20077
889.263	20206
889.387	20267
889.511	20278
889.635	20202
889.759	20031
889.883	20031
890.006	20142
890.13	20176
890.254	20084
890.377	20088
890.501	19803
890.624	19871
890.748	19906
890.871	19769
890.995	19586
891.118	19670
891.241	19719
891.364	19643
891.488	19811
891.611	19655
891.734	19727
891.857	19769
891.98	19746
892.103	19719
892.226	19696
892.349	19510
892.471	19491
892.594	19525
892.717	19689
892.839	19464
892.962	19548
893.085	19662
893.207	19567
893.33	19502
893.452	19445
893.575	19563
893.697	19578
893.819	19780
893.941	19784
894.064	19719
894.186	19510
894.308	19537
894.43	19674
894.552	19746
894.674	19712
894.796	19537
894.918	19597
895.04	19548
895.161	19677
895.283	19674
895.405	19548
895.526	19632
895.648	19510
895.769	19495
895.891	19613
896.012	19601
896.134	19632
896.255	19594
896.376	19540
896.498	19594
896.619	19578
896.74	19620
896.861	19605
896.982	20024
897.103	20122
897.224	19830
897.345	19799
897.466	19674
897.587	19811
897.708	19928
897.828	19913
897.949	19708
898.07	19677
898.19	19658
898.311	19868
898.431	19742
898.552	19860
898.672	19780
898.792	19963
898.913	19780
899.033	19742
899.153	19635
899.273	19556
899.393	19628
899.513	19487
899.633	19590
899.753	19613
899.873	19616
899.993	19738
900.113	19594
900.232	19594
900.352	19521
900.472	19453
900.591	19381
900.711	19324
900.83	19206
900.95	19426
901.069	19483
901.189	19206
901.308	19076
901.427	19042
901.546	18954
901.665	19019
901.784	18970
901.904	18825
902.023	18852
902.141	18570
902.26	18502
902.379	18673
902.498	18559
902.617	18456
902.735	18547
902.854	18407
902.973	18418
903.091	18205
903.21	18102
903.328	18167
903.446	18060
903.565	17999
903.683	18076
903.801	17939
903.919	17931
904.038	17973
904.156	17710
904.274	17840
904.392	17733
904.51	17798
904.627	17722
904.745	17729
904.863	17767
904.981	17493
905.098	17474
905.216	17509
905.334	17433
905.451	17467
905.569	17417
905.686	17471
905.803	17459
905.921	17162
906.038	17250
906.155	17265
906.272	17048
906.389	17136
906.506	16980
906.623	16999
906.74	16877
906.857	16881
906.974	16835
907.091	17056
907.208	16999
907.324	16980
907.441	16790
907.557	16725
907.674	16763
907.79	16481
907.907	16645
908.023	16596
908.139	16630
908.256	16599
908.372	16546
908.488	16558
908.604	16466
908.72	16405
908.836	16261
908.952	16341
909.068	16371
909.184	16523
909.3	16398
909.415	16432
909.531	16352
909.647	16166
909.762	16086
909.878	16128
909.993	16116
910.108	15975
910.224	16051
910.339	16128
910.454	16036
910.57	15953
910.685	15899
910.8	16139
910.915	16112
911.03	15915
911.145	15785
911.259	15663
911.374	15778
911.489	15614
911.604	15595
911.718	15386
911.833	15584
911.947	15382
912.062	15340
912.176	15386
912.291	15485
912.405	15374
912.519	15633
912.633	15720
912.748	15496
912.862	15469
912.976	15291
913.09	15260
913.204	15291
913.318	15260
913.431	15424
913.545	15405
913.659	15351
913.772	15321
913.886	15127
914	15146
914.113	15123
914.226	15222
914.34	15176
914.453	14861
914.566	15108
914.68	14986
914.793	14872
914.906	14823
915.019	14670
915.132	14625
915.245	14765
915.358	14659
915.47	14720
915.583	14701
915.696	14758
915.809	14769
915.921	14864
916.034	14667
916.146	14644
916.259	14579
916.371	14617
916.483	14598
916.595	14537
916.708	14556
916.82	14522
916.932	14495
917.044	14514
917.156	14488
917.268	14366
917.38	14389
917.491	14317
917.603	14465
917.715	14423
917.826	14434
917.938	14366
918.049	14275
918.161	14286
918.272	14438
918.384	14473
918.495	14294
918.606	14168
918.717	14077
918.828	14100
918.939	14225
919.05	14054
919.161	14073
919.272	13951
919.383	13982
919.494	14168
919.604	14351
919.715	14107
919.826	13963
919.936	14126
920.047	14103
920.157	14100
920.267	14320
920.378	14107
920.488	13959
920.598	14324
920.708	14427
920.818	14336
920.928	14305
921.038	14427
921.148	14347
921.258	14043
921.368	13955
921.477	13811
921.587	13753
921.697	13761
921.806	13799
921.916	13609
922.025	13537
922.134	13537
922.244	13537
922.353	13506
922.462	13320
922.571	13350
922.68	13217
922.789	13122
922.898	13171
923.007	13118
923.116	13228
923.224	13149
923.333	13175
923.442	13012
923.55	13023
923.659	12970
923.767	12935
923.876	12977
923.984	12977
924.092	12817
924.201	12787
924.309	12848
924.417	12894
924.525	12829
924.633	12913
924.741	13746
924.849	12544
924.956	12821
925.064	12650
925.172	12445
925.279	12551
925.387	12585
925.494	12566
925.602	12707
925.709	12662
925.816	12509
925.924	12589
926.031	12574
926.138	12498
926.245	12578
926.352	12490
926.459	12677
926.566	12684
926.673	12528
926.779	12330
926.886	12464
926.993	12251
927.099	12201
927.206	12117
927.312	12049
927.419	12254
927.525	12201
927.631	12201
927.737	12030
927.843	12095
927.95	11859
928.056	11946
928.162	12064
928.267	11999
928.373	12642
928.479	12019
928.585	11847
928.69	11999
928.796	12026
928.901	11851
929.007	11718
929.112	11824
929.218	11817
929.323	11790
929.428	11710
929.533	11836
929.638	11707
929.743	11760
929.848	11745
929.953	11703
930.058	11573
930.163	11482
930.267	11345
930.372	11688
930.477	11395
930.581	11661
930.685	11433
930.79	11258
930.894	11410
930.998	11269
931.103	11395
931.207	11136
931.311	10995
931.415	10915
931.519	10683
931.623	10675
