Data from test_V78500241_272.txt Node
Date: Fri Mar 25 15:11:45 CST 2022
User: usil
Spectrometer: V785-0024
Trigger mode: 0
Integration Time (sec): 4.000000E-1
Scans to average: 1
Nonlinearity correction enabled: false
Boxcar width: 0
Storing dark spectrum: false
XAxis mode: Wavelengths
Number of Pixels in Spectrum: 1024
>>>>>Begin Spectral Data<<<<<
801.071	27816
801.214	27572
801.356	27564
801.499	27435
801.641	27412
801.783	27252
801.926	27332
802.068	27203
802.211	27252
802.353	26979
802.496	26902
802.638	26937
802.78	26929
802.923	26861
803.065	26712
803.208	26853
803.35	26880
803.492	27074
803.635	27180
803.777	26975
803.919	27096
804.061	27310
804.204	26994
804.346	26849
804.488	26921
804.63	26994
804.773	26933
804.915	26944
805.057	27028
805.199	26944
805.341	26971
805.483	27055
805.626	27176
805.768	26948
805.91	27169
806.052	27199
806.194	27081
806.336	27317
806.478	27093
806.62	27001
806.762	27332
806.904	27340
807.046	27572
807.188	27553
807.33	27526
807.472	27507
807.614	27401
807.756	27458
807.898	27264
808.04	27294
808.182	27249
808.324	27321
808.465	27245
808.607	27458
808.749	27663
808.891	27682
809.033	27922
809.174	27766
809.316	27747
809.458	27743
809.6	27682
809.741	27709
809.883	27899
810.025	28029
810.166	27895
810.308	27854
810.45	27899
810.591	27778
810.733	27713
810.875	27591
811.016	27469
811.158	27583
811.299	27812
811.441	27778
811.582	27652
811.724	27587
811.865	27542
812.007	27576
812.148	27416
812.29	27728
812.431	27755
812.573	28044
812.714	27998
812.855	28154
812.997	28215
813.138	28348
813.279	28325
813.421	28147
813.562	28154
813.703	28044
813.845	27816
813.986	27580
814.127	27424
814.268	27321
814.41	27363
814.551	27283
814.692	27325
814.833	27131
814.974	27192
815.115	27066
815.256	27043
815.397	27260
815.539	27104
815.68	26975
815.821	26963
815.962	27081
816.103	27017
816.244	26861
816.385	26743
816.526	26758
816.666	26636
816.807	26594
816.948	26465
817.089	26625
817.23	26518
817.371	26484
817.512	26587
817.653	26465
817.793	26412
817.934	26522
818.075	26552
818.216	26526
818.356	26484
818.497	26358
818.638	26195
818.778	26202
818.919	26358
819.06	26206
819.2	26317
819.341	26332
819.481	26419
819.622	26511
819.762	26765
819.903	26743
820.043	26583
820.184	26568
820.324	26450
820.465	26575
820.605	26442
820.746	26514
820.886	26457
821.026	26465
821.167	26377
821.307	26484
821.447	26408
821.588	26317
821.728	26142
821.868	26005
822.008	25864
822.149	25833
822.289	25871
822.429	25712
822.569	25567
822.709	25468
822.849	25297
822.99	25293
823.13	25304
823.27	25365
823.41	25308
823.55	25053
823.69	25084
823.83	25209
823.97	25107
824.11	24981
824.25	24989
824.389	25031
824.529	25137
824.669	24837
824.809	25107
824.949	25194
825.089	25133
825.228	24928
825.368	24882
825.508	24894
825.648	24840
825.787	24916
825.927	24909
826.067	24935
826.206	24909
826.346	24932
826.485	24798
826.625	24894
826.765	24958
826.904	24825
827.044	24555
827.183	24654
827.323	24532
827.462	24597
827.601	24582
827.741	24532
827.88	24612
828.02	24407
828.159	24391
828.298	24547
828.437	24589
828.577	24452
828.716	24703
828.855	24536
828.994	24239
829.134	24228
829.273	24182
829.412	24220
829.551	24106
829.69	24144
829.829	24266
829.968	24224
830.107	24315
830.246	24213
830.385	24049
830.524	24015
830.663	24038
830.802	23935
830.941	23821
831.08	23847
831.219	23710
831.357	23920
831.496	23885
831.635	23931
831.774	23748
831.913	23798
832.051	23554
832.19	23630
832.329	23592
832.467	23577
832.606	23459
832.744	23421
832.883	23395
833.022	23398
833.16	23474
833.299	23429
833.437	23535
833.576	23490
833.714	23512
833.852	23630
833.991	23623
834.129	23638
834.267	23539
834.406	23570
834.544	23455
834.682	23516
834.821	23471
834.959	23707
835.097	23520
835.235	23589
835.373	23501
835.511	23505
835.65	23501
835.788	23299
835.926	23208
836.064	23143
836.202	23136
836.34	23261
836.478	23402
836.615	23387
836.753	23356
836.891	23372
837.029	23311
837.167	23379
837.305	23162
837.443	23151
837.58	23296
837.718	23261
837.856	23204
837.993	23102
838.131	23220
838.269	23014
838.406	23124
838.544	23003
838.681	22881
838.819	22847
838.956	22649
839.094	22618
839.231	22645
839.369	22774
839.506	23060
839.643	22908
839.781	22706
839.918	22538
840.055	22622
840.193	22478
840.33	22451
840.467	22584
840.604	22535
840.742	22713
840.879	22379
841.016	22489
841.153	22459
841.29	22569
841.427	22557
841.564	22599
841.701	22485
841.838	22527
841.975	22459
842.112	22485
842.249	22325
842.385	22318
842.522	22531
842.659	22284
842.796	22299
842.933	22249
843.069	22177
843.206	22261
843.343	22219
843.479	22265
843.616	22226
843.752	21972
843.889	22032
844.025	22128
844.162	22078
844.298	22261
844.435	21991
844.571	21949
844.708	22086
844.844	22223
844.98	22150
845.117	22139
845.253	21998
845.389	21808
845.525	21975
845.661	21884
845.798	21690
845.934	21781
846.07	21800
846.206	21800
846.342	21922
846.478	21747
846.614	21606
846.75	21599
846.886	21450
847.022	21564
847.158	21553
847.294	21511
847.429	21568
847.565	21462
847.701	21755
847.837	21252
847.972	21233
848.108	21408
848.244	21397
848.379	21142
848.515	20956
848.65	21108
848.786	21138
848.921	21203
849.057	21074
849.192	21169
849.328	21020
849.463	21028
849.598	21055
849.734	21013
849.869	20956
850.004	20979
850.14	20861
850.275	20804
850.41	20830
850.545	20830
850.68	20838
850.815	20937
850.95	20815
851.085	21009
851.22	20990
851.355	20785
851.49	20792
851.625	20777
851.76	20754
851.895	20735
852.03	20621
852.165	20804
852.299	20705
852.434	20864
852.569	20925
852.703	20838
852.838	20963
852.973	20998
853.107	20948
853.242	20746
853.376	20693
853.511	20415
853.645	20670
853.78	20762
853.914	20632
854.048	20583
854.183	20617
854.317	20648
854.451	20727
854.585	20609
854.72	20533
854.854	20667
854.988	20621
855.122	20571
855.256	20575
855.39	20621
855.524	20667
855.658	20796
855.792	20682
855.926	20678
856.06	20686
856.194	20678
856.327	20617
856.461	20499
856.595	20537
856.729	20670
856.862	20796
856.996	20564
857.13	20807
857.263	20689
857.397	20750
857.53	20629
857.664	20781
857.797	20693
857.931	20823
858.064	20644
858.197	20708
858.331	20606
858.464	20568
858.597	20461
858.731	20674
858.864	20587
858.997	20609
859.13	20754
859.263	20659
859.396	20670
859.529	20564
859.662	20571
859.795	20556
859.928	20655
860.061	20743
860.194	20746
860.327	20659
860.46	20587
860.592	20750
860.725	20758
860.858	20750
860.99	20590
861.123	20514
861.256	20568
861.388	20602
861.521	21188
861.653	20518
861.786	20298
861.918	20522
862.05	20427
862.183	20537
862.315	20488
862.447	20697
862.58	20583
862.712	20427
862.844	20256
862.976	20412
863.108	20381
863.24	20906
863.372	20267
863.504	20229
863.636	20275
863.768	20415
863.9	20377
864.032	20119
864.164	20313
864.296	20377
864.428	20404
864.559	20400
864.691	20415
864.823	20408
864.954	20332
865.086	20309
865.217	20332
865.349	20225
865.48	20278
865.612	20248
865.743	20324
865.875	20267
866.006	20058
866.137	20218
866.269	20111
866.4	20187
866.531	20077
866.662	20172
866.793	20164
866.924	20244
867.055	20202
867.186	20012
867.317	20096
867.448	20001
867.579	20088
867.71	20084
867.841	20027
867.972	20100
868.103	20130
868.233	20134
868.364	20153
868.495	20358
868.625	20339
868.756	20393
868.886	20252
869.017	20423
869.147	20507
869.278	20457
869.408	20366
869.539	20343
869.669	20431
869.799	20484
869.929	20545
870.06	20522
870.19	20735
870.32	20689
870.45	20731
870.58	20769
870.71	20792
870.84	20948
870.97	20880
871.1	20678
871.23	20967
871.36	20956
871.489	20830
871.619	20952
871.749	20971
871.879	21039
872.008	20990
872.138	20986
872.267	20929
872.397	20834
872.526	20705
872.656	20781
872.785	20925
872.915	20941
873.044	21062
873.173	20994
873.303	21119
873.432	20937
873.561	21150
873.69	20941
873.819	21009
873.948	21077
874.077	20956
874.206	20952
874.335	20990
874.464	21138
874.593	21188
874.722	21180
874.851	21256
874.979	21287
875.108	21332
875.237	21252
875.365	21123
875.494	21252
875.623	21233
875.751	21310
875.88	21298
876.008	21340
876.136	21526
876.265	21701
876.393	21755
876.521	21720
876.65	21770
876.778	21625
876.906	21500
877.034	21504
877.162	21663
877.29	21545
877.418	21637
877.546	21542
877.674	21644
877.802	21660
877.93	21595
878.058	21591
878.185	21523
878.313	21633
878.441	21534
878.568	21431
878.696	21481
878.824	21644
878.951	21724
879.079	21857
879.206	21861
879.333	21736
879.461	21599
879.588	21724
879.715	21625
879.842	21823
879.97	21652
880.097	21435
880.224	21477
880.351	21515
880.478	21534
880.605	21291
880.732	21313
880.859	21526
880.986	21424
881.112	21386
881.239	21321
881.366	21089
881.493	21017
881.619	21055
881.746	21017
881.872	21154
881.999	21005
882.125	20921
882.252	21096
882.378	20941
882.505	21047
882.631	20868
882.757	20811
882.883	20944
883.01	20811
883.136	20712
883.262	20556
883.388	20602
883.514	20769
883.64	20750
883.766	20606
883.892	20446
884.018	20484
884.143	20682
884.269	20724
884.395	20476
884.52	20377
884.646	20518
884.772	20286
884.897	20278
885.023	20396
885.148	20495
885.274	20431
885.399	20507
885.524	20427
885.65	20423
885.775	20393
885.9	20317
886.025	20385
886.15	20431
886.275	20301
886.4	20267
886.525	20298
886.65	20332
886.775	20366
886.9	20442
887.025	20587
887.149	20358
887.274	20161
887.399	20081
887.523	20221
887.648	20103
887.773	20054
887.897	20229
888.021	20069
888.146	20130
888.27	20244
888.395	20271
888.519	20138
888.643	20195
888.767	20107
888.891	19928
889.015	20008
889.139	20096
889.263	19849
889.387	20077
889.511	20084
889.635	19909
889.759	19875
889.883	19944
890.006	19925
890.13	20008
890.254	19837
890.377	19890
890.501	19647
890.624	19769
890.748	19772
890.871	19609
890.995	19407
891.118	19521
891.241	19472
891.364	19597
891.488	19609
891.611	19518
891.734	19453
891.857	19605
891.98	19487
892.103	19563
892.226	19506
892.349	19476
892.471	19278
892.594	19441
892.717	19369
892.839	19449
892.962	19381
893.085	19582
893.207	19521
893.33	19324
893.452	19362
893.575	19476
893.697	19487
893.819	19506
893.941	19616
894.064	19403
894.186	19403
894.308	19377
894.43	19552
894.552	19601
894.674	19537
894.796	19190
894.918	19464
895.04	19468
895.161	19502
895.283	19586
895.405	19441
895.526	19495
895.648	19521
895.769	19411
895.891	19487
896.012	19586
896.134	19548
896.255	19540
896.376	19483
896.498	19415
896.619	19544
896.74	19518
896.861	19575
896.982	19864
897.103	19841
897.224	19780
897.345	19693
897.466	19708
897.587	19655
897.708	19738
897.828	19605
897.949	19609
898.07	19540
898.19	19571
898.311	19830
898.431	19613
898.552	19666
898.672	19814
898.792	19689
898.913	19586
899.033	19483
899.153	19487
899.273	19308
899.393	19350
899.513	19582
899.633	19449
899.753	19320
899.873	19240
899.993	19419
900.113	19438
900.232	19468
900.352	19259
900.472	19263
900.591	19228
900.711	19270
900.83	19228
900.95	19270
901.069	19297
901.189	19152
901.308	18932
901.427	18779
901.546	18776
901.665	18867
901.784	18829
901.904	18658
902.023	18681
902.141	18429
902.26	18338
902.379	18376
902.498	18403
902.617	18281
902.735	18353
902.854	18186
902.973	18129
903.091	17961
903.21	17889
903.328	18053
903.446	17980
903.565	17767
903.683	17809
903.801	17653
903.919	17798
904.038	17710
904.156	17623
904.274	17649
904.392	17532
904.51	17596
904.627	17501
904.745	17570
904.863	17665
904.981	17265
905.098	17246
905.216	17212
905.334	17299
905.451	17250
905.569	17303
905.686	17185
905.803	17166
905.921	16976
906.038	17113
906.155	17010
906.272	16934
906.389	16949
906.506	16729
906.623	16896
906.74	16725
906.857	16672
906.974	16706
907.091	16767
907.208	16923
907.324	16835
907.441	16630
907.557	16519
907.674	16440
907.79	16455
907.907	16371
908.023	16500
908.139	16500
908.256	16421
908.372	16329
908.488	16341
908.604	16207
908.72	16166
908.836	16215
908.952	16109
909.068	16230
909.184	16500
909.3	16154
909.415	16196
909.531	16207
909.647	16025
909.762	15907
909.878	15819
909.993	16010
910.108	15888
910.224	15816
910.339	15873
910.454	15759
910.57	15759
910.685	15599
910.8	15880
910.915	15873
911.03	15759
911.145	15595
911.259	15549
911.374	15481
911.489	15507
911.604	15313
911.718	15180
911.833	15226
911.947	15165
912.062	15085
912.176	15184
912.291	15218
912.405	15211
912.519	15469
912.633	15424
912.748	15161
912.862	15260
912.976	15097
913.09	14982
913.204	14994
913.318	15135
913.431	15123
913.545	15077
913.659	15176
913.772	15017
913.886	14982
914	14838
914.113	14921
914.226	14925
914.34	14982
914.453	14682
914.566	14979
914.68	14819
914.793	14777
914.906	14674
915.019	14537
915.132	14457
915.245	14469
915.358	14556
915.47	14579
915.583	14537
915.696	14469
915.809	14659
915.921	14659
916.034	14488
916.146	14404
916.259	14355
916.371	14461
916.483	14469
916.595	14328
916.708	14358
916.82	14263
916.932	14328
917.044	14301
917.156	14309
917.268	14103
917.38	14153
917.491	14092
917.603	14145
917.715	14263
917.826	14282
917.938	14138
918.049	14016
918.161	14278
918.272	14199
918.384	14244
918.495	14149
918.606	14142
918.717	13894
918.828	13940
918.939	14092
919.05	13883
919.161	13947
919.272	13761
919.383	13689
919.494	13993
919.604	14138
919.715	13963
919.826	13791
919.936	13875
920.047	14005
920.157	13909
920.267	14088
920.378	13932
920.488	13837
920.598	14046
920.708	14183
920.818	14069
920.928	14016
921.038	14195
921.148	14065
921.258	13849
921.368	13811
921.477	13636
921.587	13689
921.697	13495
921.806	13620
921.916	13491
922.025	13350
922.134	13278
922.244	13270
922.353	13335
922.462	13213
922.571	13164
922.68	12928
922.789	13012
922.898	12924
923.007	12913
923.116	12863
923.224	12970
923.333	12916
923.442	12768
923.55	12821
923.659	12787
923.767	12867
923.876	12692
923.984	12798
924.092	12681
924.201	12741
924.309	12760
924.417	12684
924.525	12559
924.633	12612
924.741	13350
924.849	12391
924.956	12551
925.064	12483
925.172	12380
925.279	12395
925.387	12380
925.494	12437
925.602	12578
925.709	12437
925.816	12281
925.924	12391
926.031	12467
926.138	12388
926.245	12429
926.352	12205
926.459	12365
926.566	12376
926.673	12304
926.779	12194
926.886	12163
926.993	12053
927.099	12022
927.206	11920
927.312	12068
927.419	11999
927.525	11996
927.631	12045
927.737	11828
927.843	11805
927.95	11775
928.056	11821
928.162	11775
928.267	11824
928.373	12407
928.479	11935
928.585	11642
928.69	11836
928.796	11809
928.901	11596
929.007	11581
929.112	11714
929.218	11665
929.323	11554
929.428	11539
929.533	11627
929.638	11589
929.743	11463
929.848	11554
929.953	11417
930.058	11459
930.163	11311
930.267	11212
930.372	11387
930.477	11159
930.581	11528
930.685	11307
930.79	11128
930.894	11227
930.998	11105
931.103	11181
931.207	10866
931.311	10767
931.415	10717
931.519	10538
931.623	10447
