Data from test_V78500241_237.txt Node
Date: Fri Mar 25 15:11:30 CST 2022
User: usil
Spectrometer: V785-0024
Trigger mode: 0
Integration Time (sec): 4.000000E-1
Scans to average: 1
Nonlinearity correction enabled: false
Boxcar width: 0
Storing dark spectrum: false
XAxis mode: Wavelengths
Number of Pixels in Spectrum: 1024
>>>>>Begin Spectral Data<<<<<
801.071	27819
801.214	27873
801.356	27701
801.499	27614
801.641	27500
801.783	27370
801.926	27401
802.068	27427
802.211	27321
802.353	27245
802.496	27085
802.638	27157
802.78	27028
802.923	27005
803.065	26861
803.208	26998
803.35	27119
803.492	27085
803.635	27249
803.777	27116
803.919	27165
804.061	27595
804.204	27340
804.346	27138
804.488	27032
804.63	27188
804.773	26971
804.915	27165
805.057	27188
805.199	27252
805.341	27127
805.483	27211
805.626	27207
805.768	27218
805.91	27256
806.052	27233
806.194	27310
806.336	27443
806.478	27283
806.62	27241
806.762	27427
806.904	27424
807.046	27698
807.188	27667
807.33	27606
807.472	27580
807.614	27622
807.756	27504
807.898	27526
808.04	27439
808.182	27431
808.324	27530
808.465	27496
808.607	27686
808.749	27739
808.891	27732
809.033	28090
809.174	27991
809.316	27918
809.458	27774
809.6	27854
809.741	27846
809.883	28044
810.025	28044
810.166	28074
810.308	28051
810.45	28086
810.591	28112
810.733	27720
810.875	27675
811.016	27690
811.158	27603
811.299	27880
811.441	28063
811.582	28013
811.724	27656
811.865	27652
812.007	27690
812.148	27538
812.29	27781
812.431	27953
812.573	28074
812.714	28051
812.855	28329
812.997	28375
813.138	28466
813.279	28299
813.421	28440
813.562	28394
813.703	28185
813.845	27934
813.986	27663
814.127	27466
814.268	27496
814.41	27553
814.551	27416
814.692	27458
814.833	27454
814.974	27241
815.115	27344
815.256	27348
815.397	27119
815.539	27180
815.68	27233
815.821	27013
815.962	27260
816.103	27150
816.244	27036
816.385	26819
816.526	26811
816.666	26701
816.807	26640
816.948	26716
817.089	26746
817.23	26727
817.371	26583
817.512	26568
817.653	26533
817.793	26613
817.934	26663
818.075	26686
818.216	26632
818.356	26689
818.497	26419
818.638	26328
818.778	26168
818.919	26275
819.06	26434
819.2	26457
819.341	26453
819.481	26564
819.622	26750
819.762	26834
819.903	26716
820.043	26697
820.184	26674
820.324	26651
820.465	26651
820.605	26640
820.746	26575
820.886	26438
821.026	26571
821.167	26682
821.307	26533
821.447	26492
821.588	26533
821.728	26412
821.868	26263
822.008	26058
822.149	25940
822.289	25890
822.429	25811
822.569	25715
822.709	25814
822.849	25491
822.99	25434
823.13	25430
823.27	25270
823.41	25331
823.55	25232
823.69	25282
823.83	25411
823.97	25118
824.11	25126
824.25	25072
824.389	25194
824.529	25126
824.669	25084
824.809	25240
824.949	25091
825.089	25126
825.228	25065
825.368	24966
825.508	24848
825.648	24913
825.787	25019
825.927	24981
826.067	24916
826.206	24856
826.346	25042
826.485	24916
826.625	24890
826.765	24928
826.904	24932
827.044	24646
827.183	24681
827.323	24642
827.462	24597
827.601	24719
827.741	24513
827.88	24627
828.02	24532
828.159	24623
828.298	24661
828.437	24745
828.577	24479
828.716	24772
828.855	24604
828.994	24319
829.134	24254
829.273	24308
829.412	24213
829.551	24171
829.69	24258
829.829	24266
829.968	24399
830.107	24369
830.246	24330
830.385	24239
830.524	24155
830.663	23984
830.802	23897
830.941	23961
831.08	23931
831.219	24018
831.357	23954
831.496	24091
831.635	23973
831.774	23901
831.913	23805
832.051	23805
832.19	23642
832.329	23729
832.467	23520
832.606	23581
832.744	23547
832.883	23520
833.022	23528
833.16	23531
833.299	23649
833.437	23710
833.576	23665
833.714	23585
833.852	23600
833.991	23623
834.129	23714
834.267	23668
834.406	23661
834.544	23558
834.682	23516
834.821	23547
834.959	23756
835.097	23528
835.235	23710
835.373	23486
835.511	23619
835.65	23493
835.788	23410
835.926	23311
836.064	23185
836.202	23292
836.34	23444
836.478	23531
836.615	23353
836.753	23356
836.891	23478
837.029	23406
837.167	23345
837.305	23303
837.443	23220
837.58	23269
837.718	23261
837.856	23254
837.993	23090
838.131	23273
838.269	23162
838.406	23128
838.544	23140
838.681	22904
838.819	22942
838.956	22752
839.094	22755
839.231	22816
839.369	22854
839.506	23067
839.643	22820
839.781	22744
839.918	22611
840.055	22660
840.193	22713
840.33	22569
840.467	22618
840.604	22637
840.742	22919
840.879	22512
841.016	22531
841.153	22417
841.29	22767
841.427	22656
841.564	22584
841.701	22592
841.838	22493
841.975	22542
842.112	22485
842.249	22318
842.385	22337
842.522	22421
842.659	22375
842.796	22253
842.933	22329
843.069	22306
843.206	22276
843.343	22474
843.479	22360
843.616	22432
843.752	22135
843.889	22063
844.025	22242
844.162	21983
844.298	22192
844.435	22158
844.571	22010
844.708	22158
844.844	22253
844.98	22238
845.117	22109
845.253	22059
845.389	21838
845.525	22116
845.661	21926
845.798	21736
845.934	21797
846.07	21671
846.206	21861
846.342	21911
846.478	21728
846.614	21622
846.75	21473
846.886	21568
847.022	21648
847.158	21629
847.294	21580
847.429	21633
847.565	21344
847.701	21739
847.837	21317
847.972	21264
848.108	21344
848.244	21351
848.379	21154
848.515	21165
848.65	21127
848.786	21180
848.921	21062
849.057	21283
849.192	21161
849.328	21184
849.463	21055
849.598	21058
849.734	21028
849.869	21070
850.004	20906
850.14	20887
850.275	20842
850.41	20868
850.545	20838
850.68	20952
850.815	21032
850.95	20838
851.085	20994
851.22	20982
851.355	20937
851.49	20891
851.625	20708
851.76	20838
851.895	20754
852.03	20883
852.165	20746
852.299	20918
852.434	20918
852.569	20845
852.703	20929
852.838	20982
852.973	21051
853.107	20963
853.242	20792
853.376	20655
853.511	20522
853.645	20644
853.78	20777
853.914	20705
854.048	20632
854.183	20739
854.317	20838
854.451	20872
854.585	20746
854.72	20716
854.854	20842
854.988	20640
855.122	20632
855.256	20575
855.39	20606
855.524	20785
855.658	20815
855.792	20712
855.926	20697
856.06	20693
856.194	20739
856.327	20750
856.461	20571
856.595	20594
856.729	20648
856.862	20701
856.996	20651
857.13	20655
857.263	20743
857.397	20762
857.53	20583
857.664	20746
857.797	20670
857.931	20735
858.064	20640
858.197	20743
858.331	20651
858.464	20556
858.597	20579
858.731	20735
858.864	20583
858.997	20625
859.13	20689
859.263	20735
859.396	20693
859.529	20663
859.662	20625
859.795	20693
859.928	20568
860.061	20788
860.194	20880
860.327	20792
860.46	20655
860.592	20731
860.725	20823
860.858	20857
860.99	20720
861.123	20511
861.256	20655
861.388	20682
861.521	21386
861.653	20545
861.786	20446
861.918	20450
862.05	20587
862.183	20450
862.315	20686
862.447	20762
862.58	20617
862.712	20377
862.844	20339
862.976	20385
863.108	20301
863.24	20872
863.372	20225
863.504	20442
863.636	20370
863.768	20408
863.9	20423
864.032	20313
864.164	20313
864.296	20396
864.428	20438
864.559	20427
864.691	20476
864.823	20343
864.954	20374
865.086	20286
865.217	20328
865.349	20263
865.48	20298
865.612	20187
865.743	20301
865.875	20275
866.006	20149
866.137	20320
866.269	20298
866.4	20332
866.531	20225
866.662	20161
866.793	20149
866.924	20317
867.055	20191
867.186	20229
867.317	20183
867.448	20100
867.579	20202
867.71	20050
867.841	20119
867.972	20096
868.103	20225
868.233	20138
868.364	20145
868.495	20244
868.625	20415
868.756	20629
868.886	20412
869.017	20427
869.147	20667
869.278	20552
869.408	20518
869.539	20533
869.669	20549
869.799	20560
869.929	20499
870.06	20533
870.19	20826
870.32	20727
870.45	20807
870.58	20746
870.71	20986
870.84	20838
870.97	20769
871.1	20830
871.23	20891
871.36	20952
871.489	20948
871.619	20899
871.749	21005
871.879	21116
872.008	21154
872.138	20933
872.267	21043
872.397	20830
872.526	20883
872.656	20845
872.785	20906
872.915	20971
873.044	21161
873.173	21047
873.303	20990
873.432	21085
873.561	21135
873.69	21058
873.819	21005
873.948	21142
874.077	21230
874.206	20986
874.335	20906
874.464	21100
874.593	21386
874.722	21283
874.851	21386
874.979	21389
875.108	21207
875.237	21294
875.365	21207
875.494	21275
875.623	21382
875.751	21291
875.88	21260
876.008	21568
876.136	21500
876.265	21622
876.393	21739
876.521	21747
876.65	21823
876.778	21766
876.906	21606
877.034	21591
877.162	21614
877.29	21622
877.418	21713
877.546	21641
877.674	21660
877.802	21644
877.93	21572
878.058	21599
878.185	21542
878.313	21618
878.441	21679
878.568	21462
878.696	21663
878.824	21671
878.951	21892
879.079	21804
879.206	22021
879.333	21865
879.461	21831
879.588	21637
879.715	21781
879.842	21922
879.97	21743
880.097	21431
880.224	21420
880.351	21393
880.478	21443
880.605	21420
880.732	21393
880.859	21694
880.986	21485
881.112	21462
881.239	21336
881.366	21264
881.493	21123
881.619	21024
881.746	21051
881.872	21032
881.999	21001
882.125	20941
882.252	21051
882.378	20979
882.505	21203
882.631	21009
882.757	20849
882.883	20941
883.01	20712
883.136	20689
883.262	20693
883.388	20629
883.514	20663
883.64	20845
883.766	20705
883.892	20480
884.018	20697
884.143	20815
884.269	20773
884.395	20476
884.52	20343
884.646	20476
884.772	20317
884.897	20305
885.023	20480
885.148	20461
885.274	20552
885.399	20457
885.524	20499
885.65	20408
885.775	20393
885.9	20503
886.025	20476
886.15	20560
886.275	20423
886.4	20271
886.525	20362
886.65	20400
886.775	20278
886.9	20533
887.025	20617
887.149	20343
887.274	20259
887.399	20218
887.523	20138
887.648	20183
887.773	20035
887.897	20339
888.021	20199
888.146	20187
888.27	20396
888.395	20278
888.519	20221
888.643	20168
888.767	20339
888.891	20077
889.015	20058
889.139	20065
889.263	19925
889.387	20161
889.511	20172
889.635	20081
889.759	20008
889.883	19974
890.006	20058
890.13	20092
890.254	19887
890.377	19947
890.501	19704
890.624	19696
890.748	19734
890.871	19712
890.995	19537
891.118	19556
891.241	19563
891.364	19552
891.488	19651
891.611	19567
891.734	19643
891.857	19514
891.98	19586
892.103	19529
892.226	19415
892.349	19510
892.471	19392
892.594	19510
892.717	19476
892.839	19358
892.962	19563
893.085	19578
893.207	19411
893.33	19457
893.452	19438
893.575	19548
893.697	19419
893.819	19601
893.941	19655
894.064	19624
894.186	19472
894.308	19476
894.43	19537
894.552	19609
894.674	19430
894.796	19396
894.918	19537
895.04	19392
895.161	19544
895.283	19525
895.405	19354
895.526	19468
895.648	19502
895.769	19483
895.891	19441
896.012	19605
896.134	19483
896.255	19476
896.376	19403
896.498	19480
896.619	19628
896.74	19540
896.861	19582
896.982	19906
897.103	19982
897.224	19849
897.345	19811
897.466	19635
897.587	19738
897.708	19856
897.828	19753
897.949	19643
898.07	19464
898.19	19639
898.311	19681
898.431	19689
898.552	19685
898.672	19727
898.792	19811
898.913	19655
899.033	19677
899.153	19476
899.273	19339
899.393	19438
899.513	19483
899.633	19487
899.753	19502
899.873	19324
899.993	19472
900.113	19316
900.232	19438
900.352	19346
900.472	19316
900.591	19187
900.711	19312
900.83	19213
900.95	19419
901.069	19293
901.189	19141
901.308	19031
901.427	18871
901.546	18817
901.665	18947
901.784	18791
901.904	18703
902.023	18597
902.141	18399
902.26	18338
902.379	18437
902.498	18502
902.617	18315
902.735	18346
902.854	18300
902.973	18091
903.091	18034
903.21	18030
903.328	17969
903.446	18003
903.565	17828
903.683	17832
903.801	17741
903.919	17832
904.038	17680
904.156	17592
904.274	17668
904.392	17627
904.51	17596
904.627	17566
904.745	17570
904.863	17710
904.981	17356
905.098	17269
905.216	17200
905.334	17299
905.451	17311
905.569	17239
905.686	17299
905.803	17216
905.921	17090
906.038	17124
906.155	17174
906.272	16972
906.389	17094
906.506	16869
906.623	16733
906.74	16786
906.857	16717
906.974	16656
907.091	16900
907.208	16881
907.324	16843
907.441	16778
907.557	16451
907.674	16580
907.79	16394
907.907	16474
908.023	16500
908.139	16580
908.256	16409
908.372	16371
908.488	16341
908.604	16207
908.72	16177
908.836	16211
908.952	16200
909.068	16196
909.184	16398
909.3	16143
909.415	16276
909.531	16223
909.647	16017
909.762	15922
909.878	16032
909.993	15926
910.108	15918
910.224	15854
910.339	15964
910.454	15842
910.57	15766
910.685	15705
910.8	15926
910.915	15846
911.03	15778
911.145	15534
911.259	15564
911.374	15595
911.489	15553
911.604	15397
911.718	15192
911.833	15424
911.947	15135
912.062	15142
912.176	15165
912.291	15230
912.405	15230
912.519	15351
912.633	15500
912.748	15268
912.862	15214
912.976	15051
913.09	14956
913.204	15051
913.318	15081
913.431	15199
913.545	15165
913.659	15264
913.772	15150
913.886	14883
914	14952
914.113	14925
914.226	15009
914.34	15005
914.453	14804
914.566	14918
914.68	14735
914.793	14659
914.906	14678
915.019	14522
915.132	14438
915.245	14511
915.358	14594
915.47	14530
915.583	14503
915.696	14617
915.809	14625
915.921	14621
916.034	14492
916.146	14499
916.259	14298
916.371	14450
916.483	14450
916.595	14343
916.708	14404
916.82	14275
916.932	14366
917.044	14450
917.156	14317
917.268	14191
917.38	14172
917.491	14176
917.603	14153
917.715	14237
917.826	14320
917.938	14103
918.049	14054
918.161	14149
918.272	14229
918.384	14233
918.495	14100
918.606	14119
918.717	13932
918.828	14027
918.939	13982
919.05	13898
919.161	13955
919.272	13776
919.383	13822
919.494	14020
919.604	14138
919.715	13940
919.826	13852
919.936	13898
920.047	14073
920.157	13917
920.267	14100
920.378	14035
920.488	13845
920.598	14084
920.708	14195
920.818	13982
920.928	14084
921.038	14191
921.148	14142
921.258	13818
921.368	13803
921.477	13712
921.587	13723
921.697	13594
921.806	13616
921.916	13525
922.025	13400
922.134	13308
922.244	13320
922.353	13464
922.462	13194
922.571	13042
922.68	12966
922.789	12996
922.898	12970
923.007	12924
923.116	12951
923.224	12894
923.333	12814
923.442	12856
923.55	12768
923.659	12821
923.767	12833
923.876	12779
923.984	12840
924.092	12753
924.201	12753
924.309	12734
924.417	12669
924.525	12684
924.633	12715
924.741	13441
924.849	12395
924.956	12582
925.064	12441
925.172	12304
925.279	12384
925.387	12391
925.494	12353
925.602	12570
925.709	12483
925.816	12285
925.924	12350
926.031	12323
926.138	12380
926.245	12342
926.352	12281
926.459	12361
926.566	12403
926.673	12338
926.779	12201
926.886	12190
926.993	12015
927.099	11999
927.206	11999
927.312	11973
927.419	11984
927.525	12034
927.631	11935
927.737	11893
927.843	11866
927.95	11775
928.056	11748
928.162	11821
928.267	11863
928.373	12308
928.479	11980
928.585	11718
928.69	11756
928.796	11813
928.901	11684
929.007	11554
929.112	11611
929.218	11646
929.323	11562
929.428	11543
929.533	11657
929.638	11505
929.743	11417
929.848	11558
929.953	11638
930.058	11288
930.163	11193
930.267	11239
930.372	11414
930.477	11277
930.581	11414
930.685	11220
930.79	11090
930.894	11201
930.998	11124
931.103	11235
931.207	10976
931.311	10854
931.415	10694
931.519	10523
931.623	10577
