Data from test_V78500241_3122.txt Node
Date: Fri Mar 25 15:31:35 CST 2022
User: usil
Spectrometer: V785-0024
Trigger mode: 0
Integration Time (sec): 4.000000E-1
Scans to average: 1
Nonlinearity correction enabled: false
Boxcar width: 0
Storing dark spectrum: false
XAxis mode: Wavelengths
Number of Pixels in Spectrum: 1024
>>>>>Begin Spectral Data<<<<<
801.071	27161
801.214	27077
801.356	26777
801.499	26705
801.641	26663
801.783	26480
801.926	26686
802.068	26716
802.211	26644
802.353	26370
802.496	26374
802.638	26309
802.78	26275
802.923	26115
803.065	26100
803.208	26043
803.35	26294
803.492	26374
803.635	26469
803.777	26278
803.919	26419
804.061	26754
804.204	26415
804.346	26541
804.488	26400
804.63	26305
804.773	26480
804.915	26507
805.057	26404
805.199	26298
805.341	26400
805.483	26393
805.626	26446
805.768	26526
805.91	26473
806.052	26533
806.194	26488
806.336	26705
806.478	26446
806.62	26442
806.762	26541
806.904	26705
807.046	27028
807.188	26902
807.33	26895
807.472	27028
807.614	26906
807.756	26921
807.898	26693
808.04	26655
808.182	26651
808.324	26727
808.465	26765
808.607	26918
808.749	27070
808.891	27203
809.033	27119
809.174	27085
809.316	27013
809.458	27135
809.6	27024
809.741	27214
809.883	27203
810.025	27412
810.166	27249
810.308	27397
810.45	27386
810.591	27214
810.733	27150
810.875	27119
811.016	27096
811.158	26975
811.299	27100
811.441	27268
811.582	27214
811.724	26948
811.865	26929
812.007	27013
812.148	27100
812.29	27066
812.431	27135
812.573	27454
812.714	27363
812.855	27553
812.997	27618
813.138	27865
813.279	27656
813.421	27675
813.562	27587
813.703	27325
813.845	27317
813.986	26975
814.127	26796
814.268	26785
814.41	26754
814.551	26659
814.692	26864
814.833	26644
814.974	26602
815.115	26765
815.256	26678
815.397	26667
815.539	26667
815.68	26518
815.821	26461
815.962	26636
816.103	26450
816.244	26450
816.385	26183
816.526	26138
816.666	26115
816.807	25860
816.948	26153
817.089	26024
817.23	25906
817.371	26016
817.512	25932
817.653	25955
817.793	25917
817.934	25978
818.075	25993
818.216	25989
818.356	25936
818.497	25769
818.638	25696
818.778	25860
818.919	25757
819.06	25761
819.2	25951
819.341	25932
819.481	25921
819.622	25921
819.762	26286
819.903	26187
820.043	26039
820.184	26130
820.324	26039
820.465	26130
820.605	26020
820.746	26027
820.886	25970
821.026	25959
821.167	25906
821.307	26084
821.447	25799
821.588	25894
821.728	25685
821.868	25613
822.008	25426
822.149	25499
822.289	25495
822.429	25206
822.569	25065
822.709	25122
822.849	25057
822.99	24954
823.13	24886
823.27	24954
823.41	24661
823.55	24620
823.69	24719
823.83	24783
823.97	24726
824.11	24418
824.25	24582
824.389	24631
824.529	24764
824.669	24528
824.809	24665
824.949	24703
825.089	24597
825.228	24536
825.368	24437
825.508	24513
825.648	24460
825.787	24395
825.927	24475
826.067	24388
826.206	24376
826.346	24502
826.485	24498
826.625	24582
826.765	24608
826.904	24384
827.044	24273
827.183	24136
827.323	24072
827.462	24220
827.601	24148
827.741	24232
827.88	24174
828.02	24068
828.159	24041
828.298	24049
828.437	24182
828.577	24045
828.716	24072
828.855	24102
828.994	23866
829.134	23996
829.273	23973
829.412	23764
829.551	23870
829.69	23779
829.829	23863
829.968	23870
830.107	23840
830.246	23931
830.385	23798
830.524	23824
830.663	23665
830.802	23535
830.941	23528
831.08	23353
831.219	23615
831.357	23528
831.496	23748
831.635	23433
831.774	23326
831.913	23303
832.051	23383
832.19	23265
832.329	23246
832.467	23121
832.606	23060
832.744	23086
832.883	23147
833.022	23006
833.16	23204
833.299	23151
833.437	23086
833.576	23189
833.714	23079
833.852	23277
833.991	23292
834.129	23330
834.267	23231
834.406	23318
834.544	23231
834.682	23086
834.821	23174
834.959	23337
835.097	23086
835.235	23258
835.373	23022
835.511	23170
835.65	23052
835.788	23117
835.926	22923
836.064	22866
836.202	22812
836.34	23094
836.478	23155
836.615	23094
836.753	23124
836.891	23113
837.029	23124
837.167	22923
837.305	23037
837.443	22892
837.58	22984
837.718	22957
837.856	22904
837.993	22778
838.131	22774
838.269	22801
838.406	22744
838.544	22793
838.681	22622
838.819	22607
838.956	22459
839.094	22390
839.231	22386
839.369	22512
839.506	22668
839.643	22626
839.781	22421
839.918	22314
840.055	22409
840.193	22386
840.33	22341
840.467	22322
840.604	22485
840.742	22531
840.879	22230
841.016	22200
841.153	22204
841.29	22398
841.427	22325
841.564	22223
841.701	22265
841.838	22204
841.975	22299
842.112	22147
842.249	22158
842.385	22124
842.522	22280
842.659	22131
842.796	22139
842.933	21991
843.069	21987
843.206	22082
843.343	22196
843.479	21975
843.616	21979
843.752	21804
843.889	21838
844.025	21964
844.162	21770
844.298	21937
844.435	21892
844.571	21728
844.708	21915
844.844	22010
844.98	21991
845.117	21987
845.253	21778
845.389	21713
845.525	21888
845.661	21739
845.798	21542
845.934	21686
846.07	21583
846.206	21481
846.342	21705
846.478	21428
846.614	21279
846.75	21313
846.886	21321
847.022	21412
847.158	21431
847.294	21351
847.429	21355
847.565	21237
847.701	21561
847.837	21020
847.972	21020
848.108	21279
848.244	21074
848.379	20956
848.515	20982
848.65	20845
848.786	20857
848.921	20899
849.057	21032
849.192	21013
849.328	21005
849.463	20895
849.598	20921
849.734	20868
849.869	20788
850.004	20667
850.14	20724
850.275	20697
850.41	20708
850.545	20606
850.68	20503
850.815	20686
850.95	20568
851.085	20819
851.22	20861
851.355	20617
851.49	20583
851.625	20720
851.76	20731
851.895	20617
852.03	20651
852.165	20682
852.299	20746
852.434	20739
852.569	20644
852.703	20606
852.838	20754
852.973	20887
853.107	20838
853.242	20571
853.376	20613
853.511	20362
853.645	20431
853.78	20587
853.914	20613
854.048	20351
854.183	20514
854.317	20552
854.451	20689
854.585	20571
854.72	20454
854.854	20640
854.988	20427
855.122	20590
855.256	20347
855.39	20434
855.524	20587
855.658	20484
855.792	20533
855.926	20575
856.06	20568
856.194	20609
856.327	20438
856.461	20473
856.595	20442
856.729	20450
856.862	20617
856.996	20434
857.13	20507
857.263	20541
857.397	20560
857.53	20568
857.664	20495
857.797	20587
857.931	20777
858.064	20545
858.197	20590
858.331	20446
858.464	20381
858.597	20488
858.731	20415
858.864	20473
858.997	20381
859.13	20461
859.263	20461
859.396	20678
859.529	20514
859.662	20434
859.795	20434
859.928	20495
860.061	20674
860.194	20625
860.327	20492
860.46	20594
860.592	20651
860.725	20678
860.858	20663
860.99	20492
861.123	20393
861.256	20465
861.388	20446
861.521	20914
861.653	20488
861.786	20309
861.918	20370
862.05	20347
862.183	20461
862.315	20476
862.447	20590
862.58	20408
862.712	20180
862.844	20103
862.976	20225
863.108	20271
863.24	20625
863.372	20229
863.504	20233
863.636	20271
863.768	20271
863.9	20240
864.032	20157
864.164	20176
864.296	20278
864.428	20259
864.559	20240
864.691	20317
864.823	20298
864.954	20233
865.086	20343
865.217	20142
865.349	20100
865.48	20138
865.612	20103
865.743	20275
865.875	20050
866.006	20016
866.137	20183
866.269	20092
866.4	20092
866.531	20073
866.662	19936
866.793	20016
866.924	19997
867.055	20062
867.186	20138
867.317	19989
867.448	19997
867.579	20046
867.71	20027
867.841	20062
867.972	20081
868.103	20046
868.233	20046
868.364	20058
868.495	20088
868.625	20336
868.756	20583
868.886	20225
869.017	20393
869.147	20431
869.278	20366
869.408	20347
869.539	20362
869.669	20404
869.799	20271
869.929	20415
870.06	20408
870.19	20598
870.32	20648
870.45	20606
870.58	20720
870.71	20815
870.84	20785
870.97	20590
871.1	20609
871.23	20948
871.36	20811
871.489	20796
871.619	20868
871.749	20849
871.879	20933
872.008	21127
872.138	20944
872.267	20861
872.397	20758
872.526	20819
872.656	20769
872.785	20727
872.915	20921
873.044	20967
873.173	20834
873.303	20994
873.432	20971
873.561	21024
873.69	20941
873.819	20899
873.948	21039
874.077	20986
874.206	20830
874.335	20944
874.464	21135
874.593	21180
874.722	21081
874.851	21237
874.979	21302
875.108	21222
875.237	21093
875.365	21108
875.494	21074
875.623	21192
875.751	21165
875.88	21222
876.008	21393
876.136	21428
876.265	21587
876.393	21793
876.521	21713
876.65	21667
876.778	21747
876.906	21667
877.034	21553
877.162	21633
877.29	21595
877.418	21564
877.546	21629
877.674	21496
877.802	21458
877.93	21500
878.058	21492
878.185	21447
878.313	21454
878.441	21389
878.568	21389
878.696	21378
878.824	21648
878.951	21595
879.079	21675
879.206	21846
879.333	21667
879.461	21603
879.588	21667
879.715	21709
879.842	21694
879.97	21538
880.097	21424
880.224	21348
880.351	21424
880.478	21469
880.605	21389
880.732	21435
880.859	21614
880.986	21325
881.112	21485
881.239	21135
881.366	21070
881.493	21180
881.619	20990
881.746	20933
881.872	20937
881.999	20842
882.125	20906
882.252	20880
882.378	20956
882.505	21005
882.631	20823
882.757	20678
882.883	20804
883.01	20754
883.136	20606
883.262	20480
883.388	20473
883.514	20640
883.64	20682
883.766	20701
883.892	20457
884.018	20598
884.143	20609
884.269	20716
884.395	20484
884.52	20408
884.646	20370
884.772	20294
884.897	20149
885.023	20320
885.148	20290
885.274	20484
885.399	20423
885.524	20339
885.65	20278
885.775	20427
885.9	20233
886.025	20461
886.15	20400
886.275	20305
886.4	20153
886.525	20377
886.65	20237
886.775	20180
886.9	20339
887.025	20552
887.149	20282
887.274	20168
887.399	20100
887.523	20020
887.648	19963
887.773	20096
887.897	20031
888.021	20016
888.146	20024
888.27	20218
888.395	20271
888.519	20111
888.643	20130
888.767	20062
888.891	20031
889.015	19951
889.139	19951
889.263	19894
889.387	19978
889.511	20050
889.635	19974
889.759	19906
889.883	19807
890.006	19845
890.13	19940
890.254	19860
890.377	19746
890.501	19628
890.624	19651
890.748	19700
890.871	19514
890.995	19426
891.118	19415
891.241	19525
891.364	19510
891.488	19506
891.611	19510
891.734	19487
891.857	19605
891.98	19521
892.103	19578
892.226	19529
892.349	19506
892.471	19381
892.594	19388
892.717	19419
892.839	19354
892.962	19419
893.085	19544
893.207	19438
893.33	19354
893.452	19400
893.575	19491
893.697	19464
893.819	19559
893.941	19635
894.064	19567
894.186	19259
894.308	19343
894.43	19457
894.552	19708
894.674	19495
894.796	19324
894.918	19411
895.04	19335
895.161	19514
895.283	19384
895.405	19285
895.526	19460
895.648	19411
895.769	19327
895.891	19575
896.012	19609
896.134	19445
896.255	19487
896.376	19289
896.498	19308
896.619	19438
896.74	19472
896.861	19396
896.982	19712
897.103	19871
897.224	19708
897.345	19674
897.466	19533
897.587	19613
897.708	19674
897.828	19704
897.949	19544
898.07	19556
898.19	19624
898.311	19712
898.431	19689
898.552	19616
898.672	19681
898.792	19655
898.913	19620
899.033	19578
899.153	19487
899.273	19324
899.393	19396
899.513	19556
899.633	19449
899.753	19373
899.873	19365
899.993	19362
900.113	19377
900.232	19270
900.352	19369
900.472	19247
900.591	19266
900.711	19221
900.83	19126
900.95	19228
901.069	19289
901.189	19103
901.308	18981
901.427	18715
901.546	18837
901.665	18867
901.784	18814
901.904	18730
902.023	18639
902.141	18369
902.26	18372
902.379	18361
902.498	18308
902.617	18262
902.735	18300
902.854	18338
902.973	18251
903.091	17927
903.21	17992
903.328	17939
903.446	17931
903.565	17786
903.683	17767
903.801	17608
903.919	17668
904.038	17703
904.156	17585
904.274	17661
904.392	17482
904.51	17493
904.627	17592
904.745	17649
904.863	17577
904.981	17459
905.098	17178
905.216	17231
905.334	17288
905.451	17315
905.569	17284
905.686	17189
905.803	17258
905.921	16968
906.038	17128
906.155	16991
906.272	16885
906.389	16980
906.506	16812
906.623	16782
906.74	16740
906.857	16672
906.974	16725
907.091	16733
907.208	16900
907.324	16824
907.441	16634
907.557	16535
907.674	16573
907.79	16500
907.907	16481
908.023	16531
908.139	16527
908.256	16390
908.372	16341
908.488	16325
908.604	16173
908.72	16200
908.836	16215
908.952	16204
909.068	16287
909.184	16284
909.3	16234
909.415	16265
909.531	16325
909.647	16071
909.762	15983
909.878	15911
909.993	15972
910.108	15922
910.224	15880
910.339	15778
910.454	15846
910.57	15705
910.685	15671
910.8	15911
910.915	15918
911.03	15808
911.145	15629
911.259	15663
911.374	15443
911.489	15492
911.604	15374
911.718	15374
911.833	15272
911.947	15142
912.062	15058
912.176	15317
912.291	15344
912.405	15306
912.519	15614
912.633	15580
912.748	15268
912.862	15351
912.976	15199
913.09	14918
913.204	15077
913.318	15237
913.431	15245
913.545	15138
913.659	15199
913.772	15108
913.886	15001
914	15009
914.113	15024
914.226	14929
914.34	15001
914.453	14830
914.566	14990
914.68	14819
914.793	14762
914.906	14670
915.019	14552
915.132	14389
915.245	14541
915.358	14583
915.47	14530
915.583	14598
915.696	14526
915.809	14640
915.921	14682
916.034	14480
916.146	14454
916.259	14473
916.371	14606
916.483	14488
916.595	14431
916.708	14415
916.82	14469
916.932	14434
917.044	14290
917.156	14351
917.268	14210
917.38	14176
917.491	14119
917.603	14301
917.715	14229
917.826	14324
917.938	14138
918.049	14046
918.161	14218
918.272	14225
918.384	14267
918.495	14123
918.606	14088
918.717	13986
918.828	14001
918.939	13982
919.05	13917
919.161	14001
919.272	13799
919.383	13860
919.494	14020
919.604	14145
919.715	14001
919.826	13887
919.936	13993
920.047	14084
920.157	14084
920.267	14145
920.378	14001
920.488	13967
920.598	14119
920.708	14294
920.818	14168
920.928	14100
921.038	14278
921.148	14176
921.258	13951
921.368	13784
921.477	13632
921.587	13693
921.697	13628
921.806	13765
921.916	13533
922.025	13377
922.134	13411
922.244	13327
922.353	13358
922.462	13221
922.571	13244
922.68	13080
922.789	13031
922.898	13042
923.007	12993
923.116	13129
923.224	13061
923.333	12993
923.442	12848
923.55	12890
923.659	12878
923.767	12844
923.876	12802
923.984	12852
924.092	12730
924.201	12928
924.309	12741
924.417	12779
924.525	12688
924.633	12669
924.741	13514
924.849	12448
924.956	12551
925.064	12483
925.172	12376
925.279	12448
925.387	12555
925.494	12437
925.602	12536
925.709	12498
925.816	12346
925.924	12403
926.031	12528
926.138	12380
926.245	12479
926.352	12376
926.459	12490
926.566	12494
926.673	12369
926.779	12209
926.886	12243
926.993	12129
927.099	12079
927.206	12076
927.312	11961
927.419	12038
927.525	12026
927.631	12114
927.737	11942
927.843	11920
927.95	11745
928.056	11855
928.162	11878
928.267	11923
928.373	12517
928.479	11950
928.585	11741
928.69	11874
928.796	11855
928.901	11767
929.007	11558
929.112	11699
929.218	11672
929.323	11676
929.428	11608
929.533	11680
929.638	11474
929.743	11623
929.848	11554
929.953	11604
930.058	11429
930.163	11315
930.267	11296
930.372	11429
930.477	11277
930.581	11543
930.685	11364
930.79	11155
930.894	11258
930.998	11185
931.103	11284
931.207	10965
931.311	10968
931.415	10797
931.519	10542
931.623	10611
