Data from test_V78500241_1161.txt Node
Date: Fri Mar 25 15:17:56 CST 2022
User: usil
Spectrometer: V785-0024
Trigger mode: 0
Integration Time (sec): 4.000000E-1
Scans to average: 1
Nonlinearity correction enabled: false
Boxcar width: 0
Storing dark spectrum: false
XAxis mode: Wavelengths
Number of Pixels in Spectrum: 1024
>>>>>Begin Spectral Data<<<<<
801.071	28455
801.214	28280
801.356	28082
801.499	28048
801.641	27804
801.783	28025
801.926	27968
802.068	27975
802.211	27819
802.353	27884
802.496	27667
802.638	27641
802.78	27580
802.923	27603
803.065	27530
803.208	27618
803.35	27679
803.492	27667
803.635	27789
803.777	27599
803.919	27819
804.061	28238
804.204	28006
804.346	27648
804.488	27663
804.63	27819
804.773	27789
804.915	27895
805.057	27964
805.199	27816
805.341	27922
805.483	28017
805.626	27949
805.768	27827
805.91	27876
806.052	27880
806.194	27892
806.336	28051
806.478	28006
806.62	28101
806.762	28150
806.904	28177
807.046	28409
807.188	28303
807.33	28504
807.472	28367
807.614	28295
807.756	28386
807.898	28318
808.04	28249
808.182	28329
808.324	28371
808.465	28325
808.607	28500
808.749	28630
808.891	28527
809.033	28850
809.174	28653
809.316	28675
809.458	28618
809.6	28656
809.741	28809
809.883	28615
810.025	28824
810.166	28942
810.308	29025
810.45	28778
810.591	28755
810.733	28717
810.875	28580
811.016	28489
811.158	28565
811.299	28698
811.441	28805
811.582	28812
811.724	28675
811.865	28622
812.007	28580
812.148	28717
812.29	28721
812.431	28881
812.573	28968
812.714	29014
812.855	29204
812.997	29330
813.138	29387
813.279	29250
813.421	29235
813.562	29299
813.703	29014
813.845	28869
813.986	28645
814.127	28455
814.268	28413
814.41	28459
814.551	28276
814.692	28440
814.833	28443
814.974	28325
815.115	28424
815.256	28443
815.397	28291
815.539	28371
815.68	28112
815.821	28067
815.962	28135
816.103	28150
816.244	28040
816.385	28101
816.526	27861
816.666	27907
816.807	27595
816.948	27713
817.089	27762
817.23	27694
817.371	27762
817.512	27850
817.653	27682
817.793	27720
817.934	27629
818.075	27774
818.216	27660
818.356	27701
818.497	27614
818.638	27469
818.778	27317
818.919	27363
819.06	27458
819.2	27652
819.341	27789
819.481	27732
819.622	27804
819.762	27918
819.903	27964
820.043	27934
820.184	27869
820.324	27720
820.465	27869
820.605	27880
820.746	27610
820.886	27583
821.026	27755
821.167	27774
821.307	27937
821.447	27663
821.588	27507
821.728	27405
821.868	27447
822.008	27119
822.149	27085
822.289	27146
822.429	26872
822.569	26921
822.709	26868
822.849	26667
822.99	26712
823.13	26659
823.27	26511
823.41	26511
823.55	26598
823.69	26560
823.83	26541
823.97	26560
824.11	26328
824.25	26309
824.389	26271
824.529	26530
824.669	26453
824.809	26393
824.949	26457
825.089	26488
825.228	26396
825.368	26126
825.508	26256
825.648	26313
825.787	26290
825.927	26358
826.067	26210
826.206	26161
826.346	26240
826.485	26183
826.625	26313
826.765	26275
826.904	26252
827.044	25993
827.183	26001
827.323	25917
827.462	26122
827.601	25868
827.741	25955
827.88	26058
828.02	25966
828.159	25978
828.298	25822
828.437	25940
828.577	25803
828.716	25944
828.855	25822
828.994	25674
829.134	25613
829.273	25712
829.412	25597
829.551	25689
829.69	25639
829.829	25658
829.968	25655
830.107	25712
830.246	25681
830.385	25529
830.524	25605
830.663	25460
830.802	25430
830.941	25312
831.08	25365
831.219	25396
831.357	25384
831.496	25491
831.635	25304
831.774	25304
831.913	25137
832.051	25072
832.19	24996
832.329	25038
832.467	24966
832.606	25019
832.744	24932
832.883	24848
833.022	24962
833.16	24776
833.299	25023
833.437	25008
833.576	25065
833.714	24958
833.852	24943
833.991	24977
834.129	25050
834.267	25133
834.406	24996
834.544	25084
834.682	24943
834.821	25091
834.959	25206
835.097	24852
835.235	25171
835.373	25164
835.511	25031
835.65	24776
835.788	24909
835.926	24745
836.064	24673
836.202	24738
836.34	24791
836.478	25072
836.615	24833
836.753	24939
836.891	24840
837.029	24913
837.167	24681
837.305	24840
837.443	24783
837.58	24783
837.718	24787
837.856	24684
837.993	24570
838.131	24669
838.269	24494
838.406	24646
838.544	24673
838.681	24380
838.819	24353
838.956	24106
839.094	24022
839.231	24273
839.369	24323
839.506	24608
839.643	24426
839.781	24133
839.918	24060
840.055	24102
840.193	24133
840.33	23980
840.467	24079
840.604	24159
840.742	24342
840.879	23904
841.016	23885
841.153	23973
841.29	24182
841.427	24140
841.564	24076
841.701	24026
841.838	24079
841.975	23942
842.112	24038
842.249	23870
842.385	23809
842.522	24034
842.659	23866
842.796	23767
842.933	23916
843.069	23802
843.206	23786
843.343	23889
843.479	23802
843.616	23832
843.752	23627
843.889	23589
844.025	23843
844.162	23665
844.298	23760
844.435	23638
844.571	23638
844.708	23638
844.844	23779
844.98	23752
845.117	23752
845.253	23524
845.389	23455
845.525	23646
845.661	23501
845.798	23410
845.934	23330
846.07	23212
846.206	23364
846.342	23364
846.478	23368
846.614	23212
846.75	22949
846.886	23075
847.022	23052
847.158	23086
847.294	23052
847.429	23220
847.565	23056
847.701	23212
847.837	22809
847.972	22824
848.108	22976
848.244	22915
848.379	22630
848.515	22694
848.65	22706
848.786	22797
848.921	22706
849.057	22824
849.192	22634
849.328	22736
849.463	22569
849.598	22596
849.734	22588
849.869	22618
850.004	22402
850.14	22443
850.275	22523
850.41	22314
850.545	22363
850.68	22443
850.815	22455
850.95	22405
851.085	22679
851.22	22557
851.355	22466
851.49	22474
851.625	22295
851.76	22497
851.895	22333
852.03	22398
852.165	22371
852.299	22500
852.434	22538
852.569	22512
852.703	22455
852.838	22466
852.973	22554
853.107	22584
853.242	22371
853.376	22421
853.511	22246
853.645	22124
853.78	22360
853.914	22280
854.048	22074
854.183	22192
854.317	22303
854.451	22360
854.585	22265
854.72	22246
854.854	22219
854.988	22181
855.122	22257
855.256	22204
855.39	22226
855.524	22276
855.658	22196
855.792	22367
855.926	22230
856.06	22352
856.194	22394
856.327	22200
856.461	22181
856.595	22169
856.729	22246
856.862	22295
856.996	22341
857.13	22421
857.263	22329
857.397	22367
857.53	22253
857.664	22272
857.797	22268
857.931	22344
858.064	22188
858.197	22280
858.331	22276
858.464	22173
858.597	22150
858.731	22200
858.864	22234
858.997	22131
859.13	22314
859.263	22261
859.396	22261
859.529	22226
859.662	22261
859.795	22261
859.928	22329
860.061	22402
860.194	22341
860.327	22306
860.46	22284
860.592	22238
860.725	22367
860.858	22447
860.99	22223
861.123	22154
861.256	22135
861.388	22344
861.521	23060
861.653	22048
861.786	21983
861.918	22010
862.05	22090
862.183	22101
862.315	22059
862.447	22272
862.58	22200
862.712	21888
862.844	21930
862.976	22032
863.108	22029
863.24	22318
863.372	21804
863.504	21972
863.636	21800
863.768	22036
863.9	21949
864.032	21816
864.164	21865
864.296	21846
864.428	21983
864.559	21964
864.691	22032
864.823	22002
864.954	21987
865.086	22002
865.217	21854
865.349	21846
865.48	21770
865.612	21800
865.743	21972
865.875	21854
866.006	21808
866.137	21812
866.269	21816
866.4	21781
866.531	21747
866.662	21732
866.793	21644
866.924	21682
867.055	21846
867.186	21736
867.317	21694
867.448	21591
867.579	21690
867.71	21682
867.841	21667
867.972	21797
868.103	21698
868.233	21838
868.364	21770
868.495	21857
868.625	22044
868.756	22131
868.886	21956
869.017	21983
869.147	22162
869.278	22082
869.408	22029
869.539	21937
869.669	22135
869.799	21930
869.929	22120
870.06	22105
870.19	22291
870.32	22185
870.45	22276
870.58	22306
870.71	22409
870.84	22493
870.97	22367
871.1	22333
871.23	22554
871.36	22455
871.489	22474
871.619	22443
871.749	22607
871.879	22668
872.008	22786
872.138	22599
872.267	22481
872.397	22379
872.526	22459
872.656	22432
872.785	22451
872.915	22542
873.044	22592
873.173	22645
873.303	22634
873.432	22782
873.561	22767
873.69	22592
873.819	22599
873.948	22611
874.077	22588
874.206	22531
874.335	22653
874.464	22736
874.593	22771
874.722	22748
874.851	22938
874.979	22835
875.108	22923
875.237	22717
875.365	22793
875.494	22774
875.623	22942
875.751	22752
875.88	22938
876.008	22854
876.136	23052
876.265	23254
876.393	23284
876.521	23288
876.65	23124
876.778	23284
876.906	23216
877.034	23044
877.162	23159
877.29	23048
877.418	23170
877.546	23254
877.674	23136
877.802	23075
877.93	23242
878.058	23102
878.185	23060
878.313	23079
878.441	23136
878.568	23056
878.696	23014
878.824	23220
878.951	23242
879.079	23315
879.206	23444
879.333	23349
879.461	23117
879.588	23197
879.715	23277
879.842	23444
879.97	23239
880.097	22965
880.224	22877
880.351	22892
880.478	23006
880.605	22843
880.732	22869
880.859	23159
880.986	23010
881.112	23109
881.239	22774
881.366	22805
881.493	22569
881.619	22554
881.746	22588
881.872	22584
881.999	22550
882.125	22481
882.252	22561
882.378	22565
882.505	22679
882.631	22459
882.757	22181
882.883	22295
883.01	22177
883.136	22234
883.262	22135
883.388	21979
883.514	22116
883.64	22306
883.766	22185
883.892	21945
884.018	22070
884.143	22207
884.269	22109
884.395	21846
884.52	21846
884.646	21876
884.772	21873
884.897	21709
885.023	21861
885.148	21975
885.274	21888
885.399	22002
885.524	21884
885.65	21717
885.775	21884
885.9	21838
886.025	22067
886.15	21983
886.275	21808
886.4	21717
886.525	21865
886.65	21690
886.775	21759
886.9	21968
887.025	22070
887.149	21873
887.274	21720
887.399	21656
887.523	21591
887.648	21603
887.773	21454
887.897	21652
888.021	21739
888.146	21625
888.27	21625
888.395	21724
888.519	21629
888.643	21549
888.767	21667
888.891	21614
889.015	21317
889.139	21583
889.263	21321
889.387	21572
889.511	21523
889.635	21534
889.759	21435
889.883	21329
890.006	21348
890.13	21542
890.254	21218
890.377	21283
890.501	21157
890.624	21096
890.748	21180
890.871	21100
890.995	21001
891.118	21089
891.241	20975
891.364	20975
891.488	21009
891.611	20971
891.734	21005
891.857	21127
891.98	21017
892.103	20960
892.226	20872
892.349	20967
892.471	20621
892.594	20834
892.717	20868
892.839	20804
892.962	20944
893.085	20838
893.207	20830
893.33	20796
893.452	20754
893.575	20876
893.697	20857
893.819	21047
893.941	21001
894.064	20914
894.186	20773
894.308	20804
894.43	20872
894.552	21020
894.674	20933
894.796	20788
894.918	20746
895.04	20811
895.161	20861
895.283	20853
895.405	20880
895.526	20842
895.648	20746
895.769	20842
895.891	20868
896.012	20811
896.134	20819
896.255	20826
896.376	20796
896.498	20857
896.619	20857
896.74	20796
896.861	20902
896.982	21150
897.103	21264
897.224	21062
897.345	21070
897.466	20921
897.587	20963
897.708	21146
897.828	20963
897.949	20899
898.07	20724
898.19	20880
898.311	21085
898.431	20937
898.552	20929
898.672	21127
898.792	21062
898.913	21138
899.033	20925
899.153	20708
899.273	20823
899.393	20697
899.513	20743
899.633	20727
899.753	20819
899.873	20712
899.993	20746
900.113	20640
900.232	20716
900.352	20670
900.472	20621
900.591	20541
900.711	20571
900.83	20381
900.95	20613
901.069	20579
901.189	20431
901.308	20240
901.427	20069
901.546	20111
901.665	20103
901.784	20176
901.904	19875
902.023	19845
902.141	19670
902.26	19601
902.379	19696
902.498	19571
902.617	19559
902.735	19594
902.854	19453
902.973	19502
903.091	19285
903.21	19263
903.328	19339
903.446	19190
903.565	19046
903.683	19088
903.801	18985
903.919	19034
904.038	19015
904.156	19000
904.274	18863
904.392	18795
904.51	18795
904.627	18856
904.745	18817
904.863	18962
904.981	18631
905.098	18494
905.216	18471
905.334	18486
905.451	18441
905.569	18490
905.686	18498
905.803	18475
905.921	18323
906.038	18391
906.155	18338
906.272	18262
906.389	18201
906.506	18072
906.623	18041
906.74	18030
906.857	18022
906.974	17901
907.091	18019
907.208	18148
907.324	18190
907.441	17904
907.557	17783
907.674	17802
907.79	17691
907.907	17710
908.023	17790
908.139	17767
908.256	17714
908.372	17516
908.488	17551
908.604	17497
908.72	17421
908.836	17604
908.952	17433
909.068	17490
909.184	17547
909.3	17448
909.415	17452
909.531	17463
909.647	17204
909.762	17197
909.878	17117
909.993	17250
910.108	17151
910.224	17204
910.339	17117
910.454	17041
910.57	16915
910.685	16889
910.8	17223
910.915	17166
911.03	17083
911.145	16911
911.259	16778
911.374	16767
911.489	16725
911.604	16622
911.718	16611
911.833	16535
911.947	16344
912.062	16356
912.176	16497
912.291	16478
912.405	16417
912.519	16588
912.633	16580
912.748	16451
912.862	16436
912.976	16436
913.09	16192
913.204	16284
913.318	16363
913.431	16459
913.545	16363
913.659	16413
913.772	16280
913.886	16230
914	16207
914.113	16158
914.226	16226
914.34	16166
914.453	16017
914.566	16207
914.68	15968
914.793	15861
914.906	15865
915.019	15648
915.132	15618
915.245	15648
915.358	15694
915.47	15747
915.583	15736
915.696	15671
915.809	15717
915.921	15728
916.034	15599
916.146	15584
916.259	15492
916.371	15682
916.483	15595
916.595	15576
916.708	15515
916.82	15538
916.932	15477
917.044	15462
917.156	15420
917.268	15344
917.38	15363
917.491	15275
917.603	15272
917.715	15393
917.826	15340
917.938	15199
918.049	15161
918.161	15226
918.272	15397
918.384	15351
918.495	15211
918.606	15100
918.717	14979
918.828	15047
918.939	15058
919.05	14979
919.161	15112
919.272	14998
919.383	14929
919.494	15093
919.604	15203
919.715	14990
919.826	15043
919.936	14986
920.047	14967
920.157	15112
920.267	15207
920.378	15062
920.488	15005
920.598	15169
920.708	15237
920.818	15135
920.928	15119
921.038	15317
921.148	15207
921.258	14963
921.368	14739
921.477	14796
921.587	14739
921.697	14659
921.806	14674
921.916	14632
922.025	14415
922.134	14431
922.244	14271
922.353	14377
922.462	14202
922.571	14229
922.68	14130
922.789	13963
922.898	14027
923.007	13955
923.116	14046
923.224	14043
923.333	13974
923.442	13940
923.55	13902
923.659	13864
923.767	13898
923.876	13833
923.984	13879
924.092	13765
924.201	13700
924.309	13708
924.417	13776
924.525	13727
924.633	13700
924.741	14579
924.849	13400
924.956	13582
925.064	13480
925.172	13365
925.279	13407
925.387	13552
925.494	13400
925.602	13605
925.709	13468
925.816	13285
925.924	13373
926.031	13434
926.138	13301
926.245	13263
926.352	13175
926.459	13358
926.566	13514
926.673	13247
926.779	13076
926.886	13129
926.993	13027
927.099	13057
927.206	12837
927.312	12871
927.419	12954
927.525	12973
927.631	12985
927.737	12981
927.843	12897
927.95	12806
928.056	12703
928.162	12772
928.267	12859
928.373	13381
928.479	12913
928.585	12601
928.69	12684
928.796	12791
928.901	12604
929.007	12467
929.112	12669
929.218	12642
929.323	12467
929.428	12410
929.533	12608
929.638	12517
929.743	12471
929.848	12467
929.953	12418
930.058	12350
930.163	12152
930.267	12148
930.372	12330
930.477	12186
930.581	12376
930.685	12175
930.79	12003
930.894	12076
930.998	12003
931.103	12205
931.207	11809
931.311	11718
931.415	11627
931.519	11486
931.623	11376
