Data from test_V78500241_1452.txt Node
Date: Fri Mar 25 15:19:58 CST 2022
User: usil
Spectrometer: V785-0024
Trigger mode: 0
Integration Time (sec): 4.000000E-1
Scans to average: 1
Nonlinearity correction enabled: false
Boxcar width: 0
Storing dark spectrum: false
XAxis mode: Wavelengths
Number of Pixels in Spectrum: 1024
>>>>>Begin Spectral Data<<<<<
801.071	28093
801.214	28177
801.356	27918
801.499	27903
801.641	27701
801.783	27682
801.926	27755
802.068	27831
802.211	27724
802.353	27473
802.496	27515
802.638	27359
802.78	27344
802.923	27283
803.065	27256
803.208	27275
803.35	27378
803.492	27496
803.635	27591
803.777	27519
803.919	27549
804.061	27888
804.204	27728
804.346	27564
804.488	27542
804.63	27481
804.773	27614
804.915	27660
805.057	27675
805.199	27523
805.341	27709
805.483	27911
805.626	27781
805.768	27633
805.91	27766
806.052	27762
806.194	27751
806.336	28013
806.478	27854
806.62	27827
806.762	27941
806.904	28131
807.046	28234
807.188	28291
807.33	28265
807.472	28226
807.614	28128
807.756	28200
807.898	28078
808.04	28154
808.182	28051
808.324	28188
808.465	28082
808.607	28253
808.749	28409
808.891	28481
809.033	28653
809.174	28428
809.316	28489
809.458	28390
809.6	28455
809.741	28561
809.883	28508
810.025	28618
810.166	28744
810.308	28721
810.45	28767
810.591	28569
810.733	28531
810.875	28478
811.016	28318
811.158	28382
811.299	28535
811.441	28500
811.582	28573
811.724	28466
811.865	28428
812.007	28493
812.148	28481
812.29	28493
812.431	28554
812.573	28820
812.714	28744
812.855	28930
812.997	28995
813.138	29090
813.279	29185
813.421	29014
813.562	28888
813.703	28816
813.845	28679
813.986	28428
814.127	28147
814.268	28143
814.41	28211
814.551	28067
814.692	28261
814.833	28078
814.974	28048
815.115	28234
815.256	28013
815.397	28086
815.539	28101
815.68	27918
815.821	27838
815.962	27873
816.103	27899
816.244	27873
816.385	27709
816.526	27682
816.666	27485
816.807	27511
816.948	27496
817.089	27580
817.23	27378
817.371	27485
817.512	27595
817.653	27500
817.793	27466
817.934	27401
818.075	27515
818.216	27416
818.356	27492
818.497	27283
818.638	27188
818.778	27192
818.919	27169
819.06	27340
819.2	27302
819.341	27439
819.481	27405
819.622	27473
819.762	27759
819.903	27701
820.043	27583
820.184	27599
820.324	27568
820.465	27576
820.605	27591
820.746	27462
820.886	27485
821.026	27500
821.167	27374
821.307	27542
821.447	27306
821.588	27279
821.728	27199
821.868	26982
822.008	26994
822.149	26956
822.289	26940
822.429	26785
822.569	26613
822.709	26571
822.849	26362
822.99	26434
823.13	26419
823.27	26328
823.41	26275
823.55	26210
823.69	26282
823.83	26172
823.97	26176
824.11	25997
824.25	25989
824.389	25890
824.529	26187
824.669	26107
824.809	26069
824.949	26259
825.089	26142
825.228	26199
825.368	25879
825.508	25883
825.648	25883
825.787	25944
825.927	25894
826.067	25928
826.206	25925
826.346	25833
826.485	26054
826.625	25944
826.765	26024
826.904	25966
827.044	25666
827.183	25776
827.323	25567
827.462	25708
827.601	25765
827.741	25658
827.88	25628
828.02	25514
828.159	25609
828.298	25582
828.437	25655
828.577	25620
828.716	25727
828.855	25594
828.994	25327
829.134	25369
829.273	25369
829.412	25327
829.551	25324
829.69	25343
829.829	25476
829.968	25381
830.107	25415
830.246	25350
830.385	25282
830.524	25129
830.663	25141
830.802	25046
830.941	25042
831.08	24932
831.219	25012
831.357	24989
831.496	25171
831.635	24966
831.774	24722
831.913	24951
832.051	24700
832.19	24646
832.329	24833
832.467	24604
832.606	24563
832.744	24604
832.883	24654
833.022	24441
833.16	24715
833.299	24722
833.437	24547
833.576	24665
833.714	24631
833.852	24817
833.991	24776
834.129	24692
834.267	24612
834.406	24578
834.544	24650
834.682	24760
834.821	24700
834.959	24700
835.097	24517
835.235	24700
835.373	24608
835.511	24593
835.65	24505
835.788	24418
835.926	24372
836.064	24384
836.202	24315
836.34	24563
836.478	24616
836.615	24528
836.753	24486
836.891	24574
837.029	24464
837.167	24498
837.305	24414
837.443	24357
837.58	24410
837.718	24395
837.856	24300
837.993	24350
838.131	24304
838.269	24182
838.406	24201
838.544	24114
838.681	23851
838.819	23969
838.956	23737
839.094	23836
839.231	23832
839.369	23916
839.506	24224
839.643	23923
839.781	23695
839.918	23672
840.055	23775
840.193	23691
840.33	23703
840.467	23722
840.604	23847
840.742	23969
840.879	23558
841.016	23493
841.153	23585
841.29	23745
841.427	23718
841.564	23710
841.701	23649
841.838	23661
841.975	23562
842.112	23741
842.249	23463
842.385	23356
842.522	23665
842.659	23490
842.796	23383
842.933	23353
843.069	23379
843.206	23482
843.343	23429
843.479	23406
843.616	23387
843.752	23159
843.889	23216
844.025	23482
844.162	23117
844.298	23337
844.435	23117
844.571	23204
844.708	23353
844.844	23436
844.98	23425
845.117	23231
845.253	23086
845.389	23086
845.525	23155
845.661	23052
845.798	23022
845.934	22923
846.07	22869
846.206	22965
846.342	23102
846.478	22915
846.614	22744
846.75	22554
846.886	22744
847.022	22801
847.158	22679
847.294	22679
847.429	22793
847.565	22664
847.701	22976
847.837	22417
847.972	22382
848.108	22409
848.244	22382
848.379	22181
848.515	22207
848.65	22211
848.786	22265
848.921	22386
849.057	22417
849.192	22341
849.328	22303
849.463	22314
849.598	22185
849.734	22200
849.869	22154
850.004	22109
850.14	21983
850.275	22116
850.41	21960
850.545	22017
850.68	22048
850.815	22048
850.95	21968
851.085	22143
851.22	22162
851.355	22097
851.49	21949
851.625	22013
851.76	21926
851.895	21937
852.03	21975
852.165	21926
852.299	21960
852.434	22101
852.569	21987
852.703	21949
852.838	22025
852.973	22070
853.107	22070
853.242	22002
853.376	21846
853.511	21808
853.645	21812
853.78	21964
853.914	21808
854.048	21781
854.183	21793
854.317	21884
854.451	21998
854.585	21823
854.72	21778
854.854	21797
854.988	21743
855.122	21861
855.256	21660
855.39	21838
855.524	21888
855.658	21907
855.792	21911
855.926	21895
856.06	21945
856.194	21857
856.327	21857
856.461	21831
856.595	21682
856.729	21759
856.862	21804
856.996	21804
857.13	21975
857.263	21915
857.397	21968
857.53	21762
857.664	21774
857.797	21903
857.931	22078
858.064	21911
858.197	21949
858.331	21953
858.464	21732
858.597	21732
858.731	21857
858.864	21774
858.997	21774
859.13	21774
859.263	21876
859.396	22029
859.529	21865
859.662	21759
859.795	21690
859.928	21747
860.061	21998
860.194	21949
860.327	21972
860.46	21793
860.592	21937
860.725	22010
860.858	21991
860.99	21899
861.123	21766
861.256	21778
861.388	21827
861.521	22325
861.653	21713
861.786	21583
861.918	21694
862.05	21713
862.183	21732
862.315	21812
862.447	21835
862.58	21743
862.712	21553
862.844	21511
862.976	21728
863.108	21614
863.24	21930
863.372	21507
863.504	21557
863.636	21435
863.768	21667
863.9	21583
864.032	21405
864.164	21576
864.296	21553
864.428	21641
864.559	21660
864.691	21690
864.823	21511
864.954	21485
865.086	21591
865.217	21428
865.349	21393
865.48	21587
865.612	21462
865.743	21625
865.875	21443
866.006	21416
866.137	21466
866.269	21340
866.4	21412
866.531	21294
866.662	21291
866.793	21199
866.924	21306
867.055	21424
867.186	21313
867.317	21275
867.448	21241
867.579	21291
867.71	21294
867.841	21192
867.972	21340
868.103	21245
868.233	21294
868.364	21401
868.495	21363
868.625	21534
868.756	21644
868.886	21561
869.017	21500
869.147	21713
869.278	21679
869.408	21618
869.539	21526
869.669	21667
869.799	21610
869.929	21679
870.06	21576
870.19	21915
870.32	21789
870.45	21903
870.58	21983
870.71	21975
870.84	22101
870.97	22021
871.1	22010
871.23	22120
871.36	22173
871.489	22063
871.619	22131
871.749	22090
871.879	22230
872.008	22230
872.138	22147
872.267	22139
872.397	22048
872.526	21972
872.656	22032
872.785	21934
872.915	22238
873.044	22211
873.173	22276
873.303	22173
873.432	22211
873.561	22386
873.69	22219
873.819	22162
873.948	22211
874.077	22173
874.206	22215
874.335	22158
874.464	22253
874.593	22325
874.722	22337
874.851	22367
874.979	22394
875.108	22367
875.237	22306
875.365	22242
875.494	22417
875.623	22485
875.751	22337
875.88	22455
876.008	22546
876.136	22668
876.265	22767
876.393	22839
876.521	22911
876.65	22980
876.778	22755
876.906	22816
877.034	22725
877.162	22809
877.29	22759
877.418	22759
877.546	22755
877.674	22911
877.802	22782
877.93	22748
878.058	22866
878.185	22698
878.313	22687
878.441	22752
878.568	22538
878.696	22717
878.824	22748
878.951	22786
879.079	22881
879.206	23098
879.333	22911
879.461	22755
879.588	22847
879.715	22949
879.842	23025
879.97	22839
880.097	22615
880.224	22455
880.351	22489
880.478	22668
880.605	22470
880.732	22557
880.859	22645
880.986	22607
881.112	22516
881.239	22436
881.366	22306
881.493	22238
881.619	22192
881.746	22188
881.872	22166
881.999	22207
882.125	22150
882.252	22166
882.378	22032
882.505	22249
882.631	22048
882.757	21827
882.883	21793
883.01	21994
883.136	21835
883.262	21568
883.388	21660
883.514	21808
883.64	21854
883.766	21816
883.892	21473
884.018	21606
884.143	21759
884.269	21827
884.395	21496
884.52	21462
884.646	21485
884.772	21477
884.897	21359
885.023	21507
885.148	21534
885.274	21629
885.399	21698
885.524	21439
885.65	21386
885.775	21511
885.9	21488
886.025	21523
886.15	21469
886.275	21485
886.4	21397
886.525	21374
886.65	21420
886.775	21393
886.9	21496
887.025	21614
887.149	21439
887.274	21298
887.399	21374
887.523	21142
887.648	21256
887.773	21093
887.897	21393
888.021	21161
888.146	21157
888.27	21268
888.395	21222
888.519	21351
888.643	21321
888.767	21192
888.891	21218
889.015	21039
889.139	21188
889.263	21009
889.387	21165
889.511	21180
889.635	21077
889.759	20887
889.883	20986
890.006	21020
890.13	21066
890.254	20941
890.377	20963
890.501	20720
890.624	20823
890.748	20868
890.871	20716
890.995	20537
891.118	20465
891.241	20670
891.364	20644
891.488	20651
891.611	20575
891.734	20613
891.857	20697
891.98	20552
892.103	20606
892.226	20606
892.349	20568
892.471	20324
892.594	20590
892.717	20476
892.839	20457
892.962	20583
893.085	20594
893.207	20495
893.33	20423
893.452	20339
893.575	20507
893.697	20461
893.819	20701
893.941	20750
894.064	20613
894.186	20507
894.308	20343
894.43	20552
894.552	20674
894.674	20629
894.796	20320
894.918	20488
895.04	20454
895.161	20659
895.283	20442
895.405	20362
895.526	20533
895.648	20526
895.769	20427
895.891	20552
896.012	20587
896.134	20579
896.255	20492
896.376	20480
896.498	20533
896.619	20488
896.74	20431
896.861	20492
896.982	20872
897.103	20899
897.224	20743
897.345	20731
897.466	20629
897.587	20724
897.708	20857
897.828	20739
897.949	20651
898.07	20537
898.19	20663
898.311	20769
898.431	20549
898.552	20655
898.672	20697
898.792	20849
898.913	20701
899.033	20674
899.153	20648
899.273	20389
899.393	20434
899.513	20522
899.633	20450
899.753	20454
899.873	20393
899.993	20511
900.113	20362
900.232	20366
900.352	20248
900.472	20313
900.591	20180
900.711	20206
900.83	20096
900.95	20263
901.069	20298
901.189	20142
901.308	19818
901.427	19681
901.546	19894
901.665	19765
901.784	19845
901.904	19727
902.023	19529
902.141	19365
902.26	19304
902.379	19457
902.498	19251
902.617	19145
902.735	19297
902.854	19270
902.973	19194
903.091	18966
903.21	18958
903.328	19057
903.446	18852
903.565	18764
903.683	18684
903.801	18673
903.919	18661
904.038	18661
904.156	18517
904.274	18551
904.392	18589
904.51	18517
904.627	18517
904.745	18483
904.863	18555
904.981	18448
905.098	18213
905.216	18270
905.334	18228
905.451	18133
905.569	18117
905.686	18152
905.803	18171
905.921	17939
906.038	18106
906.155	18053
906.272	17843
906.389	17931
906.506	17771
906.623	17771
906.74	17824
906.857	17733
906.974	17627
907.091	17851
907.208	17771
907.324	17714
907.441	17657
907.557	17429
907.674	17516
907.79	17395
907.907	17482
908.023	17501
908.139	17391
908.256	17440
908.372	17387
908.488	17292
908.604	17265
908.72	17159
908.836	17223
908.952	17151
909.068	17212
909.184	17212
909.3	17147
909.415	17220
909.531	17098
909.647	17003
909.762	16755
909.878	16915
909.993	16847
910.108	16801
910.224	16820
910.339	16896
910.454	16790
910.57	16679
910.685	16691
910.8	16771
910.915	16854
911.03	16569
911.145	16455
911.259	16512
911.374	16447
911.489	16341
911.604	16352
911.718	16219
911.833	16135
911.947	16082
912.062	16021
912.176	16173
912.291	16185
912.405	16287
912.519	16325
912.633	16329
912.748	16230
912.862	16177
912.976	16025
913.09	15842
913.204	15949
913.318	16032
913.431	16063
913.545	16128
913.659	16154
913.772	15994
913.886	15819
914	15759
914.113	15930
914.226	15934
914.34	15888
914.453	15629
914.566	15831
914.68	15667
914.793	15576
914.906	15500
915.019	15287
915.132	15291
915.245	15370
915.358	15431
915.47	15454
915.583	15466
915.696	15412
915.809	15568
915.921	15526
916.034	15351
916.146	15237
916.259	15268
916.371	15447
916.483	15374
916.595	15287
916.708	15146
916.82	15230
916.932	15081
917.044	15112
917.156	15173
917.268	15005
917.38	15039
917.491	15047
917.603	15024
917.715	15207
917.826	15093
917.938	14990
918.049	14925
918.161	14998
918.272	15058
918.384	15074
918.495	15024
918.606	14807
918.717	14693
918.828	14792
918.939	14823
919.05	14701
919.161	14891
919.272	14511
919.383	14526
919.494	14708
919.604	15024
919.715	14716
919.826	14670
919.936	14716
920.047	14838
920.157	14773
920.267	15032
920.378	14792
920.488	14731
920.598	14918
920.708	15020
920.818	14895
920.928	14921
921.038	15066
921.148	14914
921.258	14632
921.368	14533
921.477	14495
921.587	14503
921.697	14377
921.806	14423
921.916	14225
922.025	14195
922.134	14218
922.244	14119
922.353	14107
922.462	13947
922.571	13928
922.68	13852
922.789	13696
922.898	13746
923.007	13689
923.116	13734
923.224	13818
923.333	13666
923.442	13567
923.55	13567
923.659	13601
923.767	13674
923.876	13529
923.984	13563
924.092	13502
924.201	13529
924.309	13510
924.417	13460
924.525	13445
924.633	13438
924.741	14134
924.849	13266
924.956	13377
925.064	13160
925.172	13095
925.279	13118
925.387	13114
925.494	13133
925.602	13266
925.709	13152
925.816	12951
925.924	13126
926.031	13160
926.138	13149
926.245	13118
926.352	13012
926.459	13065
926.566	13141
926.673	13057
926.779	12867
926.886	12943
926.993	12814
927.099	12760
927.206	12623
927.312	12669
927.419	12779
927.525	12726
927.631	12650
927.737	12578
927.843	12612
927.95	12486
928.056	12551
928.162	12513
928.267	12627
928.373	13053
928.479	12574
928.585	12365
928.69	12570
928.796	12601
928.901	12391
929.007	12369
929.112	12308
929.218	12334
929.323	12315
929.428	12296
929.533	12384
929.638	12175
929.743	12148
929.848	12201
929.953	12239
930.058	12049
930.163	11958
930.267	11950
930.372	11973
930.477	11897
930.581	12015
930.685	12007
930.79	11836
930.894	11893
930.998	11821
931.103	11927
931.207	11539
931.311	11433
931.415	11429
931.519	11242
931.623	11147
