Data from test_V78500241_189.txt Node
Date: Fri Mar 25 15:11:10 CST 2022
User: usil
Spectrometer: V785-0024
Trigger mode: 0
Integration Time (sec): 4.000000E-1
Scans to average: 1
Nonlinearity correction enabled: false
Boxcar width: 0
Storing dark spectrum: false
XAxis mode: Wavelengths
Number of Pixels in Spectrum: 1024
>>>>>Begin Spectral Data<<<<<
801.071	27934
801.214	27949
801.356	27641
801.499	27595
801.641	27332
801.783	27386
801.926	27443
802.068	27389
802.211	27176
802.353	27237
802.496	27070
802.638	27195
802.78	26952
802.923	26982
803.065	26785
803.208	26918
803.35	26982
803.492	27169
803.635	27074
803.777	27028
803.919	27249
804.061	27458
804.204	27138
804.346	27070
804.488	27062
804.63	27104
804.773	26891
804.915	27112
805.057	27306
805.199	27131
805.341	27036
805.483	27207
805.626	27085
805.768	27074
805.91	27291
806.052	27222
806.194	27100
806.336	27306
806.478	27028
806.62	27058
806.762	27336
806.904	27462
807.046	27724
807.188	27401
807.33	27675
807.472	27671
807.614	27454
807.756	27507
807.898	27329
808.04	27370
808.182	27389
808.324	27500
808.465	27363
808.607	27637
808.749	27835
808.891	27812
809.033	27819
809.174	27759
809.316	27743
809.458	27545
809.6	27789
809.741	27804
809.883	27926
810.025	27968
810.166	27873
810.308	28044
810.45	27987
810.591	27781
810.733	27698
810.875	27717
811.016	27701
811.158	27545
811.299	27682
811.441	27736
811.582	27701
811.724	27690
811.865	27614
812.007	27732
812.148	27618
812.29	27690
812.431	27785
812.573	28029
812.714	28048
812.855	28246
812.997	28147
813.138	28360
813.279	28325
813.421	28280
813.562	28070
813.703	27987
813.845	27998
813.986	27450
814.127	27370
814.268	27260
814.41	27359
814.551	27222
814.692	27408
814.833	27195
814.974	27306
815.115	27116
815.256	27100
815.397	27135
815.539	27135
815.68	26963
815.821	27051
815.962	27043
816.103	27112
816.244	26891
816.385	26724
816.526	26792
816.666	26644
816.807	26564
816.948	26545
817.089	26648
817.23	26575
817.371	26461
817.512	26484
817.653	26434
817.793	26438
817.934	26537
818.075	26438
818.216	26522
818.356	26412
818.497	26294
818.638	26195
818.778	26157
818.919	26218
819.06	26320
819.2	26450
819.341	26412
819.481	26267
819.622	26526
819.762	26651
819.903	26777
820.043	26594
820.184	26670
820.324	26453
820.465	26568
820.605	26701
820.746	26537
820.886	26453
821.026	26514
821.167	26431
821.307	26442
821.447	26370
821.588	26362
821.728	26180
821.868	26020
822.008	25780
822.149	25894
822.289	25868
822.429	25681
822.569	25518
822.709	25479
822.849	25392
822.99	25441
823.13	25228
823.27	25278
823.41	25122
823.55	24992
823.69	25156
823.83	25004
823.97	25095
824.11	24939
824.25	24886
824.389	24970
824.529	24951
824.669	24947
824.809	25099
824.949	24989
825.089	24954
825.228	24935
825.368	24753
825.508	24738
825.648	24829
825.787	24798
825.927	24844
826.067	24722
826.206	24700
826.346	24920
826.485	24741
826.625	24749
826.765	24844
826.904	24745
827.044	24464
827.183	24483
827.323	24498
827.462	24563
827.601	24422
827.741	24407
827.88	24460
828.02	24277
828.159	24380
828.298	24483
828.437	24467
828.577	24273
828.716	24414
828.855	24338
828.994	24114
829.134	24106
829.273	24235
829.412	24117
829.551	24076
829.69	24102
829.829	24144
829.968	24220
830.107	24159
830.246	24117
830.385	24117
830.524	23980
830.663	23988
830.802	23786
830.941	23623
831.08	23710
831.219	23748
831.357	23767
831.496	23741
831.635	23668
831.774	23653
831.913	23726
832.051	23490
832.19	23501
832.329	23608
832.467	23440
832.606	23307
832.744	23391
832.883	23288
833.022	23220
833.16	23280
833.299	23471
833.437	23315
833.576	23414
833.714	23387
833.852	23516
833.991	23364
834.129	23490
834.267	23448
834.406	23486
834.544	23501
834.682	23383
834.821	23326
834.959	23440
835.097	23326
835.235	23303
835.373	23280
835.511	23223
835.65	23231
835.788	23048
835.926	23128
836.064	22957
836.202	23003
836.34	23185
836.478	23227
836.615	23227
836.753	23170
836.891	23265
837.029	23258
837.167	23113
837.305	23037
837.443	23064
837.58	22927
837.718	23185
837.856	23033
837.993	22972
838.131	22953
838.269	22824
838.406	22953
838.544	22839
838.681	22679
838.819	22733
838.956	22443
839.094	22447
839.231	22603
839.369	22748
839.506	22900
839.643	22653
839.781	22462
839.918	22421
840.055	22592
840.193	22382
840.33	22394
840.467	22310
840.604	22367
840.742	22679
840.879	22284
841.016	22360
841.153	22310
841.29	22390
841.427	22489
841.564	22344
841.701	22295
841.838	22318
841.975	22386
842.112	22276
842.249	22230
842.385	22059
842.522	22333
842.659	22246
842.796	22154
842.933	22093
843.069	22021
843.206	22032
843.343	22135
843.479	22135
843.616	22139
843.752	21850
843.889	21953
844.025	22101
844.162	21865
844.298	21968
844.435	21835
844.571	21854
844.708	21941
844.844	21987
844.98	22006
845.117	21956
845.253	21656
845.389	21610
845.525	21652
845.661	21793
845.798	21717
845.934	21591
846.07	21538
846.206	21648
846.342	21682
846.478	21599
846.614	21424
846.75	21329
846.886	21279
847.022	21439
847.158	21374
847.294	21405
847.429	21306
847.565	21355
847.701	21603
847.837	21096
847.972	21100
848.108	21108
848.244	21108
848.379	21055
848.515	20960
848.65	20819
848.786	20902
848.921	20914
849.057	20998
849.192	21028
849.328	20925
849.463	20887
849.598	20872
849.734	20788
849.869	20705
850.004	20625
850.14	20613
850.275	20682
850.41	20533
850.545	20579
850.68	20587
850.815	20663
850.95	20587
851.085	20788
851.22	20815
851.355	20678
851.49	20526
851.625	20564
851.76	20537
851.895	20473
852.03	20537
852.165	20663
852.299	20579
852.434	20640
852.569	20701
852.703	20621
852.838	20598
852.973	20792
853.107	20746
853.242	20518
853.376	20408
853.511	20427
853.645	20355
853.78	20492
853.914	20454
854.048	20427
854.183	20385
854.317	20606
854.451	20651
854.585	20400
854.72	20415
854.854	20564
854.988	20320
855.122	20377
855.256	20237
855.39	20362
855.524	20450
855.658	20533
855.792	20408
855.926	20396
856.06	20587
856.194	20598
856.327	20492
856.461	20446
856.595	20294
856.729	20320
856.862	20583
856.996	20415
857.13	20549
857.263	20427
857.397	20560
857.53	20396
857.664	20526
857.797	20465
857.931	20434
858.064	20457
858.197	20476
858.331	20320
858.464	20332
858.597	20385
858.731	20336
858.864	20317
858.997	20328
859.13	20351
859.263	20370
859.396	20514
859.529	20290
859.662	20351
859.795	20343
859.928	20450
860.061	20488
860.194	20598
860.327	20377
860.46	20328
860.592	20419
860.725	20568
860.858	20457
860.99	20442
861.123	20301
861.256	20275
861.388	20446
861.521	21180
861.653	20278
861.786	20176
861.918	20233
862.05	20298
862.183	20347
862.315	20324
862.447	20396
862.58	20400
862.712	20214
862.844	20069
862.976	20313
863.108	20100
863.24	20488
863.372	20027
863.504	20058
863.636	20195
863.768	20081
863.9	19989
864.032	19951
864.164	20012
864.296	20069
864.428	20153
864.559	20138
864.691	20244
864.823	20058
864.954	20130
865.086	20016
865.217	20149
865.349	19997
865.48	20054
865.612	20012
865.743	20096
865.875	20088
866.006	19909
866.137	19921
866.269	19959
866.4	19845
866.531	19978
866.662	19925
866.793	19837
866.924	19909
867.055	19997
867.186	19978
867.317	19909
867.448	19822
867.579	19909
867.71	19826
867.841	19917
867.972	20012
868.103	19837
868.233	20001
868.364	19925
868.495	20012
868.625	20084
868.756	20294
868.886	20138
869.017	20035
869.147	20400
869.278	20385
869.408	20195
869.539	20088
869.669	20282
869.799	20084
869.929	20248
870.06	20275
870.19	20480
870.32	20374
870.45	20442
870.58	20431
870.71	20609
870.84	20727
870.97	20556
871.1	20511
871.23	20674
871.36	20788
871.489	20667
871.619	20670
871.749	20765
871.879	20777
872.008	20792
872.138	20640
872.267	20708
872.397	20617
872.526	20484
872.656	20518
872.785	20583
872.915	20731
873.044	20876
873.173	20762
873.303	20758
873.432	20705
873.561	20758
873.69	20902
873.819	20697
873.948	20781
874.077	20845
874.206	20743
874.335	20727
874.464	20933
874.593	21013
874.722	20914
874.851	20982
874.979	21127
875.108	21089
875.237	21020
875.365	20918
875.494	20941
875.623	21020
875.751	21036
875.88	21093
876.008	21214
876.136	21154
876.265	21389
876.393	21583
876.521	21553
876.65	21534
876.778	21488
876.906	21351
877.034	21291
877.162	21382
877.29	21230
877.418	21386
877.546	21264
877.674	21329
877.802	21294
877.93	21481
878.058	21359
878.185	21302
878.313	21363
878.441	21348
878.568	21157
878.696	21382
878.824	21435
878.951	21435
879.079	21469
879.206	21622
879.333	21466
879.461	21557
879.588	21603
879.715	21618
879.842	21625
879.97	21526
880.097	21260
880.224	21116
880.351	21157
880.478	21260
880.605	21237
880.732	21199
880.859	21336
880.986	21256
881.112	21226
881.239	21207
881.366	20975
881.493	20902
881.619	20872
881.746	20861
881.872	20823
881.999	20743
882.125	20815
882.252	20921
882.378	20804
882.505	20975
882.631	20716
882.757	20636
882.883	20670
883.01	20590
883.136	20518
883.262	20362
883.388	20389
883.514	20594
883.64	20541
883.766	20438
883.892	20358
884.018	20370
884.143	20530
884.269	20609
884.395	20298
884.52	20069
884.646	20278
884.772	20138
884.897	20187
885.023	20157
885.148	20210
885.274	20347
885.399	20374
885.524	20195
885.65	20290
885.775	20244
885.9	20157
886.025	20339
886.15	20218
886.275	20145
886.4	20267
886.525	20062
886.65	20149
886.775	20164
886.9	20400
887.025	20419
887.149	20149
887.274	20035
887.399	20001
887.523	20020
887.648	19902
887.773	19887
887.897	20039
888.021	20092
888.146	19989
888.27	20100
888.395	20050
888.519	20107
888.643	20027
888.767	20008
888.891	19833
889.015	19613
889.139	19864
889.263	19689
889.387	19909
889.511	19860
889.635	19887
889.759	19666
889.883	19674
890.006	19757
890.13	19894
890.254	19628
890.377	19616
890.501	19597
890.624	19426
890.748	19559
890.871	19358
890.995	19388
891.118	19327
891.241	19225
891.364	19263
891.488	19426
891.611	19217
891.734	19449
891.857	19559
891.98	19270
892.103	19396
892.226	19274
892.349	19285
892.471	19156
892.594	19384
892.717	19384
892.839	19297
892.962	19206
893.085	19343
893.207	19301
893.33	19122
893.452	19148
893.575	19304
893.697	19274
893.819	19430
893.941	19388
894.064	19358
894.186	19244
894.308	19164
894.43	19358
894.552	19384
894.674	19445
894.796	19213
894.918	19206
895.04	19251
895.161	19350
895.283	19331
895.405	19103
895.526	19141
895.648	19198
895.769	19179
895.891	19285
896.012	19350
896.134	19365
896.255	19236
896.376	19225
896.498	19278
896.619	19358
896.74	19255
896.861	19392
896.982	19590
897.103	19765
897.224	19578
897.345	19613
897.466	19426
897.587	19525
897.708	19548
897.828	19571
897.949	19392
898.07	19392
898.19	19453
898.311	19521
898.431	19457
898.552	19506
898.672	19457
898.792	19506
898.913	19518
899.033	19422
899.153	19301
899.273	19175
899.393	19308
899.513	19221
899.633	19289
899.753	19202
899.873	19107
899.993	19266
900.113	19190
900.232	19285
900.352	19168
900.472	19088
900.591	18981
900.711	19012
900.83	18996
900.95	19171
901.069	19091
901.189	18954
901.308	18665
901.427	18658
901.546	18654
901.665	18593
901.784	18673
901.904	18395
902.023	18410
902.141	18140
902.26	18178
902.379	18190
902.498	18133
902.617	18110
902.735	18152
902.854	18068
902.973	18015
903.091	17832
903.21	17813
903.328	17813
903.446	17745
903.565	17516
903.683	17718
903.801	17490
903.919	17703
904.038	17615
904.156	17501
904.274	17566
904.392	17379
904.51	17322
904.627	17429
904.745	17402
904.863	17471
904.981	17223
905.098	17010
905.216	17117
905.334	16961
905.451	17025
905.569	17098
905.686	17075
905.803	17064
905.921	16919
906.038	16915
906.155	16805
906.272	16782
906.389	16710
906.506	16641
906.623	16653
906.74	16634
906.857	16481
906.974	16474
907.091	16740
907.208	16717
907.324	16618
907.441	16554
907.557	16409
907.674	16371
907.79	16234
907.907	16322
908.023	16333
908.139	16314
908.256	16287
908.372	16181
908.488	16032
908.604	16166
908.72	16017
908.836	16090
908.952	16051
909.068	16002
909.184	16051
909.3	15998
909.415	16051
909.531	15987
909.647	15808
909.762	15835
909.878	15724
909.993	15739
910.108	15694
910.224	15572
910.339	15766
910.454	15584
910.57	15523
910.685	15500
910.8	15724
910.915	15690
911.03	15492
911.145	15382
911.259	15317
911.374	15294
911.489	15230
911.604	15165
911.718	15085
911.833	14998
911.947	14963
912.062	14876
912.176	15058
912.291	14948
912.405	14971
912.519	15233
912.633	15199
912.748	15005
912.862	15013
912.976	14883
913.09	14853
913.204	14785
913.318	14937
913.431	14971
913.545	14937
913.659	14937
913.772	14826
913.886	14792
914	14716
914.113	14804
914.226	14834
914.34	14674
914.453	14610
914.566	14716
914.68	14575
914.793	14587
914.906	14522
915.019	14328
915.132	14286
915.245	14374
915.358	14339
915.47	14374
915.583	14263
915.696	14511
915.809	14446
915.921	14469
916.034	14210
916.146	14218
916.259	14202
916.371	14324
916.483	14317
916.595	14191
916.708	14206
916.82	14123
916.932	14142
917.044	14168
917.156	14138
917.268	14046
917.38	13963
917.491	13982
917.603	13944
917.715	14161
917.826	14096
917.938	13986
918.049	13841
918.161	13951
918.272	14088
918.384	14115
918.495	14065
918.606	13799
918.717	13681
918.828	13814
918.939	13788
919.05	13689
919.161	13776
919.272	13582
919.383	13719
919.494	13784
919.604	14065
919.715	13780
919.826	13655
919.936	13658
920.047	13776
920.157	13753
920.267	13898
920.378	13769
920.488	13590
920.598	13913
920.708	13997
920.818	13959
920.928	13864
921.038	14020
921.148	13936
921.258	13704
921.368	13586
921.477	13464
921.587	13483
921.697	13392
921.806	13480
921.916	13335
922.025	13202
922.134	13122
922.244	13072
922.353	13046
922.462	12973
922.571	12947
922.68	12817
922.789	12715
922.898	12837
923.007	12760
923.116	12856
923.224	12802
923.333	12749
923.442	12601
923.55	12566
923.659	12616
923.767	12627
923.876	12475
923.984	12604
924.092	12479
924.201	12540
924.309	12559
924.417	12509
924.525	12585
924.633	12433
924.741	13213
924.849	12273
924.956	12456
925.064	12292
925.172	12273
925.279	12167
925.387	12197
925.494	12289
925.602	12330
925.709	12342
925.816	12171
925.924	12235
926.031	12319
926.138	12186
926.245	12289
926.352	12182
926.459	12270
926.566	12232
926.673	12083
926.779	11992
926.886	12053
926.993	11874
927.099	11882
927.206	11760
927.312	11707
927.419	11809
927.525	11783
927.631	11855
927.737	11817
927.843	11688
927.95	11573
928.056	11665
928.162	11642
928.267	11657
928.373	12220
928.479	11805
928.585	11448
928.69	11623
928.796	11729
928.901	11524
929.007	11379
929.112	11551
929.218	11364
929.323	11455
929.428	11414
929.533	11551
929.638	11303
929.743	11376
929.848	11372
929.953	11318
930.058	11212
930.163	11151
930.267	11079
930.372	11231
930.477	10984
930.581	11288
930.685	11162
930.79	10946
930.894	11045
930.998	10961
931.103	11025
931.207	10763
931.311	10664
931.415	10618
931.519	10318
931.623	10432
