Data from test_V78500241_2580.txt Node
Date: Fri Mar 25 15:27:49 CST 2022
User: usil
Spectrometer: V785-0024
Trigger mode: 0
Integration Time (sec): 4.000000E-1
Scans to average: 1
Nonlinearity correction enabled: false
Boxcar width: 0
Storing dark spectrum: false
XAxis mode: Wavelengths
Number of Pixels in Spectrum: 1024
>>>>>Begin Spectral Data<<<<<
801.071	27195
801.214	27157
801.356	26921
801.499	27009
801.641	26933
801.783	26826
801.926	26895
802.068	26857
802.211	26819
802.353	26773
802.496	26629
802.638	26473
802.78	26377
802.923	26465
803.065	26324
803.208	26374
803.35	26381
803.492	26518
803.635	26670
803.777	26617
803.919	26514
804.061	26925
804.204	26724
804.346	26571
804.488	26522
804.63	26492
804.773	26549
804.915	26682
805.057	26727
805.199	26526
805.341	26613
805.483	26754
805.626	26689
805.768	26667
805.91	26587
806.052	26750
806.194	26686
806.336	26769
806.478	26693
806.62	26678
806.762	26762
806.904	26963
807.046	27382
807.188	27131
807.33	27024
807.472	27275
807.614	27093
807.756	27123
807.898	27028
808.04	26921
808.182	26762
808.324	26963
808.465	26975
808.607	27150
808.749	27374
808.891	27477
809.033	27431
809.174	27329
809.316	27370
809.458	27218
809.6	27138
809.741	27336
809.883	27351
810.025	27606
810.166	27701
810.308	27557
810.45	27614
810.591	27367
810.733	27272
810.875	27401
811.016	27142
811.158	27203
811.299	27272
811.441	27534
811.582	27435
811.724	27355
811.865	27287
812.007	27104
812.148	27203
812.29	27222
812.431	27462
812.573	27545
812.714	27660
812.855	27778
812.997	27812
813.138	28082
813.279	27941
813.421	27793
813.562	27770
813.703	27747
813.845	27469
813.986	27283
814.127	27062
814.268	26982
814.41	26956
814.551	26902
814.692	27093
814.833	26956
814.974	26899
815.115	26963
815.256	26819
815.397	26883
815.539	26705
815.68	26750
815.821	26522
815.962	26697
816.103	26811
816.244	26625
816.385	26503
816.526	26575
816.666	26453
816.807	26229
816.948	26309
817.089	26362
817.23	26229
817.371	26145
817.512	26225
817.653	26183
817.793	26119
817.934	26218
818.075	26218
818.216	26305
818.356	26084
818.497	26168
818.638	25936
818.778	25993
818.919	26005
819.06	26065
819.2	26195
819.341	26119
819.481	26237
819.622	26374
819.762	26461
819.903	26484
820.043	26374
820.184	26237
820.324	26290
820.465	26480
820.605	26347
820.746	26301
820.886	26164
821.026	26282
821.167	26187
821.307	26210
821.447	26286
821.588	26126
821.728	26088
821.868	25811
822.008	25761
822.149	25700
822.289	25677
822.429	25381
822.569	25426
822.709	25430
822.849	25152
822.99	25304
823.13	25148
823.27	25156
823.41	25053
823.55	24920
823.69	25137
823.83	25133
823.97	25008
824.11	24741
824.25	24863
824.389	24787
824.529	24954
824.669	24760
824.809	24871
824.949	24962
825.089	24886
825.228	24878
825.368	24745
825.508	24696
825.648	24711
825.787	24738
825.927	24715
826.067	24798
826.206	24642
826.346	24623
826.485	24772
826.625	24597
826.765	24814
826.904	24741
827.044	24563
827.183	24388
827.323	24475
827.462	24517
827.601	24372
827.741	24433
827.88	24456
828.02	24338
828.159	24410
828.298	24475
828.437	24410
828.577	24452
828.716	24475
828.855	24350
828.994	24106
829.134	24159
829.273	24235
829.412	24053
829.551	24091
829.69	24114
829.829	24091
829.968	24262
830.107	24254
830.246	24049
830.385	24216
830.524	24041
830.663	23961
830.802	23817
830.941	23748
831.08	23764
831.219	23923
831.357	23866
831.496	24003
831.635	23767
831.774	23630
831.913	23642
832.051	23570
832.19	23573
832.329	23600
832.467	23448
832.606	23455
832.744	23387
832.883	23356
833.022	23417
833.16	23452
833.299	23471
833.437	23436
833.576	23455
833.714	23558
833.852	23611
833.991	23630
834.129	23535
834.267	23570
834.406	23573
834.544	23573
834.682	23379
834.821	23630
834.959	23722
835.097	23509
835.235	23543
835.373	23429
835.511	23395
835.65	23376
835.788	23402
835.926	23174
836.064	23151
836.202	23174
836.34	23326
836.478	23459
836.615	23265
836.753	23368
836.891	23406
837.029	23349
837.167	23246
837.305	23239
837.443	23212
837.58	23151
837.718	23303
837.856	23265
837.993	23181
838.131	23284
838.269	23044
838.406	23124
838.544	23018
838.681	22953
838.819	22858
838.956	22675
839.094	22691
839.231	22668
839.369	22892
839.506	23109
839.643	22999
839.781	22713
839.918	22645
840.055	22698
840.193	22497
840.33	22573
840.467	22645
840.604	22698
840.742	22896
840.879	22440
841.016	22649
841.153	22664
841.29	22656
841.427	22630
841.564	22542
841.701	22466
841.838	22599
841.975	22405
842.112	22645
842.249	22512
842.385	22504
842.522	22637
842.659	22352
842.796	22466
842.933	22394
843.069	22291
843.206	22287
843.343	22481
843.479	22386
843.616	22352
843.752	22139
843.889	22112
844.025	22337
844.162	22185
844.298	22265
844.435	22051
844.571	22067
844.708	22234
844.844	22257
844.98	22086
845.117	22219
845.253	22143
845.389	22025
845.525	21903
845.661	22025
845.798	21880
845.934	21968
846.07	21922
846.206	21739
846.342	21926
846.478	21880
846.614	21800
846.75	21519
846.886	21530
847.022	21633
847.158	21583
847.294	21599
847.429	21622
847.565	21526
847.701	21808
847.837	21378
847.972	21264
848.108	21389
848.244	21367
848.379	21237
848.515	21195
848.65	21108
848.786	21249
848.921	21298
849.057	21317
849.192	21321
849.328	21260
849.463	21241
849.598	21237
849.734	21108
849.869	21017
850.004	20864
850.14	20944
850.275	20956
850.41	20956
850.545	20845
850.68	20891
850.815	21077
850.95	20963
851.085	21066
851.22	21135
851.355	21020
851.49	20956
851.625	20956
851.76	21112
851.895	20929
852.03	20906
852.165	21043
852.299	20990
852.434	21108
852.569	20902
852.703	20982
852.838	21013
852.973	21032
853.107	21036
853.242	20845
853.376	20883
853.511	20800
853.645	20648
853.78	20925
853.914	20792
854.048	20765
854.183	20765
854.317	20781
854.451	21055
854.585	20823
854.72	20819
854.854	20929
854.988	20815
855.122	20914
855.256	20758
855.39	20788
855.524	20819
855.658	20880
855.792	20769
855.926	20876
856.06	20792
856.194	20918
856.327	20815
856.461	20731
856.595	20708
856.729	20731
856.862	20887
856.996	20746
857.13	20804
857.263	20948
857.397	20929
857.53	20716
857.664	20765
857.797	20933
857.931	20785
858.064	20769
858.197	20849
858.331	20872
858.464	20720
858.597	20571
858.731	20792
858.864	20792
858.997	20781
859.13	20887
859.263	20861
859.396	20754
859.529	20792
859.662	20682
859.795	20731
859.928	20804
860.061	20921
860.194	20952
860.327	20902
860.46	20826
860.592	20982
860.725	20842
860.858	20845
860.99	20823
861.123	20644
861.256	20705
861.388	20853
861.521	21485
861.653	20598
861.786	20571
861.918	20708
862.05	20686
862.183	20697
862.315	20838
862.447	20724
862.58	20735
862.712	20484
862.844	20465
862.976	20625
863.108	20663
863.24	20956
863.372	20545
863.504	20473
863.636	20625
863.768	20629
863.9	20659
864.032	20434
864.164	20457
864.296	20568
864.428	20590
864.559	20450
864.691	20507
864.823	20644
864.954	20530
865.086	20427
865.217	20484
865.349	20362
865.48	20492
865.612	20438
865.743	20469
865.875	20408
866.006	20336
866.137	20347
866.269	20537
866.4	20530
866.531	20336
866.662	20332
866.793	20294
866.924	20377
867.055	20248
867.186	20499
867.317	20294
867.448	20267
867.579	20366
867.71	20347
867.841	20358
867.972	20286
868.103	20301
868.233	20183
868.364	20301
868.495	20423
868.625	20465
868.756	20617
868.886	20625
869.017	20640
869.147	20632
869.278	20735
869.408	20697
869.539	20689
869.669	20625
869.799	20708
869.929	20800
870.06	20667
870.19	20921
870.32	20857
870.45	20967
870.58	21009
870.71	21211
870.84	21096
870.97	20941
871.1	21123
871.23	21192
871.36	21237
871.489	21142
871.619	21207
871.749	21131
871.879	21283
872.008	21218
872.138	21226
872.267	21279
872.397	21157
872.526	21058
872.656	21085
872.785	21005
872.915	21306
873.044	21256
873.173	21222
873.303	21252
873.432	21302
873.561	21287
873.69	21218
873.819	21310
873.948	21389
874.077	21199
874.206	21032
874.335	21218
874.464	21317
874.593	21511
874.722	21428
874.851	21568
874.979	21435
875.108	21462
875.237	21447
875.365	21466
875.494	21542
875.623	21386
875.751	21450
875.88	21405
876.008	21637
876.136	21648
876.265	21816
876.393	22055
876.521	21983
876.65	21907
876.778	21827
876.906	21888
877.034	21797
877.162	21774
877.29	21694
877.418	21937
877.546	21759
877.674	21816
877.802	21770
877.93	21857
878.058	21755
878.185	21644
878.313	21610
878.441	21838
878.568	21561
878.696	21732
878.824	21766
878.951	21842
879.079	22078
879.206	22070
879.333	22017
879.461	21835
879.588	21972
879.715	21975
879.842	22048
879.97	21926
880.097	21717
880.224	21717
880.351	21671
880.478	21648
880.605	21553
880.732	21542
880.859	21892
880.986	21724
881.112	21526
881.239	21507
881.366	21443
881.493	21443
881.619	21192
881.746	21268
881.872	21218
881.999	21245
882.125	21070
882.252	21233
882.378	21249
882.505	21329
882.631	21085
882.757	20815
882.883	21089
883.01	21024
883.136	20975
883.262	20781
883.388	20720
883.514	20899
883.64	21009
883.766	20876
883.892	20621
884.018	20613
884.143	20918
884.269	20990
884.395	20499
884.52	20693
884.646	20644
884.772	20613
884.897	20552
885.023	20575
885.148	20606
885.274	20754
885.399	20701
885.524	20587
885.65	20598
885.775	20640
885.9	20587
886.025	20617
886.15	20564
886.275	20552
886.4	20537
886.525	20465
886.65	20446
886.775	20362
886.9	20636
887.025	20788
887.149	20522
887.274	20358
887.399	20290
887.523	20408
887.648	20210
887.773	20347
887.897	20461
888.021	20301
888.146	20294
888.27	20408
888.395	20442
888.519	20305
888.643	20317
888.767	20457
888.891	20233
889.015	20103
889.139	20301
889.263	20153
889.387	20252
889.511	20309
889.635	20176
889.759	20191
889.883	20073
890.006	20062
890.13	20244
890.254	20176
890.377	20050
890.501	19921
890.624	19887
890.748	19925
890.871	19761
890.995	19765
891.118	19658
891.241	19807
891.364	19750
891.488	19887
891.611	19811
891.734	19780
891.857	19818
891.98	19715
892.103	19693
892.226	19712
892.349	19704
892.471	19521
892.594	19567
892.717	19719
892.839	19700
892.962	19689
893.085	19674
893.207	19670
893.33	19521
893.452	19540
893.575	19761
893.697	19700
893.819	19875
893.941	19784
894.064	19772
894.186	19689
894.308	19502
894.43	19662
894.552	19704
894.674	19795
894.796	19487
894.918	19601
895.04	19567
895.161	19696
895.283	19791
895.405	19571
895.526	19590
895.648	19655
895.769	19731
895.891	19658
896.012	19704
896.134	19746
896.255	19670
896.376	19525
896.498	19670
896.619	19651
896.74	19578
896.861	19681
896.982	19997
897.103	20111
897.224	19852
897.345	19788
897.466	19871
897.587	19898
897.708	19944
897.828	19894
897.949	19788
898.07	19712
898.19	19860
898.311	19837
898.431	19814
898.552	19898
898.672	19841
898.792	19955
898.913	19845
899.033	19784
899.153	19594
899.273	19624
899.393	19632
899.513	19700
899.633	19681
899.753	19620
899.873	19548
899.993	19677
900.113	19457
900.232	19666
900.352	19632
900.472	19407
900.591	19472
900.711	19392
900.83	19320
900.95	19533
901.069	19445
901.189	19236
901.308	19148
901.427	18993
901.546	19000
901.665	19042
901.784	19015
901.904	18837
902.023	18776
902.141	18589
902.26	18498
902.379	18528
902.498	18513
902.617	18445
902.735	18547
902.854	18483
902.973	18448
903.091	18285
903.21	18197
903.328	18110
903.446	18129
903.565	18072
903.683	17954
903.801	17824
903.919	17889
904.038	17855
904.156	17760
904.274	17866
904.392	17802
904.51	17649
904.627	17843
904.745	17779
904.863	17786
904.981	17589
905.098	17520
905.216	17467
905.334	17402
905.451	17414
905.569	17395
905.686	17474
905.803	17417
905.921	17269
906.038	17376
906.155	17208
906.272	17117
906.389	17185
906.506	17041
906.623	17109
906.74	17022
906.857	16843
906.974	16885
907.091	17143
907.208	17159
907.324	17132
907.441	16854
907.557	16740
907.674	16782
907.79	16660
907.907	16698
908.023	16721
908.139	16698
908.256	16706
908.372	16634
908.488	16565
908.604	16516
908.72	16462
908.836	16470
908.952	16398
909.068	16413
909.184	16535
909.3	16440
909.415	16413
909.531	16447
909.647	16200
909.762	16284
909.878	16188
909.993	16169
910.108	16207
910.224	16067
910.339	16078
910.454	15956
910.57	16006
910.685	15926
910.8	16219
910.915	16158
911.03	15941
911.145	15949
911.259	15793
911.374	15819
911.489	15705
911.604	15637
911.718	15542
911.833	15549
911.947	15450
912.062	15374
912.176	15553
912.291	15644
912.405	15629
912.519	15759
912.633	15728
912.748	15701
912.862	15557
912.976	15336
913.09	15264
913.204	15245
913.318	15332
913.431	15466
913.545	15336
913.659	15492
913.772	15336
913.886	15192
914	15176
914.113	15188
914.226	15363
914.34	15233
914.453	15036
914.566	15222
914.68	15093
914.793	15005
914.906	14815
915.019	14773
915.132	14655
915.245	14743
915.358	14705
915.47	14697
915.583	14762
915.696	14868
915.809	14857
915.921	14937
916.034	14716
916.146	14693
916.259	14670
916.371	14746
916.483	14727
916.595	14594
916.708	14674
916.82	14632
916.932	14594
917.044	14495
917.156	14556
917.268	14530
917.38	14438
917.491	14419
917.603	14469
917.715	14499
917.826	14511
917.938	14415
918.049	14233
918.161	14355
918.272	14415
918.384	14465
918.495	14355
918.606	14282
918.717	14172
918.828	14237
918.939	14229
919.05	14145
919.161	14244
919.272	14001
919.383	14054
919.494	14130
919.604	14374
919.715	14050
919.826	14199
919.936	14096
920.047	14259
920.157	14256
920.267	14294
920.378	14138
920.488	14164
920.598	14374
920.708	14377
920.818	14259
920.928	14351
921.038	14374
921.148	14465
921.258	14145
921.368	13997
921.477	13932
921.587	13928
921.697	13788
921.806	13879
921.916	13871
922.025	13738
922.134	13624
922.244	13525
922.353	13609
922.462	13472
922.571	13407
922.68	13259
922.789	13114
922.898	13183
923.007	13133
923.116	13266
923.224	13240
923.333	13164
923.442	13050
923.55	12928
923.659	13057
923.767	13190
923.876	12951
923.984	13141
924.092	12916
924.201	12996
924.309	12837
924.417	12924
924.525	12913
924.633	12852
924.741	13875
924.849	12738
924.956	12867
925.064	12669
925.172	12593
925.279	12642
925.387	12707
925.494	12627
925.602	12844
925.709	12646
925.816	12601
925.924	12570
926.031	12787
926.138	12612
926.245	12677
926.352	12490
926.459	12612
926.566	12627
926.673	12555
926.779	12391
926.886	12319
926.993	12251
927.099	12220
927.206	12159
927.312	12197
927.419	12243
927.525	12175
927.631	12304
927.737	12155
927.843	12136
927.95	11942
928.056	12076
928.162	12140
928.267	12068
928.373	12612
928.479	12129
928.585	11923
928.69	12011
928.796	12083
928.901	11904
929.007	11843
929.112	11885
929.218	11870
929.323	11809
929.428	11893
929.533	11916
929.638	11726
929.743	11786
929.848	11832
929.953	11657
930.058	11676
930.163	11410
930.267	11440
930.372	11661
930.477	11417
930.581	11756
930.685	11497
930.79	11337
930.894	11391
930.998	11330
931.103	11455
931.207	11151
931.311	11048
931.415	10904
931.519	10782
931.623	10740
