Data from test_V78500241_1775.txt Node
Date: Fri Mar 25 15:22:12 CST 2022
User: usil
Spectrometer: V785-0024
Trigger mode: 0
Integration Time (sec): 4.000000E-1
Scans to average: 1
Nonlinearity correction enabled: false
Boxcar width: 0
Storing dark spectrum: false
XAxis mode: Wavelengths
Number of Pixels in Spectrum: 1024
>>>>>Begin Spectral Data<<<<<
801.071	27945
801.214	27770
801.356	27488
801.499	27671
801.641	27523
801.783	27393
801.926	27561
802.068	27424
802.211	27370
802.353	27249
802.496	27192
802.638	27188
802.78	27188
802.923	27188
803.065	27127
803.208	27051
803.35	27135
803.492	27275
803.635	27382
803.777	27180
803.919	27420
804.061	27564
804.204	27405
804.346	27306
804.488	27268
804.63	27420
804.773	27188
804.915	27553
805.057	27519
805.199	27298
805.341	27511
805.483	27530
805.626	27485
805.768	27348
805.91	27481
806.052	27564
806.194	27363
806.336	27587
806.478	27439
806.62	27370
806.762	27720
806.904	27538
807.046	27979
807.188	28006
807.33	27903
807.472	28013
807.614	27785
807.756	27743
807.898	27857
808.04	27682
808.182	27800
808.324	27652
808.465	27812
808.607	28090
808.749	27968
808.891	28074
809.033	28192
809.174	28173
809.316	28128
809.458	28215
809.6	28143
809.741	28249
809.883	28192
810.025	28394
810.166	28325
810.308	28424
810.45	28318
810.591	28421
810.733	28154
810.875	28154
811.016	28059
811.158	27964
811.299	28120
811.441	28303
811.582	28162
811.724	28097
811.865	27991
812.007	28032
812.148	28090
812.29	28067
812.431	28363
812.573	28428
812.714	28622
812.855	28622
812.997	28729
813.138	28801
813.279	28752
813.421	28683
813.562	28561
813.703	28447
813.845	28272
813.986	28112
814.127	27892
814.268	27774
814.41	27876
814.551	27797
814.692	27865
814.833	27705
814.974	27789
815.115	27816
815.256	27739
815.397	27686
815.539	27770
815.68	27652
815.821	27443
815.962	27545
816.103	27519
816.244	27553
816.385	27454
816.526	27557
816.666	27100
816.807	26990
816.948	27077
817.089	27237
817.23	27142
817.371	27150
817.512	27047
817.653	27039
817.793	27020
817.934	27013
818.075	27108
818.216	27085
818.356	27074
818.497	27074
818.638	26849
818.778	26944
818.919	26861
819.06	27093
819.2	27001
819.341	27081
819.481	26979
819.622	27313
819.762	27496
819.903	27397
820.043	27279
820.184	27363
820.324	27203
820.465	27199
820.605	27256
820.746	27024
820.886	27066
821.026	27051
821.167	27340
821.307	27169
821.447	27062
821.588	27119
821.728	26845
821.868	26678
822.008	26686
822.149	26594
822.289	26514
822.429	26210
822.569	26339
822.709	26305
822.849	26081
822.99	26111
823.13	26046
823.27	26084
823.41	25970
823.55	25860
823.69	25963
823.83	25921
823.97	25951
824.11	25712
824.25	25670
824.389	25719
824.529	25700
824.669	25772
824.809	25830
824.949	25791
825.089	25947
825.228	25620
825.368	25586
825.508	25635
825.648	25529
825.787	25533
825.927	25753
826.067	25571
826.206	25548
826.346	25651
826.485	25780
826.625	25590
826.765	25693
826.904	25700
827.044	25297
827.183	25460
827.323	25270
827.462	25559
827.601	25301
827.741	25407
827.88	25388
828.02	25270
828.159	25274
828.298	25365
828.437	25445
828.577	25304
828.716	25304
828.855	25206
828.994	25148
829.134	24913
829.273	25190
829.412	24916
829.551	24909
829.69	25004
829.829	25004
829.968	25148
830.107	24992
830.246	25031
830.385	24905
830.524	24928
830.663	24837
830.802	24757
830.941	24627
831.08	24696
831.219	24802
831.357	24760
831.496	24837
831.635	24779
831.774	24521
831.913	24540
832.051	24494
832.19	24395
832.329	24540
832.467	24281
832.606	24197
832.744	24239
832.883	24209
833.022	24247
833.16	24258
833.299	24410
833.437	24220
833.576	24346
833.714	24338
833.852	24418
833.991	24475
834.129	24627
834.267	24578
834.406	24327
834.544	24399
834.682	24403
834.821	24289
834.959	24521
835.097	24308
835.235	24464
835.373	24376
835.511	24422
835.65	24194
835.788	24323
835.926	24201
836.064	24015
836.202	23946
836.34	24114
836.478	24281
836.615	24300
836.753	24182
836.891	24323
837.029	24342
837.167	24220
837.305	24152
837.443	24220
837.58	24026
837.718	24083
837.856	24209
837.993	24083
838.131	24098
838.269	24098
838.406	24045
838.544	23847
838.681	23737
838.819	23824
838.956	23611
839.094	23592
839.231	23577
839.369	23687
839.506	24026
839.643	23722
839.781	23589
839.918	23490
840.055	23490
840.193	23528
840.33	23467
840.467	23429
840.604	23490
840.742	23748
840.879	23364
841.016	23436
841.153	23345
841.29	23661
841.427	23486
841.564	23467
841.701	23459
841.838	23440
841.975	23364
842.112	23467
842.249	23242
842.385	23143
842.522	23414
842.659	23239
842.796	23315
842.933	23250
843.069	23185
843.206	23250
843.343	23174
843.479	23204
843.616	23166
843.752	23052
843.889	23033
844.025	23166
844.162	23018
844.298	22942
844.435	23029
844.571	22938
844.708	23041
844.844	23143
844.98	23064
845.117	23143
845.253	22923
845.389	22889
845.525	22786
845.661	22892
845.798	22694
845.934	22790
846.07	22675
846.206	22759
846.342	22820
846.478	22831
846.614	22500
846.75	22367
846.886	22516
847.022	22504
847.158	22497
847.294	22557
847.429	22455
847.565	22443
847.701	22649
847.837	22162
847.972	22135
848.108	22329
848.244	22150
848.379	22090
848.515	21994
848.65	22036
848.786	22017
848.921	22051
849.057	22188
849.192	22219
849.328	22116
849.463	22101
849.598	21934
849.734	21922
849.869	21895
850.004	21854
850.14	21895
850.275	21698
850.41	21644
850.545	21819
850.68	21778
850.815	21861
850.95	21816
851.085	22093
851.22	21998
851.355	21865
851.49	21873
851.625	21831
851.76	21724
851.895	21701
852.03	21774
852.165	21755
852.299	21736
852.434	21789
852.569	21835
852.703	21842
852.838	21766
852.973	21812
853.107	21892
853.242	21766
853.376	21652
853.511	21530
853.645	21564
853.78	21732
853.914	21614
854.048	21625
854.183	21804
854.317	21542
854.451	21895
854.585	21690
854.72	21641
854.854	21759
854.988	21595
855.122	21637
855.256	21561
855.39	21568
855.524	21732
855.658	21622
855.792	21698
855.926	21644
856.06	21736
856.194	21713
856.327	21736
856.461	21660
856.595	21713
856.729	21595
856.862	21838
856.996	21675
857.13	21709
857.263	21778
857.397	21663
857.53	21675
857.664	21694
857.797	21778
857.931	21785
858.064	21564
858.197	21644
858.331	21618
858.464	21614
858.597	21561
858.731	21504
858.864	21538
858.997	21690
859.13	21682
859.263	21648
859.396	21819
859.529	21793
859.662	21641
859.795	21679
859.928	21675
860.061	21705
860.194	21804
860.327	21667
860.46	21717
860.592	21747
860.725	21770
860.858	21869
860.99	21591
861.123	21576
861.256	21656
861.388	21595
861.521	22394
861.653	21466
861.786	21370
861.918	21382
862.05	21462
862.183	21576
862.315	21629
862.447	21675
862.58	21576
862.712	21435
862.844	21336
862.976	21500
863.108	21386
863.24	21865
863.372	21340
863.504	21302
863.636	21310
863.768	21363
863.9	21291
864.032	21317
864.164	21268
864.296	21351
864.428	21511
864.559	21405
864.691	21408
864.823	21355
864.954	21226
865.086	21302
865.217	21256
865.349	21173
865.48	21355
865.612	21351
865.743	21180
865.875	21192
866.006	21165
866.137	21241
866.269	21279
866.4	21218
866.531	21192
866.662	21070
866.793	21138
866.924	21112
867.055	21157
867.186	21207
867.317	21116
867.448	21127
867.579	21127
867.71	21070
867.841	21074
867.972	21157
868.103	21119
868.233	21192
868.364	21096
868.495	21260
868.625	21424
868.756	21572
868.886	21389
869.017	21485
869.147	21473
869.278	21477
869.408	21511
869.539	21317
869.669	21500
869.799	21397
869.929	21599
870.06	21519
870.19	21804
870.32	21599
870.45	21667
870.58	21797
870.71	21918
870.84	21838
870.97	21861
871.1	21816
871.23	21880
871.36	22120
871.489	21789
871.619	21968
871.749	22032
871.879	22086
872.008	22055
872.138	21987
872.267	22021
872.397	21880
872.526	21850
872.656	21873
872.785	21800
872.915	22032
873.044	21972
873.173	22059
873.303	22051
873.432	22082
873.561	22147
873.69	22029
873.819	21888
873.948	22017
874.077	21991
874.206	22002
874.335	22025
874.464	22101
874.593	22329
874.722	22215
874.851	22238
874.979	22242
875.108	22356
875.237	22192
875.365	22116
875.494	22188
875.623	22253
875.751	22143
875.88	22303
876.008	22352
876.136	22481
876.265	22607
876.393	22828
876.521	22702
876.65	22573
876.778	22713
876.906	22596
877.034	22535
877.162	22565
877.29	22519
877.418	22535
877.546	22637
877.674	22493
877.802	22630
877.93	22577
878.058	22557
878.185	22504
878.313	22584
878.441	22478
878.568	22341
878.696	22557
878.824	22569
878.951	22649
879.079	22782
879.206	22877
879.333	22584
879.461	22596
879.588	22573
879.715	22938
879.842	22797
879.97	22691
880.097	22405
880.224	22265
880.351	22485
880.478	22344
880.605	22375
880.732	22424
880.859	22778
880.986	22432
881.112	22405
881.239	22280
881.366	22150
881.493	22074
881.619	21979
881.746	21975
881.872	21907
881.999	21930
882.125	22025
882.252	22029
882.378	22063
882.505	22063
882.631	21861
882.757	21804
882.883	21816
883.01	21690
883.136	21682
883.262	21428
883.388	21511
883.514	21766
883.64	21610
883.766	21614
883.892	21507
884.018	21504
884.143	21686
884.269	21606
884.395	21355
884.52	21306
884.646	21382
884.772	21184
884.897	21249
885.023	21473
885.148	21374
885.274	21500
885.399	21374
885.524	21351
885.65	21279
885.775	21340
885.9	21420
886.025	21507
886.15	21351
886.275	21279
886.4	21211
886.525	21260
886.65	21207
886.775	21233
886.9	21378
887.025	21469
887.149	21348
887.274	21089
887.399	21195
887.523	21051
887.648	21146
887.773	21009
887.897	21146
888.021	21218
888.146	21051
888.27	21173
888.395	21131
888.519	21161
888.643	21089
888.767	21051
888.891	20842
889.015	20804
889.139	21043
889.263	20956
889.387	21043
889.511	21070
889.635	21074
889.759	20872
889.883	20921
890.006	20834
890.13	20971
890.254	20735
890.377	20781
890.501	20674
890.624	20518
890.748	20686
890.871	20556
890.995	20476
891.118	20465
891.241	20537
891.364	20533
891.488	20606
891.611	20427
891.734	20511
891.857	20609
891.98	20549
892.103	20419
892.226	20457
892.349	20343
892.471	20191
892.594	20370
892.717	20328
892.839	20282
892.962	20328
893.085	20461
893.207	20339
893.33	20214
893.452	20336
893.575	20336
893.697	20240
893.819	20454
893.941	20507
894.064	20537
894.186	20313
894.308	20191
894.43	20457
894.552	20457
894.674	20305
894.796	20259
894.918	20351
895.04	20320
895.161	20419
895.283	20434
895.405	20282
895.526	20358
895.648	20332
895.769	20431
895.891	20377
896.012	20347
896.134	20404
896.255	20358
896.376	20267
896.498	20374
896.619	20351
896.74	20351
896.861	20263
896.982	20594
897.103	20746
897.224	20644
897.345	20648
897.466	20571
897.587	20537
897.708	20670
897.828	20629
897.949	20492
898.07	20423
898.19	20484
898.311	20575
898.431	20412
898.552	20514
898.672	20518
898.792	20594
898.913	20526
899.033	20408
899.153	20396
899.273	20298
899.393	20301
899.513	20282
899.633	20343
899.753	20298
899.873	20225
899.993	20214
900.113	20275
900.232	20263
900.352	20172
900.472	20145
900.591	20069
900.711	20145
900.83	20046
900.95	20172
901.069	20153
901.189	19898
901.308	19639
901.427	19575
901.546	19704
901.665	19632
901.784	19662
901.904	19464
902.023	19392
902.141	19213
902.26	19171
902.379	19293
902.498	19114
902.617	19118
902.735	19129
902.854	19050
902.973	19000
903.091	18772
903.21	18924
903.328	18719
903.446	18696
903.565	18646
903.683	18635
903.801	18475
903.919	18528
904.038	18517
904.156	18407
904.274	18471
904.392	18395
904.51	18395
904.627	18346
904.745	18403
904.863	18464
904.981	18171
905.098	18060
905.216	18072
905.334	18140
905.451	18110
905.569	18102
905.686	18087
905.803	18038
905.921	17786
906.038	17969
906.155	17821
906.272	17775
906.389	17775
906.506	17577
906.623	17665
906.74	17455
906.857	17417
906.974	17528
907.091	17634
907.208	17638
907.324	17733
907.441	17486
907.557	17246
907.674	17299
907.79	17242
907.907	17269
908.023	17368
908.139	17254
908.256	17216
908.372	17216
908.488	17242
908.604	17117
908.72	17014
908.836	16957
908.952	16892
909.068	17010
909.184	17140
909.3	17056
909.415	17090
909.531	17033
909.647	16763
909.762	16752
909.878	16702
909.993	16767
910.108	16713
910.224	16706
910.339	16683
910.454	16500
910.57	16535
910.685	16440
910.8	16801
910.915	16744
911.03	16531
911.145	16390
911.259	16272
911.374	16360
911.489	16253
911.604	16226
911.718	16154
911.833	16029
911.947	15956
912.062	15964
912.176	16128
912.291	16101
912.405	15998
912.519	16192
912.633	16242
912.748	16101
912.862	15991
912.976	15876
913.09	15781
913.204	15842
913.318	15831
913.431	15991
913.545	15972
913.659	15945
913.772	15888
913.886	15717
914	15705
914.113	15698
914.226	15876
914.34	15656
914.453	15507
914.566	15709
914.68	15545
914.793	15450
914.906	15367
915.019	15207
915.132	15294
915.245	15161
915.358	15268
915.47	15245
915.583	15294
915.696	15310
915.809	15431
915.921	15367
916.034	15119
916.146	15138
916.259	15241
916.371	15161
916.483	15260
916.595	15100
916.708	15199
916.82	15074
916.932	15032
917.044	15028
917.156	14963
917.268	14944
917.38	14944
917.491	14899
917.603	14868
917.715	14918
917.826	14963
917.938	14773
918.049	14762
918.161	14811
918.272	15051
918.384	15005
918.495	14853
918.606	14701
918.717	14674
918.828	14720
918.939	14674
919.05	14682
919.161	14701
919.272	14499
919.383	14552
919.494	14655
919.604	14876
919.715	14743
919.826	14549
919.936	14503
920.047	14746
920.157	14674
920.267	14781
920.378	14693
920.488	14644
920.598	14743
920.708	14838
920.818	14765
920.928	14804
921.038	14914
921.148	14891
921.258	14469
921.368	14499
921.477	14309
921.587	14339
921.697	14176
921.806	14381
921.916	14286
922.025	14069
922.134	14039
922.244	13970
922.353	14039
922.462	13860
922.571	13913
922.68	13807
922.789	13677
922.898	13696
923.007	13647
923.116	13693
923.224	13590
923.333	13666
923.442	13540
923.55	13438
923.659	13537
923.767	13643
923.876	13453
923.984	13529
924.092	13304
924.201	13403
924.309	13392
924.417	13373
924.525	13350
924.633	13369
924.741	14043
924.849	13084
924.956	13274
925.064	13091
925.172	13012
925.279	13118
925.387	13141
925.494	12985
925.602	13099
925.709	13126
925.816	13000
925.924	13061
926.031	13175
926.138	13038
926.245	12996
926.352	12970
926.459	13072
926.566	13080
926.673	12996
926.779	12837
926.886	12711
926.993	12696
927.099	12681
927.206	12528
927.312	12616
927.419	12604
927.525	12635
927.631	12631
927.737	12528
927.843	12407
927.95	12353
928.056	12369
928.162	12479
928.267	12490
928.373	13103
928.479	12471
928.585	12300
928.69	12460
928.796	12441
928.901	12304
929.007	12136
929.112	12178
929.218	12232
929.323	12159
929.428	12175
929.533	12308
929.638	12064
929.743	12171
929.848	12171
929.953	12197
930.058	11992
930.163	11828
930.267	11878
930.372	11996
930.477	11817
930.581	12049
930.685	11946
930.79	11764
930.894	11771
930.998	11661
931.103	11821
931.207	11486
931.311	11463
931.415	11311
931.519	11083
931.623	11071
