Data from test_V78500241_652.txt Node
Date: Fri Mar 25 15:14:23 CST 2022
User: usil
Spectrometer: V785-0024
Trigger mode: 0
Integration Time (sec): 4.000000E-1
Scans to average: 1
Nonlinearity correction enabled: false
Boxcar width: 0
Storing dark spectrum: false
XAxis mode: Wavelengths
Number of Pixels in Spectrum: 1024
>>>>>Begin Spectral Data<<<<<
801.071	27462
801.214	27439
801.356	27207
801.499	27043
801.641	27135
801.783	26956
801.926	26979
802.068	26960
802.211	26796
802.353	26796
802.496	26644
802.638	26682
802.78	26537
802.923	26575
803.065	26442
803.208	26617
803.35	26632
803.492	26705
803.635	26754
803.777	26621
803.919	26644
804.061	26952
804.204	26750
804.346	26762
804.488	26724
804.63	26659
804.773	26579
804.915	26743
805.057	26842
805.199	26826
805.341	26891
805.483	27055
805.626	26857
805.768	26762
805.91	26849
806.052	26724
806.194	26796
806.336	27039
806.478	26986
806.62	26994
806.762	26940
806.904	27096
807.046	27310
807.188	27332
807.33	27340
807.472	27336
807.614	27157
807.756	27260
807.898	27264
808.04	27127
808.182	27150
808.324	27127
808.465	27077
808.607	27408
808.749	27370
808.891	27469
809.033	27591
809.174	27542
809.316	27595
809.458	27580
809.6	27447
809.741	27648
809.883	27698
810.025	27880
810.166	27816
810.308	27770
810.45	27793
810.591	27797
810.733	27530
810.875	27374
811.016	27367
811.158	27416
811.299	27564
811.441	27622
811.582	27572
811.724	27313
811.865	27450
812.007	27370
812.148	27416
812.29	27488
812.431	27622
812.573	27934
812.714	28017
812.855	28131
812.997	28150
813.138	28276
813.279	28166
813.421	28135
813.562	27880
813.703	27766
813.845	27698
813.986	27443
814.127	27306
814.268	27199
814.41	27298
814.551	27055
814.692	27283
814.833	27062
814.974	27173
815.115	27245
815.256	27131
815.397	27043
815.539	27135
815.68	27020
815.821	26804
815.962	27005
816.103	26910
816.244	26750
816.385	26735
816.526	26746
816.666	26644
816.807	26518
816.948	26442
817.089	26492
817.23	26629
817.371	26484
817.512	26469
817.653	26347
817.793	26484
817.934	26256
818.075	26545
818.216	26511
818.356	26385
818.497	26389
818.638	26161
818.778	26119
818.919	26256
819.06	26256
819.2	26278
819.341	26419
819.481	26389
819.622	26556
819.762	26590
819.903	26785
820.043	26545
820.184	26499
820.324	26556
820.465	26674
820.605	26552
820.746	26484
820.886	26389
821.026	26533
821.167	26518
821.307	26564
821.447	26514
821.588	26389
821.728	26298
821.868	26077
822.008	25928
822.149	25902
822.289	25837
822.429	25643
822.569	25567
822.709	25510
822.849	25457
822.99	25453
823.13	25316
823.27	25358
823.41	25213
823.55	25156
823.69	25274
823.83	25244
823.97	25152
824.11	24973
824.25	25038
824.389	24806
824.529	25099
824.669	25076
824.809	25110
824.949	25034
825.089	25129
825.228	25004
825.368	24894
825.508	24810
825.648	24897
825.787	24947
825.927	24901
826.067	24920
826.206	24947
826.346	24977
826.485	24913
826.625	24916
826.765	25046
826.904	25031
827.044	24795
827.183	24715
827.323	24582
827.462	24681
827.601	24593
827.741	24426
827.88	24749
828.02	24407
828.159	24521
828.298	24574
828.437	24646
828.577	24627
828.716	24681
828.855	24521
828.994	24410
829.134	24251
829.273	24410
829.412	24243
829.551	24228
829.69	24334
829.829	24281
829.968	24395
830.107	24418
830.246	24414
830.385	24330
830.524	24346
830.663	24167
830.802	24095
830.941	23988
831.08	23980
831.219	23927
831.357	24133
831.496	24117
831.635	23878
831.774	23958
831.913	23726
832.051	23668
832.19	23752
832.329	23783
832.467	23482
832.606	23573
832.744	23634
832.883	23604
833.022	23482
833.16	23524
833.299	23657
833.437	23577
833.576	23733
833.714	23710
833.852	23786
833.991	23665
834.129	23748
834.267	23661
834.406	23634
834.544	23493
834.682	23798
834.821	23634
834.959	23893
835.097	23581
835.235	23764
835.373	23714
835.511	23566
835.65	23516
835.788	23429
835.926	23414
836.064	23402
836.202	23364
836.34	23497
836.478	23619
836.615	23395
836.753	23493
836.891	23531
837.029	23562
837.167	23471
837.305	23429
837.443	23406
837.58	23391
837.718	23585
837.856	23539
837.993	23326
838.131	23383
838.269	23280
838.406	23280
838.544	23181
838.681	23033
838.819	23052
838.956	22866
839.094	22683
839.231	22858
839.369	22987
839.506	23189
839.643	23018
839.781	22873
839.918	22755
840.055	22759
840.193	22831
840.33	22881
840.467	22740
840.604	22729
840.742	23098
840.879	22580
841.016	22828
841.153	22618
841.29	22782
841.427	22721
841.564	22786
841.701	22702
841.838	22755
841.975	22485
842.112	22649
842.249	22542
842.385	22641
842.522	22637
842.659	22466
842.796	22527
842.933	22436
843.069	22493
843.206	22451
843.343	22611
843.479	22478
843.616	22459
843.752	22333
843.889	22272
844.025	22390
844.162	22360
844.298	22588
844.435	22234
844.571	22322
844.708	22421
844.844	22462
844.98	22394
845.117	22352
845.253	22215
845.389	22082
845.525	22238
845.661	22291
845.798	22040
845.934	22135
846.07	21987
846.206	22109
846.342	22128
846.478	22006
846.614	21732
846.75	21701
846.886	21720
847.022	21888
847.158	21922
847.294	21800
847.429	21720
847.565	21690
847.701	21956
847.837	21447
847.972	21526
848.108	21485
848.244	21530
848.379	21359
848.515	21420
848.65	21401
848.786	21294
848.921	21222
849.057	21431
849.192	21477
849.328	21481
849.463	21443
849.598	21336
849.734	21256
849.869	21154
850.004	21161
850.14	21135
850.275	21165
850.41	20948
850.545	21020
850.68	21169
850.815	21043
850.95	21154
851.085	21294
851.22	21180
851.355	21104
851.49	21119
851.625	21119
851.76	21131
851.895	20876
852.03	20933
852.165	21089
852.299	21009
852.434	21184
852.569	21241
852.703	21100
852.838	21135
852.973	21268
853.107	21287
853.242	21032
853.376	20868
853.511	20788
853.645	20838
853.78	21131
853.914	21047
854.048	20910
854.183	20929
854.317	20891
854.451	21085
854.585	20998
854.72	20823
854.854	21055
854.988	20807
855.122	20941
855.256	20815
855.39	20845
855.524	21020
855.658	21062
855.792	20990
855.926	20891
856.06	21005
856.194	21051
856.327	20902
856.461	20914
856.595	20872
856.729	20864
856.862	21055
856.996	20937
857.13	20914
857.263	20944
857.397	21032
857.53	20910
857.664	21032
857.797	20918
857.931	21036
858.064	21055
858.197	21089
858.331	20861
858.464	20807
858.597	20864
858.731	20785
858.864	20876
858.997	20921
859.13	20910
859.263	20883
859.396	20994
859.529	21020
859.662	20967
859.795	20933
859.928	20956
860.061	21096
860.194	21218
860.327	21039
860.46	20979
860.592	21047
860.725	20960
860.858	21028
860.99	20876
861.123	20902
861.256	20861
861.388	20914
861.521	21580
861.653	20838
861.786	20731
861.918	20739
862.05	20864
862.183	20792
862.315	20876
862.447	20765
862.58	20861
862.712	20678
862.844	20533
862.976	20765
863.108	20724
863.24	21028
863.372	20556
863.504	20617
863.636	20663
863.768	20598
863.9	20533
864.032	20606
864.164	20492
864.296	20606
864.428	20655
864.559	20686
864.691	20800
864.823	20735
864.954	20667
865.086	20594
865.217	20632
865.349	20473
865.48	20560
865.612	20537
865.743	20705
865.875	20735
866.006	20537
866.137	20511
866.269	20621
866.4	20621
866.531	20511
866.662	20492
866.793	20381
866.924	20514
867.055	20533
867.186	20503
867.317	20473
867.448	20336
867.579	20457
867.71	20358
867.841	20446
867.972	20450
868.103	20461
868.233	20522
868.364	20492
868.495	20545
868.625	20735
868.756	20701
868.886	20617
869.017	20644
869.147	20750
869.278	20792
869.408	20758
869.539	20758
869.669	20754
869.799	20872
869.929	20925
870.06	20861
870.19	21039
870.32	21119
870.45	21077
870.58	21199
870.71	21195
870.84	21214
870.97	21066
871.1	21123
871.23	21294
871.36	21355
871.489	21214
871.619	21260
871.749	21233
871.879	21458
872.008	21382
872.138	21496
872.267	21329
872.397	21104
872.526	21188
872.656	21176
872.785	21237
872.915	21389
873.044	21450
873.173	21473
873.303	21469
873.432	21412
873.561	21386
873.69	21355
873.819	21412
873.948	21412
874.077	21294
874.206	21275
874.335	21272
874.464	21557
874.593	21637
874.722	21515
874.851	21713
874.979	21648
875.108	21591
875.237	21583
875.365	21344
875.494	21599
875.623	21759
875.751	21591
875.88	21633
876.008	21644
876.136	21709
876.265	21945
876.393	21960
876.521	22010
876.65	22032
876.778	22051
876.906	22006
877.034	21899
877.162	21994
877.29	21816
877.418	21926
877.546	21968
877.674	21899
877.802	21800
877.93	21884
878.058	21823
878.185	21884
878.313	21899
878.441	21972
878.568	21675
878.696	21838
878.824	21835
878.951	21987
879.079	22086
879.206	22177
879.333	22082
879.461	22074
879.588	22051
879.715	22074
879.842	22139
879.97	22070
880.097	21739
880.224	21679
880.351	21747
880.478	21804
880.605	21705
880.732	21724
880.859	21926
880.986	21698
881.112	21797
881.239	21580
881.366	21473
881.493	21447
881.619	21355
881.746	21450
881.872	21321
881.999	21310
882.125	21214
882.252	21412
882.378	21367
882.505	21412
882.631	21272
882.757	21047
882.883	21150
883.01	21112
883.136	20975
883.262	20845
883.388	20792
883.514	21085
883.64	21062
883.766	20864
883.892	20811
884.018	20944
884.143	20918
884.269	21043
884.395	20689
884.52	20594
884.646	20746
884.772	20644
884.897	20533
885.023	20686
885.148	20720
885.274	20735
885.399	20731
885.524	20579
885.65	20697
885.775	20674
885.9	20629
886.025	20746
886.15	20758
886.275	20606
886.4	20617
886.525	20625
886.65	20632
886.775	20613
886.9	20804
887.025	20861
887.149	20556
887.274	20446
887.399	20446
887.523	20427
887.648	20396
887.773	20313
887.897	20526
888.021	20476
888.146	20347
888.27	20537
888.395	20564
888.519	20606
888.643	20495
888.767	20568
888.891	20240
889.015	20282
889.139	20377
889.263	20244
889.387	20404
889.511	20442
889.635	20374
889.759	20332
889.883	20305
890.006	20210
890.13	20317
890.254	20119
890.377	20267
890.501	19951
890.624	20001
890.748	20084
890.871	19841
890.995	19757
891.118	19826
891.241	19761
891.364	19788
891.488	19921
891.611	19993
891.734	19947
891.857	20001
891.98	19875
892.103	19856
892.226	19879
892.349	19742
892.471	19616
892.594	19795
892.717	19715
892.839	19643
892.962	19704
893.085	19894
893.207	19742
893.33	19594
893.452	19616
893.575	19837
893.697	19776
893.819	19967
893.941	19921
894.064	19860
894.186	19578
894.308	19689
894.43	19822
894.552	19871
894.674	19731
894.796	19601
894.918	19712
895.04	19662
895.161	19849
895.283	19803
895.405	19727
895.526	19818
895.648	19757
895.769	19917
895.891	19757
896.012	19814
896.134	19822
896.255	19788
896.376	19719
896.498	19833
896.619	19689
896.74	19765
896.861	19799
896.982	20096
897.103	20195
897.224	20020
897.345	19890
897.466	19898
897.587	20012
897.708	20202
897.828	20035
897.949	19959
898.07	19788
898.19	19833
898.311	19997
898.431	19978
898.552	19947
898.672	20031
898.792	19963
898.913	20054
899.033	19830
899.153	19769
899.273	19791
899.393	19818
899.513	19883
899.633	19776
899.753	19750
899.873	19727
899.993	19746
900.113	19681
900.232	19635
900.352	19677
900.472	19521
900.591	19518
900.711	19552
900.83	19483
900.95	19594
901.069	19582
901.189	19476
901.308	19164
901.427	19084
901.546	19118
901.665	19141
901.784	19050
901.904	19019
902.023	18909
902.141	18726
902.26	18597
902.379	18673
902.498	18650
902.617	18467
902.735	18623
902.854	18502
902.973	18399
903.091	18296
903.21	18399
903.328	18350
903.446	18205
903.565	18133
903.683	18152
903.801	18072
903.919	18121
904.038	18060
904.156	17836
904.274	17935
904.392	17847
904.51	17855
904.627	17824
904.745	17878
904.863	17923
904.981	17661
905.098	17497
905.216	17520
905.334	17596
905.451	17547
905.569	17554
905.686	17585
905.803	17687
905.921	17303
906.038	17467
906.155	17436
906.272	17227
906.389	17269
906.506	17147
906.623	17136
906.74	17010
906.857	16873
906.974	17056
907.091	17075
907.208	17277
907.324	17094
907.441	17102
907.557	16774
907.674	16873
907.79	16698
907.907	16782
908.023	16805
908.139	16831
908.256	16710
908.372	16675
908.488	16717
908.604	16546
908.72	16470
908.836	16649
908.952	16493
909.068	16580
909.184	16592
909.3	16500
909.415	16584
909.531	16504
909.647	16257
909.762	16200
909.878	16158
909.993	16257
910.108	16200
910.224	16169
910.339	16204
910.454	16143
910.57	16067
910.685	15941
910.8	16162
910.915	16150
911.03	16086
911.145	15964
911.259	15835
911.374	15884
911.489	15690
911.604	15690
911.718	15591
911.833	15595
911.947	15473
912.062	15382
912.176	15656
912.291	15572
912.405	15488
912.519	15720
912.633	15827
912.748	15580
912.862	15580
912.976	15393
913.09	15272
913.204	15405
913.318	15386
913.431	15519
913.545	15511
913.659	15557
913.772	15294
913.886	15313
914	15249
914.113	15256
914.226	15302
914.34	15241
914.453	15188
914.566	15264
914.68	15176
914.793	15009
914.906	14883
915.019	14849
915.132	14781
915.245	14887
915.358	14864
915.47	14853
915.583	14792
915.696	14845
915.809	14948
915.921	15005
916.034	14777
916.146	14792
916.259	14716
916.371	14826
916.483	14758
916.595	14659
916.708	14590
916.82	14636
916.932	14602
917.044	14640
917.156	14564
917.268	14537
917.38	14438
917.491	14469
917.603	14423
917.715	14545
917.826	14644
917.938	14450
918.049	14339
918.161	14427
918.272	14594
918.384	14564
918.495	14366
918.606	14374
918.717	14168
918.828	14206
918.939	14221
919.05	14218
919.161	14195
919.272	14043
919.383	14092
919.494	14229
919.604	14412
919.715	14336
919.826	14123
919.936	14187
920.047	14343
920.157	14191
920.267	14377
920.378	14206
920.488	14202
920.598	14434
920.708	14579
920.818	14271
920.928	14320
921.038	14530
921.148	14457
921.258	14153
921.368	14043
921.477	13955
921.587	13947
921.697	13856
921.806	14001
921.916	13799
922.025	13632
922.134	13624
922.244	13464
922.353	13632
922.462	13476
922.571	13384
922.68	13308
922.789	13274
922.898	13274
923.007	13156
923.116	13255
923.224	13270
923.333	13221
923.442	13065
923.55	13042
923.659	13084
923.767	13209
923.876	13034
923.984	13031
924.092	12973
924.201	13027
924.309	13061
924.417	13000
924.525	12916
924.633	12981
924.741	13753
924.849	12715
924.956	12894
925.064	12696
925.172	12620
925.279	12620
925.387	12684
925.494	12673
925.602	12772
925.709	12802
925.816	12597
925.924	12715
926.031	12726
926.138	12570
926.245	12669
926.352	12585
926.459	12741
926.566	12703
926.673	12601
926.779	12433
926.886	12464
926.993	12319
927.099	12311
927.206	12270
927.312	12254
927.419	12330
927.525	12289
927.631	12346
927.737	12072
927.843	12095
927.95	12034
928.056	12038
928.162	12125
928.267	12182
928.373	12654
928.479	12190
928.585	11878
928.69	12057
928.796	12148
928.901	11904
929.007	11752
929.112	11992
929.218	11988
929.323	11790
929.428	11817
929.533	11961
929.638	11764
929.743	11726
929.848	11855
929.953	11798
930.058	11623
930.163	11345
930.267	11486
930.372	11726
930.477	11482
930.581	11661
930.685	11600
930.79	11379
930.894	11516
930.998	11364
931.103	11501
931.207	11181
931.311	11045
931.415	10949
931.519	10866
931.623	10752
