Data from test_V78500241_679.txt Node
Date: Fri Mar 25 15:14:35 CST 2022
User: usil
Spectrometer: V785-0024
Trigger mode: 0
Integration Time (sec): 4.000000E-1
Scans to average: 1
Nonlinearity correction enabled: false
Boxcar width: 0
Storing dark spectrum: false
XAxis mode: Wavelengths
Number of Pixels in Spectrum: 1024
>>>>>Begin Spectral Data<<<<<
801.071	28101
801.214	28067
801.356	27850
801.499	27724
801.641	27587
801.783	27633
801.926	27736
802.068	27652
802.211	27591
802.353	27557
802.496	27230
802.638	27393
802.78	27241
802.923	27302
803.065	27252
803.208	27351
803.35	27302
803.492	27408
803.635	27294
803.777	27408
803.919	27534
804.061	27797
804.204	27496
804.346	27496
804.488	27321
804.63	27523
804.773	27329
804.915	27553
805.057	27485
805.199	27332
805.341	27530
805.483	27625
805.626	27614
805.768	27431
805.91	27610
806.052	27747
806.194	27507
806.336	27713
806.478	27709
806.62	27622
806.762	27842
806.904	27956
807.046	28055
807.188	28090
807.33	28063
807.472	28109
807.614	27907
807.756	27987
807.898	27819
808.04	27724
808.182	27838
808.324	27854
808.465	27987
808.607	28097
808.749	28200
808.891	28421
809.033	28424
809.174	28226
809.316	28322
809.458	28401
809.6	28219
809.741	28440
809.883	28508
810.025	28691
810.166	28702
810.308	28538
810.45	28561
810.591	28459
810.733	28318
810.875	28219
811.016	28192
811.158	28204
811.299	28421
811.441	28508
811.582	28413
811.724	28253
811.865	28211
812.007	28166
812.148	28223
812.29	28367
812.431	28512
812.573	28679
812.714	28740
812.855	28934
812.997	28976
813.138	29254
813.279	28999
813.421	28919
813.562	28797
813.703	28713
813.845	28713
813.986	28409
814.127	27956
814.268	28021
814.41	27968
814.551	27975
814.692	28109
814.833	27903
814.974	27922
815.115	28086
815.256	27819
815.397	27865
815.539	27766
815.68	27869
815.821	27732
815.962	27869
816.103	27766
816.244	27739
816.385	27488
816.526	27534
816.666	27454
816.807	27302
816.948	27439
817.089	27549
817.23	27332
817.371	27291
817.512	27294
817.653	27214
817.793	27161
817.934	27268
818.075	27359
818.216	27454
818.356	27325
818.497	27089
818.638	27062
818.778	27070
818.919	27093
819.06	27104
819.2	27150
819.341	27237
819.481	27302
819.622	27500
819.762	27583
819.903	27511
820.043	27576
820.184	27401
820.324	27313
820.465	27397
820.605	27530
820.746	27355
820.886	27245
821.026	27427
821.167	27279
821.307	27374
821.447	27302
821.588	27302
821.728	27108
821.868	26876
822.008	26636
822.149	26838
822.289	26667
822.429	26613
822.569	26419
822.709	26511
822.849	26298
822.99	26290
823.13	26305
823.27	26286
823.41	26001
823.55	25932
823.69	26024
823.83	26069
823.97	26084
824.11	25932
824.25	26020
824.389	25830
824.529	26073
824.669	25890
824.809	26103
824.949	26103
825.089	26001
825.228	25898
825.368	25845
825.508	25731
825.648	25879
825.787	25784
825.927	25780
826.067	25776
826.206	25757
826.346	25803
826.485	25807
826.625	25906
826.765	25856
826.904	25784
827.044	25635
827.183	25620
827.323	25506
827.462	25674
827.601	25483
827.741	25510
827.88	25537
828.02	25388
828.159	25537
828.298	25457
828.437	25552
828.577	25445
828.716	25605
828.855	25403
828.994	25152
829.134	25232
829.273	25289
829.412	25202
829.551	25179
829.69	25236
829.829	25270
829.968	25133
830.107	25369
830.246	25289
830.385	25072
830.524	25213
830.663	25019
830.802	24943
830.941	24760
831.08	24821
831.219	25072
831.357	24871
831.496	25053
831.635	24814
831.774	24673
831.913	24776
832.051	24673
832.19	24612
832.329	24566
832.467	24509
832.606	24505
832.744	24525
832.883	24536
833.022	24464
833.16	24456
833.299	24460
833.437	24441
833.576	24555
833.714	24521
833.852	24722
833.991	24544
834.129	24677
834.267	24620
834.406	24627
834.544	24608
834.682	24498
834.821	24498
834.959	24730
835.097	24654
835.235	24578
835.373	24498
835.511	24502
835.65	24426
835.788	24456
835.926	24228
836.064	24205
836.202	24216
836.34	24357
836.478	24509
836.615	24319
836.753	24475
836.891	24467
837.029	24376
837.167	24262
837.305	24369
837.443	24277
837.58	24281
837.718	24308
837.856	24254
837.993	24133
838.131	24220
838.269	24072
838.406	24136
838.544	24053
838.681	23859
838.819	23950
838.956	23653
839.094	23737
839.231	23737
839.369	23779
839.506	23999
839.643	23988
839.781	23600
839.918	23680
840.055	23615
840.193	23589
840.33	23543
840.467	23581
840.604	23615
840.742	23965
840.879	23562
841.016	23414
841.153	23497
841.29	23653
841.427	23604
841.564	23718
841.701	23505
841.838	23551
841.975	23535
842.112	23444
842.249	23356
842.385	23254
842.522	23535
842.659	23444
842.796	23334
842.933	23356
843.069	23429
843.206	23402
843.343	23299
843.479	23337
843.616	23410
843.752	23136
843.889	23235
844.025	23356
844.162	23090
844.298	23197
844.435	23197
844.571	23121
844.708	23094
844.844	23303
844.98	23178
845.117	23200
845.253	23033
845.389	23060
845.525	22984
845.661	22965
845.798	22854
845.934	22942
846.07	22908
846.206	22946
846.342	23010
846.478	22858
846.614	22717
846.75	22474
846.886	22615
847.022	22717
847.158	22611
847.294	22653
847.429	22698
847.565	22546
847.701	22736
847.837	22284
847.972	22291
848.108	22459
848.244	22352
848.379	22223
848.515	22120
848.65	22219
848.786	22169
848.921	22272
849.057	22341
849.192	22196
849.328	22230
849.463	22207
849.598	22192
849.734	22128
849.869	22025
850.004	21907
850.14	22021
850.275	22006
850.41	21804
850.545	22010
850.68	21793
850.815	21918
850.95	21953
851.085	22109
851.22	21991
851.355	21983
851.49	21949
851.625	21895
851.76	21831
851.895	21873
852.03	21899
852.165	21945
852.299	21964
852.434	22078
852.569	22029
852.703	21869
852.838	21880
852.973	22013
853.107	22090
853.242	21926
853.376	21778
853.511	21637
853.645	21660
853.78	21816
853.914	21732
854.048	21759
854.183	21743
854.317	21774
854.451	21987
854.585	21816
854.72	21739
854.854	21793
854.988	21903
855.122	21793
855.256	21591
855.39	21778
855.524	21778
855.658	21751
855.792	21861
855.926	21880
856.06	21789
856.194	21728
856.327	21732
856.461	21568
856.595	21686
856.729	21797
856.862	21880
856.996	21800
857.13	21793
857.263	21873
857.397	21816
857.53	21709
857.664	21812
857.797	21838
857.931	21865
858.064	21770
858.197	21823
858.331	21660
858.464	21679
858.597	21709
858.731	21728
858.864	21675
858.997	21698
859.13	21823
859.263	21781
859.396	21789
859.529	21857
859.662	21671
859.795	21690
859.928	21819
860.061	21903
860.194	21964
860.327	21770
860.46	21789
860.592	21869
860.725	21949
860.858	21892
860.99	21759
861.123	21679
861.256	21857
861.388	21705
861.521	22569
861.653	21603
861.786	21599
861.918	21633
862.05	21713
862.183	21690
862.315	21759
862.447	21770
862.58	21694
862.712	21523
862.844	21511
862.976	21382
863.108	21526
863.24	21835
863.372	21317
863.504	21428
863.636	21416
863.768	21549
863.9	21488
864.032	21405
864.164	21492
864.296	21466
864.428	21599
864.559	21492
864.691	21614
864.823	21500
864.954	21462
865.086	21466
865.217	21393
865.349	21260
865.48	21393
865.612	21367
865.743	21545
865.875	21370
866.006	21344
866.137	21298
866.269	21397
866.4	21256
866.531	21367
866.662	21272
866.793	21233
866.924	21344
867.055	21321
867.186	21359
867.317	21340
867.448	21108
867.579	21298
867.71	21272
867.841	21100
867.972	21275
868.103	21321
868.233	21298
868.364	21230
868.495	21386
868.625	21405
868.756	21614
868.886	21382
869.017	21553
869.147	21614
869.278	21576
869.408	21466
869.539	21477
869.669	21530
869.799	21496
869.929	21679
870.06	21603
870.19	21789
870.32	21827
870.45	21876
870.58	21895
870.71	22006
870.84	21975
870.97	21937
871.1	22010
871.23	22120
871.36	22040
871.489	21960
871.619	22055
871.749	22169
871.879	22124
872.008	22234
872.138	22128
872.267	22181
872.397	22013
872.526	21842
872.656	21991
872.785	22010
872.915	22070
873.044	22109
873.173	22082
873.303	22192
873.432	22284
873.561	22284
873.69	22139
873.819	22211
873.948	22230
874.077	22169
874.206	22078
874.335	22131
874.464	22291
874.593	22333
874.722	22341
874.851	22424
874.979	22333
875.108	22466
875.237	22337
875.365	22280
875.494	22447
875.623	22440
875.751	22405
875.88	22379
876.008	22580
876.136	22512
876.265	22847
876.393	22847
876.521	22869
876.65	22812
876.778	22694
876.906	22687
877.034	22584
877.162	22668
877.29	22588
877.418	22527
877.546	22656
877.674	22710
877.802	22740
877.93	22637
878.058	22706
878.185	22497
878.313	22649
878.441	22607
878.568	22622
878.696	22565
878.824	22824
878.951	22733
879.079	22900
879.206	23067
879.333	22809
879.461	22725
879.588	22809
879.715	22889
879.842	22972
879.97	22740
880.097	22478
880.224	22489
880.351	22573
880.478	22538
880.605	22409
880.732	22489
880.859	22801
880.986	22421
881.112	22580
881.239	22440
881.366	22348
881.493	22200
881.619	22074
881.746	22169
881.872	21945
881.999	22063
882.125	22021
882.252	22185
882.378	22029
882.505	22086
882.631	21953
882.757	21808
882.883	21713
883.01	21854
883.136	21759
883.262	21800
883.388	21511
883.514	21827
883.64	21743
883.766	21736
883.892	21485
884.018	21614
884.143	21713
884.269	21808
884.395	21523
884.52	21431
884.646	21287
884.772	21298
884.897	21249
885.023	21378
885.148	21488
885.274	21496
885.399	21443
885.524	21397
885.65	21431
885.775	21526
885.9	21454
886.025	21462
886.15	21572
886.275	21447
886.4	21249
886.525	21431
886.65	21279
886.775	21363
886.9	21477
887.025	21587
887.149	21405
887.274	21249
887.399	21272
887.523	21070
887.648	21100
887.773	21058
887.897	21222
888.021	21211
888.146	21150
888.27	21340
888.395	21275
888.519	21093
888.643	21275
888.767	21203
888.891	21268
889.015	20910
889.139	20975
889.263	20929
889.387	21070
889.511	21127
889.635	21085
889.759	20857
889.883	20902
890.006	20960
890.13	20986
890.254	20963
890.377	20910
890.501	20834
890.624	20674
890.748	20739
890.871	20667
890.995	20552
891.118	20530
891.241	20514
891.364	20396
891.488	20674
891.611	20507
891.734	20537
891.857	20579
891.98	20560
892.103	20568
892.226	20545
892.349	20438
892.471	20355
892.594	20522
892.717	20408
892.839	20473
892.962	20552
893.085	20609
893.207	20415
893.33	20366
893.452	20180
893.575	20537
893.697	20446
893.819	20594
893.941	20625
894.064	20552
894.186	20415
894.308	20240
894.43	20488
894.552	20640
894.674	20549
894.796	20336
894.918	20431
895.04	20324
895.161	20457
895.283	20431
895.405	20408
895.526	20446
895.648	20381
895.769	20374
895.891	20476
896.012	20484
896.134	20415
896.255	20454
896.376	20571
896.498	20484
896.619	20473
896.74	20358
896.861	20408
896.982	20758
897.103	20880
897.224	20674
897.345	20579
897.466	20621
897.587	20545
897.708	20686
897.828	20651
897.949	20537
898.07	20545
898.19	20564
898.311	20667
898.431	20484
898.552	20640
898.672	20727
898.792	20701
898.913	20640
899.033	20587
899.153	20469
899.273	20336
899.393	20343
899.513	20526
899.633	20503
899.753	20465
899.873	20271
899.993	20324
900.113	20431
900.232	20415
900.352	20358
900.472	20271
900.591	20069
900.711	20286
900.83	20008
900.95	20271
901.069	20370
901.189	20122
901.308	19830
901.427	19719
901.546	19761
901.665	19685
901.784	19757
901.904	19677
902.023	19556
902.141	19282
902.26	19266
902.379	19324
902.498	19202
902.617	19175
902.735	19312
902.854	19228
902.973	19236
903.091	18985
903.21	18882
903.328	18932
903.446	18859
903.565	18844
903.683	18658
903.801	18608
903.919	18623
904.038	18681
904.156	18475
904.274	18532
904.392	18502
904.51	18429
904.627	18407
904.745	18506
904.863	18513
904.981	18403
905.098	18201
905.216	18178
905.334	18270
905.451	18224
905.569	18133
905.686	18140
905.803	18117
905.921	17950
906.038	18045
906.155	17897
906.272	17939
906.389	17870
906.506	17752
906.623	17809
906.74	17665
906.857	17509
906.974	17589
907.091	17703
907.208	17767
907.324	17634
907.441	17611
907.557	17345
907.674	17486
907.79	17326
907.907	17478
908.023	17455
908.139	17425
908.256	17284
908.372	17231
908.488	17318
908.604	17162
908.72	17083
908.836	16991
908.952	17105
909.068	17071
909.184	17151
909.3	17128
909.415	17124
909.531	17045
909.647	16858
909.762	16828
909.878	16809
909.993	16767
910.108	16809
910.224	16767
910.339	16759
910.454	16664
910.57	16577
910.685	16569
910.8	16816
910.915	16740
911.03	16649
911.145	16432
911.259	16436
911.374	16500
911.489	16314
911.604	16299
911.718	16181
911.833	16116
911.947	16032
912.062	16040
912.176	16131
912.291	16109
912.405	16101
912.519	16204
912.633	16318
912.748	16169
912.862	16090
912.976	15922
913.09	15808
913.204	15838
913.318	15991
913.431	16040
913.545	16036
913.659	16063
913.772	16002
913.886	15869
914	15705
914.113	15861
914.226	15880
914.34	15876
914.453	15675
914.566	15751
914.68	15644
914.793	15572
914.906	15462
915.019	15332
915.132	15268
915.245	15363
915.358	15317
915.47	15249
915.583	15237
915.696	15416
915.809	15492
915.921	15492
916.034	15382
916.146	15222
916.259	15268
916.371	15370
916.483	15298
916.595	15207
916.708	15298
916.82	15218
916.932	15173
917.044	15097
917.156	15047
917.268	15081
917.38	15028
917.491	14998
917.603	15036
917.715	15051
917.826	14952
917.938	14975
918.049	14819
918.161	15013
918.272	15055
918.384	15058
918.495	14880
918.606	14807
918.717	14724
918.828	14743
918.939	14819
919.05	14701
919.161	14754
919.272	14446
919.383	14682
919.494	14773
919.604	14826
919.715	14674
919.826	14621
919.936	14648
920.047	14746
920.157	14735
920.267	14948
920.378	14629
920.488	14670
920.598	14914
920.708	15062
920.818	14887
920.928	14933
921.038	14982
921.148	14990
921.258	14682
921.368	14655
921.477	14606
921.587	14480
921.697	14358
921.806	14438
921.916	14313
922.025	14210
922.134	14157
922.244	14005
922.353	14096
922.462	13890
922.571	13906
922.68	13742
922.789	13753
922.898	13689
923.007	13601
923.116	13708
923.224	13734
923.333	13636
923.442	13559
923.55	13537
923.659	13582
923.767	13605
923.876	13495
923.984	13613
924.092	13422
924.201	13510
924.309	13476
924.417	13430
924.525	13453
924.633	13365
924.741	14096
924.849	13179
924.956	13312
925.064	13183
925.172	13046
925.279	13099
925.387	13069
925.494	13076
925.602	13187
925.709	13270
925.816	12993
925.924	13103
926.031	13145
926.138	13034
926.245	13053
926.352	12943
926.459	13118
926.566	13183
926.673	13057
926.779	12939
926.886	12837
926.993	12768
927.099	12707
927.206	12692
927.312	12658
927.419	12768
927.525	12684
927.631	12715
927.737	12578
927.843	12475
927.95	12471
928.056	12414
928.162	12544
928.267	12582
928.373	13141
928.479	12585
928.585	12353
928.69	12441
928.796	12494
928.901	12342
929.007	12232
929.112	12433
929.218	12346
929.323	12251
929.428	12182
929.533	12384
929.638	12148
929.743	12251
929.848	12232
929.953	12163
930.058	12034
930.163	11916
930.267	11946
930.372	12072
930.477	11840
930.581	12076
930.685	11977
930.79	11786
930.894	11805
930.998	11821
931.103	11954
931.207	11497
931.311	11505
931.415	11387
931.519	11178
931.623	11197
