Data from test_V78500241_1410.txt Node
Date: Fri Mar 25 15:19:40 CST 2022
User: usil
Spectrometer: V785-0024
Trigger mode: 0
Integration Time (sec): 4.000000E-1
Scans to average: 1
Nonlinearity correction enabled: false
Boxcar width: 0
Storing dark spectrum: false
XAxis mode: Wavelengths
Number of Pixels in Spectrum: 1024
>>>>>Begin Spectral Data<<<<<
801.071	28207
801.214	28078
801.356	27960
801.499	27979
801.641	27785
801.783	27694
801.926	27793
802.068	27717
802.211	27701
802.353	27614
802.496	27389
802.638	27378
802.78	27268
802.923	27443
803.065	27233
803.208	27340
803.35	27283
803.492	27450
803.635	27504
803.777	27382
803.919	27496
804.061	27816
804.204	27576
804.346	27485
804.488	27564
804.63	27561
804.773	27583
804.915	27717
805.057	27690
805.199	27591
805.341	27606
805.483	27705
805.626	27603
805.768	27622
805.91	27755
806.052	27717
806.194	27667
806.336	27960
806.478	27774
806.62	27800
806.762	27827
806.904	27949
807.046	28124
807.188	28078
807.33	28070
807.472	28303
807.614	28128
807.756	28154
807.898	28013
808.04	27979
808.182	27994
808.324	28032
808.465	28070
808.607	28238
808.749	28379
808.891	28497
809.033	28542
809.174	28417
809.316	28466
809.458	28409
809.6	28287
809.741	28542
809.883	28554
810.025	28672
810.166	28675
810.308	28599
810.45	28664
810.591	28622
810.733	28371
810.875	28318
811.016	28139
811.158	28246
811.299	28390
811.441	28493
811.582	28546
811.724	28432
811.865	28333
812.007	28432
812.148	28382
812.29	28337
812.431	28565
812.573	28755
812.714	28843
812.855	28995
812.997	28949
813.138	29109
813.279	29159
813.421	29018
813.562	28885
813.703	28725
813.845	28691
813.986	28432
814.127	28192
814.268	28139
814.41	28196
814.551	28082
814.692	28211
814.833	28040
814.974	28059
815.115	28086
815.256	27797
815.397	27937
815.539	27934
815.68	27823
815.821	27876
815.962	28006
816.103	27766
816.244	27903
816.385	27770
816.526	27728
816.666	27488
816.807	27363
816.948	27542
817.089	27435
817.23	27443
817.371	27233
817.512	27260
817.653	27344
817.793	27245
817.934	27416
818.075	27458
818.216	27268
818.356	27332
818.497	27427
818.638	27089
818.778	27184
818.919	27100
819.06	27138
819.2	27287
819.341	27485
819.481	27367
819.622	27519
819.762	27667
819.903	27633
820.043	27648
820.184	27427
820.324	27500
820.465	27633
820.605	27545
820.746	27431
820.886	27401
821.026	27466
821.167	27583
821.307	27488
821.447	27298
821.588	27317
821.728	27119
821.868	26956
822.008	26956
822.149	26861
822.289	26788
822.429	26663
822.569	26712
822.709	26541
822.849	26366
822.99	26389
823.13	26385
823.27	26355
823.41	26058
823.55	26119
823.69	26305
823.83	26183
823.97	26054
824.11	26119
824.25	25978
824.389	26035
824.529	26229
824.669	26058
824.809	25970
824.949	26233
825.089	26058
825.228	26164
825.368	25883
825.508	25966
825.648	25997
825.787	25909
825.927	26020
826.067	25818
826.206	25811
826.346	25989
826.485	25868
826.625	25913
826.765	25986
826.904	26027
827.044	25704
827.183	25681
827.323	25635
827.462	25677
827.601	25700
827.741	25753
827.88	25677
828.02	25460
828.159	25575
828.298	25609
828.437	25643
828.577	25495
828.716	25719
828.855	25586
828.994	25403
829.134	25282
829.273	25407
829.412	25274
829.551	25293
829.69	25426
829.829	25316
829.968	25411
830.107	25331
830.246	25392
830.385	25202
830.524	25187
830.663	25194
830.802	25053
830.941	24814
831.08	24939
831.219	25008
831.357	24951
831.496	25221
831.635	24916
831.774	24935
831.913	24814
832.051	24730
832.19	24616
832.329	24757
832.467	24673
832.606	24467
832.744	24661
832.883	24559
833.022	24574
833.16	24597
833.299	24768
833.437	24639
833.576	24585
833.714	24585
833.852	24700
833.991	24787
834.129	24741
834.267	24696
834.406	24692
834.544	24608
834.682	24741
834.821	24589
834.959	24878
835.097	24601
835.235	24597
835.373	24597
835.511	24574
835.65	24593
835.788	24490
835.926	24448
836.064	24289
836.202	24228
836.34	24418
836.478	24627
836.615	24361
836.753	24521
836.891	24551
837.029	24540
837.167	24361
837.305	24277
837.443	24334
837.58	24277
837.718	24456
837.856	24361
837.993	24258
838.131	24300
838.269	24311
838.406	24311
838.544	24102
838.681	24022
838.819	23980
838.956	23893
839.094	23786
839.231	23756
839.369	24068
839.506	24247
839.643	23965
839.781	23904
839.918	23832
840.055	23775
840.193	23699
840.33	23646
840.467	23718
840.604	23779
840.742	23870
840.879	23554
841.016	23604
841.153	23558
841.29	23817
841.427	23798
841.564	23668
841.701	23722
841.838	23649
841.975	23611
842.112	23490
842.249	23421
842.385	23448
842.522	23604
842.659	23440
842.796	23410
842.933	23459
843.069	23463
843.206	23410
843.343	23482
843.479	23391
843.616	23368
843.752	23269
843.889	23280
844.025	23395
844.162	23288
844.298	23299
844.435	23242
844.571	23269
844.708	23204
844.844	23356
844.98	23303
845.117	23349
845.253	23102
845.389	23178
845.525	23029
845.661	23060
845.798	22927
845.934	22953
846.07	22748
846.206	22778
846.342	23098
846.478	22923
846.614	22645
846.75	22717
846.886	22607
847.022	22820
847.158	22706
847.294	22596
847.429	22782
847.565	22618
847.701	22812
847.837	22470
847.972	22360
848.108	22459
848.244	22470
848.379	22402
848.515	22363
848.65	22246
848.786	22200
848.921	22333
849.057	22394
849.192	22318
849.328	22333
849.463	22303
849.598	22215
849.734	22131
849.869	21994
850.004	22124
850.14	22074
850.275	22109
850.41	21899
850.545	21983
850.68	21888
850.815	21930
850.95	21861
851.085	22204
851.22	22101
851.355	22074
851.49	22006
851.625	22010
851.76	21975
851.895	21838
852.03	21876
852.165	21975
852.299	22112
852.434	22010
852.569	21968
852.703	22048
852.838	22086
852.973	22147
853.107	22131
853.242	22021
853.376	21918
853.511	21774
853.645	21804
853.78	22021
853.914	21960
854.048	21804
854.183	21812
854.317	21941
854.451	22063
854.585	21762
854.72	21956
854.854	21797
854.988	21690
855.122	21778
855.256	21785
855.39	21987
855.524	21998
855.658	21850
855.792	21785
855.926	21835
856.06	21899
856.194	21842
856.327	21876
856.461	21751
856.595	21663
856.729	21755
856.862	22002
856.996	21831
857.13	22044
857.263	21865
857.397	21888
857.53	21778
857.664	21831
857.797	21899
857.931	21785
858.064	21793
858.197	22036
858.331	21899
858.464	21766
858.597	21770
858.731	21827
858.864	21865
858.997	21622
859.13	21922
859.263	21747
859.396	21899
859.529	21770
859.662	21846
859.795	21812
859.928	21953
860.061	22070
860.194	22109
860.327	21865
860.46	21823
860.592	21911
860.725	21937
860.858	22093
860.99	21857
861.123	21755
861.256	21774
861.388	21816
861.521	22413
861.653	21690
861.786	21523
861.918	21698
862.05	21709
862.183	21743
862.315	21720
862.447	21857
862.58	21819
862.712	21644
862.844	21519
862.976	21663
863.108	21492
863.24	21968
863.372	21408
863.504	21553
863.636	21488
863.768	21652
863.9	21466
864.032	21428
864.164	21523
864.296	21500
864.428	21679
864.559	21561
864.691	21614
864.823	21534
864.954	21488
865.086	21542
865.217	21466
865.349	21401
865.48	21443
865.612	21431
865.743	21530
865.875	21283
866.006	21340
866.137	21511
866.269	21397
866.4	21393
866.531	21264
866.662	21397
866.793	21298
866.924	21359
867.055	21382
867.186	21450
867.317	21405
867.448	21165
867.579	21237
867.71	21211
867.841	21306
867.972	21447
868.103	21294
868.233	21321
868.364	21298
868.495	21447
868.625	21583
868.756	21652
868.886	21515
869.017	21572
869.147	21663
869.278	21747
869.408	21580
869.539	21416
869.669	21724
869.799	21736
869.929	21667
870.06	21717
870.19	22040
870.32	21800
870.45	21884
870.58	21915
870.71	22040
870.84	22112
870.97	21979
871.1	22063
871.23	22131
871.36	22162
871.489	22188
871.619	22116
871.749	22200
871.879	22215
872.008	22329
872.138	22185
872.267	22169
872.397	22078
872.526	22040
872.656	22055
872.785	22021
872.915	22147
873.044	22272
873.173	22135
873.303	22295
873.432	22375
873.561	22280
873.69	22356
873.819	22226
873.948	22253
874.077	22261
874.206	22150
874.335	22166
874.464	22325
874.593	22371
874.722	22470
874.851	22375
874.979	22443
875.108	22421
875.237	22333
875.365	22287
875.494	22379
875.623	22322
875.751	22306
875.88	22341
876.008	22497
876.136	22508
876.265	22744
876.393	22885
876.521	22858
876.65	22786
876.778	22774
876.906	22797
877.034	22637
877.162	22820
877.29	22599
877.418	22892
877.546	22759
877.674	22683
877.802	22812
877.93	22645
878.058	22706
878.185	22538
878.313	22645
878.441	22755
878.568	22512
878.696	22599
878.824	22786
878.951	22862
879.079	22881
879.206	22949
879.333	22919
879.461	22809
879.588	22889
879.715	22953
879.842	23010
879.97	22858
880.097	22538
880.224	22550
880.351	22535
880.478	22535
880.605	22584
880.732	22656
880.859	22801
880.986	22649
881.112	22584
881.239	22432
881.366	22352
881.493	22257
881.619	22135
881.746	22246
881.872	22253
881.999	22109
882.125	22013
882.252	22086
882.378	22082
882.505	22154
882.631	22048
882.757	21804
882.883	21941
883.01	21709
883.136	21705
883.262	21690
883.388	21739
883.514	21800
883.64	21785
883.766	21663
883.892	21530
884.018	21633
884.143	21709
884.269	21797
884.395	21447
884.52	21416
884.646	21538
884.772	21412
884.897	21336
885.023	21504
885.148	21618
885.274	21713
885.399	21576
885.524	21526
885.65	21557
885.775	21363
885.9	21378
886.025	21507
886.15	21534
886.275	21306
886.4	21408
886.525	21466
886.65	21428
886.775	21431
886.9	21660
887.025	21656
887.149	21515
887.274	21275
887.399	21264
887.523	21291
887.648	21165
887.773	21123
887.897	21195
888.021	21256
888.146	21241
888.27	21336
888.395	21325
888.519	21397
888.643	21272
888.767	21237
888.891	21001
889.015	21013
889.139	21058
889.263	21017
889.387	21199
889.511	21157
889.635	21211
889.759	20963
889.883	21058
890.006	20975
890.13	21173
890.254	20975
890.377	20895
890.501	20758
890.624	20838
890.748	20849
890.871	20617
890.995	20552
891.118	20587
891.241	20549
891.364	20568
891.488	20735
891.611	20511
891.734	20606
891.857	20621
891.98	20583
892.103	20606
892.226	20583
892.349	20590
892.471	20347
892.594	20484
892.717	20476
892.839	20465
892.962	20393
893.085	20689
893.207	20396
893.33	20465
893.452	20495
893.575	20511
893.697	20480
893.819	20507
893.941	20682
894.064	20636
894.186	20419
894.308	20404
894.43	20587
894.552	20678
894.674	20564
894.796	20351
894.918	20454
895.04	20282
895.161	20545
895.283	20522
895.405	20434
895.526	20366
895.648	20366
895.769	20400
895.891	20446
896.012	20651
896.134	20530
896.255	20446
896.376	20431
896.498	20377
896.619	20488
896.74	20484
896.861	20594
896.982	20777
897.103	20781
897.224	20689
897.345	20667
897.466	20689
897.587	20758
897.708	20811
897.828	20693
897.949	20613
898.07	20514
898.19	20674
898.311	20708
898.431	20552
898.552	20708
898.672	20762
898.792	20705
898.913	20682
899.033	20571
899.153	20347
899.273	20412
899.393	20396
899.513	20438
899.633	20377
899.753	20366
899.873	20419
899.993	20492
900.113	20313
900.232	20381
900.352	20317
900.472	20252
900.591	20195
900.711	20282
900.83	20263
900.95	20225
901.069	20206
901.189	20092
901.308	19936
901.427	19791
901.546	19719
901.665	19780
901.784	19807
901.904	19639
902.023	19483
902.141	19426
902.26	19419
902.379	19403
902.498	19236
902.617	19190
902.735	19293
902.854	19225
902.973	19156
903.091	18958
903.21	18966
903.328	18951
903.446	18913
903.565	18783
903.683	18734
903.801	18639
903.919	18772
904.038	18639
904.156	18494
904.274	18677
904.392	18471
904.51	18467
904.627	18540
904.745	18570
904.863	18589
904.981	18342
905.098	18171
905.216	18087
905.334	18174
905.451	18171
905.569	18144
905.686	18342
905.803	18174
905.921	17946
906.038	18057
906.155	17980
906.272	17843
906.389	18026
906.506	17882
906.623	17786
906.74	17672
906.857	17592
906.974	17577
907.091	17790
907.208	17802
907.324	17764
907.441	17627
907.557	17516
907.674	17417
907.79	17372
907.907	17372
908.023	17478
908.139	17455
908.256	17391
908.372	17288
908.488	17311
908.604	17124
908.72	17121
908.836	17181
908.952	17143
909.068	17231
909.184	17185
909.3	17124
909.415	17223
909.531	17121
909.647	16835
909.762	16820
909.878	16965
909.993	16774
910.108	16854
910.224	16774
910.339	16740
910.454	16615
910.57	16656
910.685	16493
910.8	16850
910.915	16858
911.03	16687
911.145	16497
911.259	16356
911.374	16451
911.489	16363
911.604	16291
911.718	16135
911.833	16211
911.947	16139
912.062	16013
912.176	16048
912.291	16116
912.405	16177
912.519	16299
912.633	16314
912.748	16276
912.862	16158
912.976	15991
913.09	15968
913.204	15854
913.318	16036
913.431	16093
913.545	15949
913.659	16173
913.772	15880
913.886	15918
914	15762
914.113	15838
914.226	15804
914.34	15880
914.453	15637
914.566	15915
914.68	15591
914.793	15675
914.906	15462
915.019	15397
915.132	15332
915.245	15504
915.358	15397
915.47	15336
915.583	15447
915.696	15393
915.809	15530
915.921	15538
916.034	15386
916.146	15264
916.259	15272
916.371	15412
916.483	15272
916.595	15150
916.708	15264
916.82	15245
916.932	15184
917.044	15233
917.156	15135
917.268	14990
917.38	15093
917.491	14979
917.603	15047
917.715	15097
917.826	15108
917.938	14880
918.049	14902
918.161	15009
918.272	15062
918.384	15100
918.495	14975
918.606	14834
918.717	14712
918.828	14754
918.939	14853
919.05	14746
919.161	14796
919.272	14533
919.383	14663
919.494	14724
919.604	14998
919.715	14674
919.826	14651
919.936	14724
920.047	14796
920.157	14667
920.267	14910
920.378	14701
920.488	14636
920.598	14914
920.708	15039
920.818	14887
920.928	14880
921.038	15085
921.148	14845
921.258	14819
921.368	14556
921.477	14575
921.587	14533
921.697	14336
921.806	14465
921.916	14298
922.025	14221
922.134	14130
922.244	14103
922.353	14142
922.462	13959
922.571	13890
922.68	13765
922.789	13784
922.898	13753
923.007	13674
923.116	13769
923.224	13837
923.333	13685
923.442	13582
923.55	13605
923.659	13624
923.767	13624
923.876	13575
923.984	13552
924.092	13460
924.201	13506
924.309	13449
924.417	13468
924.525	13384
924.633	13381
924.741	14191
924.849	13221
924.956	13392
925.064	13156
925.172	13050
925.279	13069
925.387	13168
925.494	13129
925.602	13331
925.709	13156
925.816	13057
925.924	13099
926.031	13209
926.138	13042
926.245	13118
926.352	13069
926.459	13095
926.566	13103
926.673	12977
926.779	12901
926.886	12897
926.993	12715
927.099	12665
927.206	12631
927.312	12612
927.419	12795
927.525	12817
927.631	12703
927.737	12627
927.843	12585
927.95	12490
928.056	12490
928.162	12532
928.267	12490
928.373	13270
928.479	12574
928.585	12361
928.69	12403
928.796	12433
928.901	12407
929.007	12273
929.112	12395
929.218	12391
929.323	12285
929.428	12258
929.533	12422
929.638	12190
929.743	12205
929.848	12213
929.953	12167
930.058	11988
930.163	11931
930.267	11878
930.372	12144
930.477	11912
930.581	12133
930.685	11954
930.79	11809
930.894	11882
930.998	11745
931.103	11961
931.207	11661
931.311	11524
931.415	11417
931.519	11201
931.623	11136
