Data from test_V78500241_918.txt Node
Date: Fri Mar 25 15:16:15 CST 2022
User: usil
Spectrometer: V785-0024
Trigger mode: 0
Integration Time (sec): 4.000000E-1
Scans to average: 1
Nonlinearity correction enabled: false
Boxcar width: 0
Storing dark spectrum: false
XAxis mode: Wavelengths
Number of Pixels in Spectrum: 1024
>>>>>Begin Spectral Data<<<<<
801.071	28215
801.214	28013
801.356	27953
801.499	27812
801.641	27663
801.783	27690
801.926	27842
802.068	27762
802.211	27595
802.353	27606
802.496	27176
802.638	27344
802.78	27313
802.923	27298
803.065	27458
803.208	27466
803.35	27424
803.492	27523
803.635	27454
803.777	27568
803.919	27545
804.061	27785
804.204	27694
804.346	27374
804.488	27496
804.63	27591
804.773	27355
804.915	27614
805.057	27831
805.199	27648
805.341	27679
805.483	27789
805.626	27736
805.768	27523
805.91	27739
806.052	27724
806.194	27698
806.336	27804
806.478	27861
806.62	27743
806.762	27903
806.904	28090
807.046	28261
807.188	28082
807.33	28150
807.472	28097
807.614	27956
807.756	28105
807.898	27979
808.04	27960
808.182	28040
808.324	28181
808.465	28048
808.607	28238
808.749	28432
808.891	28577
809.033	28615
809.174	28504
809.316	28284
809.458	28447
809.6	28325
809.741	28603
809.883	28641
810.025	28820
810.166	28637
810.308	28843
810.45	28668
810.591	28565
810.733	28424
810.875	28367
811.016	28413
811.158	28375
811.299	28599
811.441	28599
811.582	28504
811.724	28481
811.865	28337
812.007	28375
812.148	28500
812.29	28382
812.431	28611
812.573	28744
812.714	28805
812.855	28961
812.997	29075
813.138	29109
813.279	29083
813.421	29029
813.562	28923
813.703	28778
813.845	28569
813.986	28356
814.127	28360
814.268	28093
814.41	28120
814.551	28086
814.692	28154
814.833	28025
814.974	28040
815.115	28082
815.256	28036
815.397	27998
815.539	27960
815.68	27876
815.821	27888
815.962	27876
816.103	27895
816.244	27812
816.385	27804
816.526	27637
816.666	27473
816.807	27519
816.948	27427
817.089	27686
817.23	27477
817.371	27386
817.512	27355
817.653	27336
817.793	27363
817.934	27492
818.075	27374
818.216	27389
818.356	27488
818.497	27249
818.638	27093
818.778	27291
818.919	27336
819.06	27169
819.2	27211
819.341	27374
819.481	27496
819.622	27477
819.762	27709
819.903	27591
820.043	27774
820.184	27526
820.324	27564
820.465	27557
820.605	27568
820.746	27458
820.886	27355
821.026	27492
821.167	27458
821.307	27504
821.447	27450
821.588	27393
821.728	27310
821.868	26960
822.008	26979
822.149	26971
822.289	26861
822.429	26701
822.569	26606
822.709	26518
822.849	26396
822.99	26469
823.13	26400
823.27	26259
823.41	26142
823.55	26119
823.69	26191
823.83	26161
823.97	26153
824.11	25921
824.25	25986
824.389	25978
824.529	26081
824.669	26062
824.809	26233
824.949	26214
825.089	26195
825.228	26115
825.368	25997
825.508	25856
825.648	25932
825.787	26016
825.927	25898
826.067	25966
826.206	25944
826.346	25993
826.485	26039
826.625	25913
826.765	25955
826.904	26005
827.044	25731
827.183	25693
827.323	25677
827.462	25776
827.601	25753
827.741	25734
827.88	25723
828.02	25674
828.159	25689
828.298	25635
828.437	25837
828.577	25499
828.716	25883
828.855	25521
828.994	25358
829.134	25426
829.273	25449
829.412	25400
829.551	25270
829.69	25373
829.829	25411
829.968	25403
830.107	25369
830.246	25415
830.385	25384
830.524	25430
830.663	25259
830.802	25084
830.941	25034
831.08	24947
831.219	25008
831.357	25046
831.496	25206
831.635	24966
831.774	24840
831.913	24711
832.051	24783
832.19	24795
832.329	24962
832.467	24791
832.606	24620
832.744	24612
832.883	24635
833.022	24639
833.16	24722
833.299	24646
833.437	24696
833.576	24768
833.714	24795
833.852	24734
833.991	24757
834.129	24840
834.267	24760
834.406	24703
834.544	24673
834.682	24734
834.821	24559
834.959	24886
835.097	24623
835.235	24806
835.373	24821
835.511	24692
835.65	24437
835.788	24502
835.926	24414
836.064	24441
836.202	24426
836.34	24597
836.478	24578
836.615	24517
836.753	24525
836.891	24479
837.029	24673
837.167	24585
837.305	24490
837.443	24445
837.58	24509
837.718	24384
837.856	24380
837.993	24308
838.131	24429
838.269	24273
838.406	24357
838.544	24182
838.681	24076
838.819	24018
838.956	23851
839.094	23745
839.231	23893
839.369	23927
839.506	24148
839.643	24087
839.781	23935
839.918	23790
840.055	23866
840.193	23984
840.33	23847
840.467	23729
840.604	23767
840.742	24060
840.879	23592
841.016	23703
841.153	23570
841.29	23843
841.427	23729
841.564	23745
841.701	23824
841.838	23680
841.975	23657
842.112	23653
842.249	23615
842.385	23528
842.522	23832
842.659	23554
842.796	23535
842.933	23524
843.069	23364
843.206	23440
843.343	23585
843.479	23490
843.616	23448
843.752	23349
843.889	23254
844.025	23482
844.162	23223
844.298	23452
844.435	23292
844.571	23284
844.708	23372
844.844	23360
844.98	23448
845.117	23421
845.253	23235
845.389	23258
845.525	23254
845.661	23174
845.798	23151
845.934	23162
846.07	22904
846.206	23109
846.342	23170
846.478	22980
846.614	22831
846.75	22698
846.886	22710
847.022	22721
847.158	22759
847.294	22717
847.429	22824
847.565	22660
847.701	23113
847.837	22531
847.972	22470
848.108	22622
848.244	22497
848.379	22337
848.515	22310
848.65	22295
848.786	22371
848.921	22249
849.057	22554
849.192	22413
849.328	22512
849.463	22329
849.598	22356
849.734	22280
849.869	22131
850.004	22188
850.14	22074
850.275	22078
850.41	22116
850.545	22029
850.68	22082
850.815	22101
850.95	22154
851.085	22257
851.22	22181
851.355	22166
851.49	22162
851.625	22200
851.76	22021
851.895	22006
852.03	22040
852.165	22074
852.299	22059
852.434	22162
852.569	22188
852.703	22112
852.838	22124
852.973	22257
853.107	22139
853.242	22006
853.376	22116
853.511	21797
853.645	21861
853.78	22044
853.914	21964
854.048	21846
854.183	21823
854.317	21983
854.451	22154
854.585	21918
854.72	21934
854.854	21953
854.988	21778
855.122	21808
855.256	21759
855.39	21922
855.524	22013
855.658	22051
855.792	21873
855.926	21953
856.06	21975
856.194	21949
856.327	21884
856.461	21888
856.595	21941
856.729	21930
856.862	22010
856.996	21949
857.13	22044
857.263	21987
857.397	22101
857.53	21876
857.664	21979
857.797	22017
857.931	22013
858.064	21949
858.197	22074
858.331	21838
858.464	21827
858.597	21755
858.731	21804
858.864	21854
858.997	21835
859.13	21991
859.263	21922
859.396	21922
859.529	21926
859.662	21808
859.795	21831
859.928	21907
860.061	22166
860.194	22063
860.327	21956
860.46	21953
860.592	22070
860.725	22029
860.858	22090
860.99	21793
861.123	21850
861.256	21819
861.388	21827
861.521	22733
861.653	21793
861.786	21876
861.918	21781
862.05	22021
862.183	21857
862.315	21949
862.447	21972
862.58	21724
862.712	21675
862.844	21606
862.976	21797
863.108	21587
863.24	21937
863.372	21599
863.504	21618
863.636	21648
863.768	21663
863.9	21618
864.032	21603
864.164	21519
864.296	21644
864.428	21781
864.559	21762
864.691	21736
864.823	21667
864.954	21614
865.086	21610
865.217	21667
865.349	21538
865.48	21507
865.612	21572
865.743	21789
865.875	21580
866.006	21466
866.137	21500
866.269	21523
866.4	21564
866.531	21393
866.662	21412
866.793	21431
866.924	21367
867.055	21439
867.186	21450
867.317	21408
867.448	21405
867.579	21416
867.71	21431
867.841	21332
867.972	21420
868.103	21397
868.233	21622
868.364	21389
868.495	21458
868.625	21652
868.756	21770
868.886	21507
869.017	21660
869.147	21835
869.278	21667
869.408	21728
869.539	21690
869.669	21679
869.799	21736
869.929	21804
870.06	21705
870.19	22032
870.32	22090
870.45	22032
870.58	22048
870.71	22169
870.84	22097
870.97	22044
871.1	22048
871.23	22295
871.36	22200
871.489	22261
871.619	22192
871.749	22204
871.879	22215
872.008	22394
872.138	22291
872.267	22169
872.397	22135
872.526	22109
872.656	22067
872.785	22150
872.915	22261
873.044	22249
873.173	22295
873.303	22238
873.432	22375
873.561	22394
873.69	22295
873.819	22219
873.948	22352
874.077	22287
874.206	22257
874.335	22356
874.464	22421
874.593	22443
874.722	22519
874.851	22519
874.979	22413
875.108	22516
875.237	22447
875.365	22455
875.494	22421
875.623	22546
875.751	22531
875.88	22523
876.008	22679
876.136	22725
876.265	22911
876.393	23067
876.521	22942
876.65	22953
876.778	22862
876.906	22843
877.034	22843
877.162	22831
877.29	22801
877.418	22885
877.546	22774
877.674	22839
877.802	22729
877.93	22850
878.058	22710
878.185	22767
878.313	22847
878.441	22786
878.568	22736
878.696	22755
878.824	22862
878.951	22957
879.079	23121
879.206	23029
879.333	22953
879.461	22835
879.588	23003
879.715	23044
879.842	23166
879.97	22889
880.097	22588
880.224	22694
880.351	22713
880.478	22557
880.605	22577
880.732	22691
880.859	22805
880.986	22462
881.112	22702
881.239	22470
881.366	22546
881.493	22284
881.619	22219
881.746	22310
881.872	22238
881.999	22211
882.125	22185
882.252	22177
882.378	22147
882.505	22284
882.631	22082
882.757	21804
882.883	21987
883.01	21922
883.136	21994
883.262	21808
883.388	21789
883.514	22048
883.64	22078
883.766	21804
883.892	21800
884.018	21785
884.143	21778
884.269	21964
884.395	21595
884.52	21587
884.646	21557
884.772	21545
884.897	21405
885.023	21603
885.148	21625
885.274	21644
885.399	21717
885.524	21458
885.65	21561
885.775	21587
885.9	21450
886.025	21656
886.15	21694
886.275	21416
886.4	21408
886.525	21580
886.65	21408
886.775	21496
886.9	21606
887.025	21755
887.149	21572
887.274	21458
887.399	21237
887.523	21355
887.648	21241
887.773	21279
887.897	21378
888.021	21252
888.146	21241
888.27	21355
888.395	21348
888.519	21351
888.643	21329
888.767	21370
888.891	21302
889.015	21203
889.139	21119
889.263	21028
889.387	21256
889.511	21287
889.635	21203
889.759	21116
889.883	21199
890.006	21119
890.13	21131
890.254	21074
890.377	20979
890.501	21036
890.624	20842
890.748	20990
890.871	20823
890.995	20697
891.118	20583
891.241	20686
891.364	20511
891.488	20727
891.611	20804
891.734	20670
891.857	20758
891.98	20579
892.103	20617
892.226	20727
892.349	20663
892.471	20533
892.594	20670
892.717	20720
892.839	20549
892.962	20507
893.085	20655
893.207	20648
893.33	20518
893.452	20503
893.575	20659
893.697	20541
893.819	20788
893.941	20712
894.064	20781
894.186	20533
894.308	20495
894.43	20579
894.552	20705
894.674	20697
894.796	20522
894.918	20514
895.04	20480
895.161	20606
895.283	20667
895.405	20579
895.526	20526
895.648	20396
895.769	20579
895.891	20632
896.012	20590
896.134	20549
896.255	20629
896.376	20537
896.498	20450
896.619	20621
896.74	20556
896.861	20629
896.982	20864
897.103	21028
897.224	20990
897.345	20777
897.466	20716
897.587	20735
897.708	20887
897.828	20777
897.949	20705
898.07	20625
898.19	20682
898.311	20750
898.431	20735
898.552	20773
898.672	20640
898.792	20872
898.913	20735
899.033	20625
899.153	20594
899.273	20507
899.393	20590
899.513	20541
899.633	20606
899.753	20495
899.873	20488
899.993	20545
900.113	20495
900.232	20533
900.352	20473
900.472	20393
900.591	20301
900.711	20309
900.83	20294
900.95	20320
901.069	20400
901.189	20142
901.308	19970
901.427	19803
901.546	19989
901.665	19883
901.784	19856
901.904	19803
902.023	19746
902.141	19384
902.26	19453
902.379	19510
902.498	19358
902.617	19415
902.735	19396
902.854	19320
902.973	19263
903.091	18977
903.21	19072
903.328	18951
903.446	18920
903.565	18924
903.683	18833
903.801	18779
903.919	18791
904.038	18726
904.156	18604
904.274	18715
904.392	18563
904.51	18540
904.627	18570
904.745	18570
904.863	18646
904.981	18426
905.098	18380
905.216	18190
905.334	18304
905.451	18251
905.569	18296
905.686	18220
905.803	18197
905.921	18076
906.038	18133
906.155	18049
906.272	17961
906.389	18019
906.506	17703
906.623	17805
906.74	17870
906.857	17722
906.974	17741
907.091	17805
907.208	17882
907.324	17745
907.441	17634
907.557	17589
907.674	17528
907.79	17368
907.907	17524
908.023	17459
908.139	17512
908.256	17474
908.372	17406
908.488	17448
908.604	17265
908.72	17223
908.836	17341
908.952	17204
909.068	17250
909.184	17307
909.3	17117
909.415	17246
909.531	17155
909.647	16965
909.762	16999
909.878	16866
909.993	16949
910.108	16942
910.224	16972
910.339	16881
910.454	16900
910.57	16672
910.685	16702
910.8	16984
910.915	16866
911.03	16725
911.145	16546
911.259	16569
911.374	16519
911.489	16341
911.604	16344
911.718	16204
911.833	16284
911.947	16154
912.062	16090
912.176	16223
912.291	16261
912.405	16177
912.519	16356
912.633	16493
912.748	16284
912.862	16196
912.976	16044
913.09	16067
913.204	15998
913.318	16135
913.431	16112
913.545	16112
913.659	16162
913.772	15960
913.886	15987
914	15808
914.113	15987
914.226	15968
914.34	15987
914.453	15774
914.566	15903
914.68	15686
914.793	15762
914.906	15542
915.019	15591
915.132	15386
915.245	15408
915.358	15473
915.47	15386
915.583	15462
915.696	15485
915.809	15530
915.921	15591
916.034	15466
916.146	15207
916.259	15359
916.371	15485
916.483	15431
916.595	15245
916.708	15241
916.82	15260
916.932	15108
917.044	15192
917.156	15097
917.268	15142
917.38	15131
917.491	15108
917.603	15127
917.715	15188
917.826	15135
917.938	14891
918.049	14937
918.161	15074
918.272	15138
918.384	15157
918.495	15024
918.606	14887
918.717	14807
918.828	14872
918.939	14910
919.05	14796
919.161	14864
919.272	14739
919.383	14674
919.494	14758
919.604	15020
919.715	14929
919.826	14606
919.936	14743
920.047	14796
920.157	14739
920.267	14948
920.378	14914
920.488	14792
920.598	15062
920.708	15104
920.818	14914
920.928	15005
921.038	15020
921.148	15062
921.258	14644
921.368	14644
921.477	14507
921.587	14564
921.697	14434
921.806	14552
921.916	14355
922.025	14244
922.134	14172
922.244	14084
922.353	14134
922.462	14161
922.571	13936
922.68	13898
922.789	13776
922.898	13811
923.007	13818
923.116	13868
923.224	13769
923.333	13841
923.442	13662
923.55	13597
923.659	13696
923.767	13784
923.876	13548
923.984	13666
924.092	13525
924.201	13529
924.309	13563
924.417	13662
924.525	13392
924.633	13491
924.741	14408
924.849	13289
924.956	13381
925.064	13213
925.172	13122
925.279	13236
925.387	13236
925.494	13168
925.602	13297
925.709	13221
925.816	13137
925.924	13076
926.031	13259
926.138	13171
926.245	13179
926.352	13164
926.459	13168
926.566	13149
926.673	13099
926.779	13046
926.886	13019
926.993	12901
927.099	12719
927.206	12715
927.312	12673
927.419	12806
927.525	12791
927.631	12779
927.737	12650
927.843	12669
927.95	12441
928.056	12623
928.162	12597
928.267	12665
928.373	13209
928.479	12734
928.585	12467
928.69	12525
928.796	12566
928.901	12452
929.007	12346
929.112	12467
929.218	12376
929.323	12380
929.428	12232
929.533	12361
929.638	12315
929.743	12281
929.848	12311
929.953	12190
930.058	12197
930.163	11984
930.267	11946
930.372	12034
930.477	12003
930.581	12136
930.685	12064
930.79	11912
930.894	11874
930.998	11859
931.103	12060
931.207	11592
931.311	11570
931.415	11410
931.519	11208
931.623	11303
