Data from test_V78500241_1070.txt Node
Date: Fri Mar 25 15:17:18 CST 2022
User: usil
Spectrometer: V785-0024
Trigger mode: 0
Integration Time (sec): 4.000000E-1
Scans to average: 1
Nonlinearity correction enabled: false
Boxcar width: 0
Storing dark spectrum: false
XAxis mode: Wavelengths
Number of Pixels in Spectrum: 1024
>>>>>Begin Spectral Data<<<<<
801.071	28265
801.214	28207
801.356	28002
801.499	28055
801.641	27819
801.783	27720
801.926	27835
802.068	27705
802.211	27698
802.353	27755
802.496	27431
802.638	27427
802.78	27481
802.923	27313
803.065	27386
803.208	27420
803.35	27580
803.492	27515
803.635	27591
803.777	27477
803.919	27648
804.061	27873
804.204	27797
804.346	27652
804.488	27610
804.63	27854
804.773	27644
804.915	27808
805.057	27816
805.199	27698
805.341	27770
805.483	27736
805.626	27789
805.768	27667
805.91	27823
806.052	27873
806.194	27766
806.336	28010
806.478	27850
806.62	27968
806.762	28032
806.904	28017
807.046	28356
807.188	28276
807.33	28344
807.472	28272
807.614	28196
807.756	28268
807.898	28234
808.04	28044
808.182	28044
808.324	28128
808.465	28230
808.607	28436
808.749	28413
808.891	28565
809.033	28649
809.174	28481
809.316	28440
809.458	28493
809.6	28538
809.741	28561
809.883	28607
810.025	28866
810.166	28831
810.308	28816
810.45	28683
810.591	28634
810.733	28599
810.875	28497
811.016	28557
811.158	28363
811.299	28550
811.441	28675
811.582	28508
811.724	28516
811.865	28516
812.007	28489
812.148	28481
812.29	28481
812.431	28752
812.573	28790
812.714	28965
812.855	29071
812.997	29075
813.138	29288
813.279	29170
813.421	29204
813.562	29254
813.703	28835
813.845	28774
813.986	28455
814.127	28295
814.268	28223
814.41	28386
814.551	28291
814.692	28280
814.833	28207
814.974	28223
815.115	28059
815.256	28120
815.397	28025
815.539	28211
815.68	28048
815.821	27998
815.962	28032
816.103	28021
816.244	27994
816.385	27827
816.526	27774
816.666	27743
816.807	27606
816.948	27580
817.089	27705
817.23	27648
817.371	27652
817.512	27561
817.653	27481
817.793	27572
817.934	27557
818.075	27561
818.216	27599
818.356	27530
818.497	27420
818.638	27302
818.778	27439
818.919	27207
819.06	27241
819.2	27355
819.341	27538
819.481	27504
819.622	27743
819.762	27865
819.903	27804
820.043	27641
820.184	27705
820.324	27557
820.465	27675
820.605	27774
820.746	27561
820.886	27420
821.026	27694
821.167	27530
821.307	27656
821.447	27568
821.588	27481
821.728	27412
821.868	27218
822.008	27096
822.149	27077
822.289	26937
822.429	26826
822.569	26644
822.709	26564
822.849	26522
822.99	26636
823.13	26431
823.27	26564
823.41	26480
823.55	26313
823.69	26339
823.83	26450
823.97	26278
824.11	26180
824.25	26115
824.389	26206
824.529	26298
824.669	26218
824.809	26339
824.949	26355
825.089	26225
825.228	26233
825.368	25955
825.508	26062
825.648	26115
825.787	26092
825.927	26069
826.067	26126
826.206	26130
826.346	26103
826.485	26138
826.625	25997
826.765	26252
826.904	26119
827.044	25898
827.183	25852
827.323	25712
827.462	25757
827.601	25791
827.741	25814
827.88	25837
828.02	25712
828.159	25791
828.298	25811
828.437	25837
828.577	25658
828.716	25830
828.855	25746
828.994	25491
829.134	25464
829.273	25552
829.412	25476
829.551	25468
829.69	25529
829.829	25472
829.968	25563
830.107	25479
830.246	25521
830.385	25358
830.524	25331
830.663	25335
830.802	25301
830.941	25152
831.08	25050
831.219	25175
831.357	25217
831.496	25369
831.635	25103
831.774	25042
831.913	24859
832.051	24894
832.19	24878
832.329	25050
832.467	24738
832.606	24711
832.744	24814
832.883	24741
833.022	24738
833.16	24795
833.299	24905
833.437	24795
833.576	24924
833.714	24810
833.852	24951
833.991	24962
834.129	24878
834.267	24913
834.406	24932
834.544	24905
834.682	24890
834.821	24844
834.959	24962
835.097	24734
835.235	24939
835.373	24871
835.511	24878
835.65	24779
835.788	24772
835.926	24589
836.064	24570
836.202	24661
836.34	24738
836.478	24753
836.615	24661
836.753	24719
836.891	24696
837.029	24711
837.167	24627
837.305	24601
837.443	24578
837.58	24479
837.718	24547
837.856	24513
837.993	24570
838.131	24597
838.269	24433
838.406	24521
838.544	24403
838.681	24266
838.819	24243
838.956	23954
839.094	24087
839.231	23992
839.369	24144
839.506	24578
839.643	24140
839.781	23999
839.918	23836
840.055	23996
840.193	24030
840.33	23969
840.467	23893
840.604	23988
840.742	24251
840.879	23851
841.016	23866
841.153	23992
841.29	23950
841.427	24003
841.564	23942
841.701	23893
841.838	23901
841.975	23855
842.112	23775
842.249	23676
842.385	23687
842.522	23923
842.659	23726
842.796	23619
842.933	23646
843.069	23691
843.206	23703
843.343	23748
843.479	23589
843.616	23661
843.752	23482
843.889	23471
844.025	23684
844.162	23410
844.298	23463
844.435	23524
844.571	23425
844.708	23448
844.844	23566
844.98	23615
845.117	23570
845.253	23379
845.389	23330
845.525	23292
845.661	23334
845.798	23280
845.934	23417
846.07	23223
846.206	23261
846.342	23212
846.478	23200
846.614	22934
846.75	22843
846.886	22896
847.022	22934
847.158	22999
847.294	22987
847.429	22946
847.565	22972
847.701	23200
847.837	22683
847.972	22565
848.108	22717
848.244	22733
848.379	22565
848.515	22432
848.65	22508
848.786	22592
848.921	22557
849.057	22542
849.192	22592
849.328	22596
849.463	22577
849.598	22466
849.734	22405
849.869	22386
850.004	22158
850.14	22306
850.275	22280
850.41	22139
850.545	22276
850.68	22310
850.815	22310
850.95	22166
851.085	22447
851.22	22360
851.355	22268
851.49	22272
851.625	22291
851.76	22211
851.895	22192
852.03	22272
852.165	22314
852.299	22337
852.434	22318
852.569	22207
852.703	22371
852.838	22310
852.973	22333
853.107	22421
853.242	22143
853.376	22109
853.511	22032
853.645	22112
853.78	22158
853.914	22215
854.048	22101
854.183	22051
854.317	22010
854.451	22234
854.585	22112
854.72	22029
854.854	22139
854.988	22029
855.122	22070
855.256	21975
855.39	22055
855.524	22211
855.658	22253
855.792	22143
855.926	22017
856.06	22211
856.194	22318
856.327	21964
856.461	22032
856.595	21892
856.729	22124
856.862	22101
856.996	22158
857.13	22147
857.263	22150
857.397	22154
857.53	21998
857.664	22055
857.797	22097
857.931	22204
858.064	22105
858.197	22147
858.331	22101
858.464	22010
858.597	22070
858.731	22070
858.864	22051
858.997	22013
859.13	22143
859.263	22226
859.396	22135
859.529	22074
859.662	21994
859.795	22105
859.928	22143
860.061	22173
860.194	22329
860.327	22078
860.46	22139
860.592	22253
860.725	22242
860.858	22204
860.99	22067
861.123	21987
861.256	22017
861.388	22055
861.521	22812
861.653	22029
861.786	21850
861.918	21865
862.05	21972
862.183	21926
862.315	22051
862.447	22017
862.58	21972
862.712	21823
862.844	21819
862.976	21850
863.108	21949
863.24	22246
863.372	21739
863.504	21759
863.636	21785
863.768	21846
863.9	21831
864.032	21641
864.164	21778
864.296	21854
864.428	21892
864.559	21854
864.691	21774
864.823	21835
864.954	21774
865.086	21728
865.217	21751
865.349	21705
865.48	21835
865.612	21774
865.743	21759
865.875	21698
866.006	21637
866.137	21732
866.269	21561
866.4	21675
866.531	21595
866.662	21439
866.793	21580
866.924	21656
867.055	21671
867.186	21698
867.317	21515
867.448	21530
867.579	21545
867.71	21526
867.841	21561
867.972	21614
868.103	21595
868.233	21648
868.364	21561
868.495	21595
868.625	21827
868.756	21949
868.886	21846
869.017	21808
869.147	21968
869.278	22029
869.408	21770
869.539	21812
869.669	21994
869.799	21972
869.929	21922
870.06	21968
870.19	22158
870.32	22124
870.45	22097
870.58	22246
870.71	22265
870.84	22257
870.97	22097
871.1	22363
871.23	22481
871.36	22497
871.489	22352
871.619	22386
871.749	22341
871.879	22512
872.008	22451
872.138	22470
872.267	22440
872.397	22280
872.526	22207
872.656	22280
872.785	22223
872.915	22432
873.044	22516
873.173	22440
873.303	22451
873.432	22329
873.561	22596
873.69	22386
873.819	22485
873.948	22527
874.077	22398
874.206	22363
874.335	22417
874.464	22451
874.593	22790
874.722	22675
874.851	22744
874.979	22824
875.108	22729
875.237	22607
875.365	22542
875.494	22611
875.623	22736
875.751	22565
875.88	22656
876.008	22831
876.136	22828
876.265	23086
876.393	23193
876.521	23140
876.65	23067
876.778	23098
876.906	22953
877.034	22927
877.162	23048
877.29	22930
877.418	22968
877.546	23006
877.674	23044
877.802	22995
877.93	22980
878.058	22744
878.185	22828
878.313	23025
878.441	23056
878.568	22942
878.696	22999
878.824	23117
878.951	22980
879.079	23121
879.206	23242
879.333	23079
879.461	22968
879.588	23124
879.715	23109
879.842	23246
879.97	23037
880.097	22767
880.224	22687
880.351	22904
880.478	22805
880.605	22698
880.732	22721
880.859	23109
880.986	22793
881.112	22755
881.239	22691
881.366	22584
881.493	22481
881.619	22398
881.746	22424
881.872	22417
881.999	22352
882.125	22386
882.252	22405
882.378	22287
882.505	22436
882.631	22329
882.757	22002
882.883	22139
883.01	22147
883.136	22040
883.262	22010
883.388	21869
883.514	22158
883.64	22070
883.766	22025
883.892	21816
884.018	21915
884.143	21998
884.269	22124
884.395	21713
884.52	21793
884.646	21732
884.772	21667
884.897	21564
885.023	21766
885.148	21781
885.274	21937
885.399	21812
885.524	21679
885.65	21808
885.775	21652
885.9	21610
886.025	21770
886.15	21732
886.275	21542
886.4	21576
886.525	21732
886.65	21561
886.775	21633
886.9	21778
887.025	21945
887.149	21743
887.274	21542
887.399	21439
887.523	21408
887.648	21450
887.773	21264
887.897	21545
888.021	21469
888.146	21443
888.27	21492
888.395	21500
888.519	21496
888.643	21454
888.767	21462
888.891	21306
889.015	21340
889.139	21252
889.263	21245
889.387	21378
889.511	21351
889.635	21378
889.759	21249
889.883	21199
890.006	21321
890.13	21332
890.254	21123
890.377	21222
890.501	21001
890.624	20998
890.748	21176
890.871	20895
890.995	20891
891.118	20830
891.241	20937
891.364	20864
891.488	20853
891.611	20815
891.734	20887
891.857	20902
891.98	20967
892.103	20830
892.226	20792
892.349	20689
892.471	20663
892.594	20800
892.717	20720
892.839	20845
892.962	20674
893.085	20769
893.207	20834
893.33	20617
893.452	20651
893.575	20849
893.697	20651
893.819	20788
893.941	20906
894.064	20880
894.186	20602
894.308	20670
894.43	20807
894.552	20804
894.674	20826
894.796	20579
894.918	20640
895.04	20720
895.161	20861
895.283	20678
895.405	20629
895.526	20609
895.648	20587
895.769	20731
895.891	20587
896.012	20735
896.134	20746
896.255	20697
896.376	20598
896.498	20644
896.619	20804
896.74	20659
896.861	20575
896.982	20902
897.103	21077
897.224	20826
897.345	20929
897.466	20941
897.587	20838
897.708	21096
897.828	20899
897.949	20834
898.07	20705
898.19	20834
898.311	20990
898.431	20857
898.552	20906
898.672	20956
898.792	20956
898.913	20864
899.033	20849
899.153	20670
899.273	20488
899.393	20750
899.513	20708
899.633	20655
899.753	20598
899.873	20594
899.993	20689
900.113	20503
900.232	20537
900.352	20434
900.472	20377
900.591	20347
900.711	20396
900.83	20495
900.95	20415
901.069	20454
901.189	20271
901.308	20111
901.427	20054
901.546	20149
901.665	19970
901.784	20096
901.904	19799
902.023	19811
902.141	19662
902.26	19548
902.379	19582
902.498	19563
902.617	19460
902.735	19476
902.854	19472
902.973	19335
903.091	19198
903.21	19061
903.328	19110
903.446	19080
903.565	18951
903.683	18954
903.801	18745
903.919	18913
904.038	18913
904.156	18798
904.274	18791
904.392	18692
904.51	18738
904.627	18688
904.745	18768
904.863	18669
904.981	18426
905.098	18380
905.216	18372
905.334	18460
905.451	18414
905.569	18323
905.686	18418
905.803	18448
905.921	18220
906.038	18338
906.155	18251
906.272	18072
906.389	18148
906.506	17954
906.623	18019
906.74	17882
906.857	17847
906.974	17783
907.091	17935
907.208	17992
907.324	17901
907.441	17817
907.557	17672
907.674	17646
907.79	17570
907.907	17615
908.023	17672
908.139	17722
908.256	17524
908.372	17535
908.488	17535
908.604	17273
908.72	17364
908.836	17273
908.952	17368
909.068	17395
909.184	17402
909.3	17280
909.415	17387
909.531	17258
909.647	17079
909.762	17079
909.878	17029
909.993	17006
910.108	17048
910.224	17003
910.339	16972
910.454	16968
910.57	16816
910.685	16873
910.8	17143
910.915	17025
911.03	16923
911.145	16622
911.259	16713
911.374	16634
911.489	16398
911.604	16481
911.718	16337
911.833	16375
911.947	16211
912.062	16299
912.176	16462
912.291	16459
912.405	16360
912.519	16573
912.633	16493
912.748	16405
912.862	16386
912.976	16215
913.09	16002
913.204	16173
913.318	16188
913.431	16284
913.545	16215
913.659	16333
913.772	16109
913.886	16067
914	16032
914.113	16086
914.226	16147
914.34	15979
914.453	15915
914.566	16006
914.68	15831
914.793	15736
914.906	15663
915.019	15629
915.132	15500
915.245	15652
915.358	15545
915.47	15610
915.583	15538
915.696	15584
915.809	15804
915.921	15682
916.034	15458
916.146	15428
916.259	15545
916.371	15591
916.483	15435
916.595	15412
916.708	15481
916.82	15431
916.932	15408
917.044	15374
917.156	15298
917.268	15245
917.38	15275
917.491	15192
917.603	15222
917.715	15313
917.826	15344
917.938	15119
918.049	14982
918.161	15188
918.272	15310
918.384	15218
918.495	15104
918.606	14963
918.717	14941
918.828	15058
918.939	14925
919.05	14796
919.161	14868
919.272	14708
919.383	14762
919.494	14963
919.604	15085
919.715	14876
919.826	14815
919.936	14895
920.047	14963
920.157	14857
920.267	15089
920.378	14887
920.488	14845
920.598	15074
920.708	15100
920.818	15024
920.928	15009
921.038	15180
921.148	15119
921.258	14906
921.368	14823
921.477	14651
921.587	14674
921.697	14522
921.806	14590
921.916	14499
922.025	14377
922.134	14347
922.244	14164
922.353	14339
922.462	14149
922.571	14008
922.68	13982
922.789	13913
922.898	13951
923.007	13932
923.116	13921
923.224	13909
923.333	13894
923.442	13723
923.55	13693
923.659	13799
923.767	13772
923.876	13696
923.984	13746
924.092	13674
924.201	13750
924.309	13556
924.417	13563
924.525	13620
924.633	13540
924.741	14438
924.849	13285
924.956	13537
925.064	13297
925.172	13236
925.279	13236
925.387	13377
925.494	13225
925.602	13373
925.709	13206
925.816	13156
925.924	13225
926.031	13407
926.138	13274
926.245	13278
926.352	13152
926.459	13244
926.566	13209
926.673	13209
926.779	13072
926.886	13034
926.993	12924
927.099	12833
927.206	12772
927.312	12863
927.419	12973
927.525	12779
927.631	12875
927.737	12669
927.843	12665
927.95	12616
928.056	12658
928.162	12635
928.267	12642
928.373	13312
928.479	12650
928.585	12475
928.69	12559
928.796	12662
928.901	12513
929.007	12357
929.112	12525
929.218	12418
929.323	12369
929.428	12391
929.533	12456
929.638	12247
929.743	12323
929.848	12361
929.953	12308
930.058	12201
930.163	12022
930.267	12064
930.372	12155
930.477	12049
930.581	12254
930.685	12026
930.79	11916
930.894	11958
930.998	11954
931.103	12011
931.207	11722
931.311	11627
931.415	11543
931.519	11315
931.623	11254
