Data from test_V78500241_1204.txt Node
Date: Fri Mar 25 15:18:14 CST 2022
User: usil
Spectrometer: V785-0024
Trigger mode: 0
Integration Time (sec): 4.000000E-1
Scans to average: 1
Nonlinearity correction enabled: false
Boxcar width: 0
Storing dark spectrum: false
XAxis mode: Wavelengths
Number of Pixels in Spectrum: 1024
>>>>>Begin Spectral Data<<<<<
801.071	28154
801.214	28147
801.356	27926
801.499	27797
801.641	27762
801.783	27675
801.926	27781
802.068	27618
802.211	27603
802.353	27705
802.496	27576
802.638	27302
802.78	27507
802.923	27241
803.065	27317
803.208	27408
803.35	27386
803.492	27439
803.635	27488
803.777	27462
803.919	27542
804.061	27846
804.204	27720
804.346	27538
804.488	27469
804.63	27538
804.773	27469
804.915	27633
805.057	27675
805.199	27504
805.341	27759
805.483	27827
805.626	27736
805.768	27622
805.91	27736
806.052	27793
806.194	27720
806.336	27717
806.478	27625
806.62	27812
806.762	27884
806.904	27861
807.046	28261
807.188	28036
807.33	28200
807.472	28242
807.614	28147
807.756	28086
807.898	27899
808.04	27994
808.182	27892
808.324	28048
808.465	28135
808.607	28238
808.749	28421
808.891	28466
809.033	28428
809.174	28451
809.316	28310
809.458	28405
809.6	28322
809.741	28440
809.883	28512
810.025	28717
810.166	28577
810.308	28725
810.45	28672
810.591	28588
810.733	28451
810.875	28333
811.016	28242
811.158	28196
811.299	28493
811.441	28481
811.582	28649
811.724	28417
811.865	28409
812.007	28516
812.148	28333
812.29	28573
812.431	28641
812.573	28949
812.714	28805
812.855	28896
812.997	28915
813.138	29254
813.279	29052
813.421	28881
813.562	28953
813.703	28653
813.845	28645
813.986	28386
814.127	28242
814.268	28223
814.41	28059
814.551	28162
814.692	28078
814.833	28097
814.974	27941
815.115	28063
815.256	27953
815.397	28002
815.539	27914
815.68	27865
815.821	27873
815.962	27869
816.103	28044
816.244	27823
816.385	27781
816.526	27705
816.666	27572
816.807	27424
816.948	27454
817.089	27492
817.23	27515
817.371	27545
817.512	27393
817.653	27477
817.793	27264
817.934	27427
818.075	27332
818.216	27401
818.356	27256
818.497	27302
818.638	27081
818.778	27222
818.919	27119
819.06	27211
819.2	27230
819.341	27325
819.481	27298
819.622	27382
819.762	27743
819.903	27663
820.043	27545
820.184	27599
820.324	27488
820.465	27564
820.605	27534
820.746	27485
820.886	27340
821.026	27393
821.167	27481
821.307	27443
821.447	27458
821.588	27302
821.728	27131
821.868	27074
822.008	26815
822.149	26998
822.289	26804
822.429	26598
822.569	26556
822.709	26423
822.849	26442
822.99	26317
823.13	26294
823.27	26191
823.41	26191
823.55	26035
823.69	26130
823.83	26180
823.97	26214
824.11	25966
824.25	25894
824.389	25894
824.529	26168
824.669	26024
824.809	26191
824.949	26016
825.089	26138
825.228	26138
825.368	25955
825.508	25890
825.648	25909
825.787	26149
825.927	26005
826.067	25890
826.206	25932
826.346	25944
826.485	26016
826.625	25917
826.765	26096
826.904	25986
827.044	25639
827.183	25689
827.323	25499
827.462	25807
827.601	25708
827.741	25628
827.88	25677
828.02	25552
828.159	25613
828.298	25731
828.437	25734
828.577	25639
828.716	25753
828.855	25582
828.994	25392
829.134	25312
829.273	25373
829.412	25331
829.551	25304
829.69	25232
829.829	25441
829.968	25354
830.107	25354
830.246	25426
830.385	25263
830.524	25282
830.663	25072
830.802	25148
830.941	24928
831.08	24970
831.219	25080
831.357	24970
831.496	25225
831.635	25034
831.774	24905
831.913	24848
832.051	24715
832.19	24897
832.329	24730
832.467	24760
832.606	24559
832.744	24540
832.883	24631
833.022	24574
833.16	24639
833.299	24658
833.437	24673
833.576	24658
833.714	24825
833.852	24806
833.991	24764
834.129	24772
834.267	24795
834.406	24840
834.544	24810
834.682	24745
834.821	24604
834.959	24749
835.097	24734
835.235	24894
835.373	24700
835.511	24544
835.65	24608
835.788	24692
835.926	24372
836.064	24239
836.202	24403
836.34	24502
836.478	24639
836.615	24532
836.753	24585
836.891	24620
837.029	24639
837.167	24521
837.305	24391
837.443	24410
837.58	24338
837.718	24452
837.856	24388
837.993	24311
838.131	24239
838.269	24174
838.406	24330
838.544	24148
838.681	23935
838.819	23996
838.956	23874
839.094	23790
839.231	23851
839.369	24034
839.506	24292
839.643	24171
839.781	23939
839.918	23855
840.055	23851
840.193	23863
840.33	23752
840.467	23870
840.604	23893
840.742	24121
840.879	23676
841.016	23573
841.153	23638
841.29	23828
841.427	23771
841.564	23813
841.701	23672
841.838	23703
841.975	23695
842.112	23760
842.249	23573
842.385	23611
842.522	23687
842.659	23505
842.796	23684
842.933	23482
843.069	23391
843.206	23509
843.343	23672
843.479	23558
843.616	23478
843.752	23368
843.889	23337
844.025	23406
844.162	23220
844.298	23433
844.435	23398
844.571	23337
844.708	23360
844.844	23417
844.98	23558
845.117	23516
845.253	23277
845.389	23071
845.525	23212
845.661	23075
845.798	23025
845.934	23060
846.07	22938
846.206	22869
846.342	23132
846.478	22999
846.614	22854
846.75	22607
846.886	22873
847.022	22835
847.158	22797
847.294	22763
847.429	22820
847.565	22721
847.701	22923
847.837	22455
847.972	22508
848.108	22603
848.244	22622
848.379	22367
848.515	22379
848.65	22341
848.786	22402
848.921	22455
849.057	22443
849.192	22478
849.328	22291
849.463	22314
849.598	22249
849.734	22265
849.869	22204
850.004	22093
850.14	22268
850.275	22196
850.41	22017
850.545	21934
850.68	22200
850.815	22082
850.95	22086
851.085	22356
851.22	22337
851.355	22048
851.49	22139
851.625	22200
851.76	22070
851.895	22002
852.03	22002
852.165	22040
852.299	22097
852.434	22139
852.569	22055
852.703	22040
852.838	22143
852.973	22128
853.107	22310
853.242	22063
853.376	22036
853.511	21713
853.645	21850
853.78	21975
853.914	21991
854.048	21953
854.183	21949
854.317	21880
854.451	22154
854.585	22013
854.72	21922
854.854	21953
854.988	21861
855.122	21922
855.256	21743
855.39	21964
855.524	21968
855.658	21899
855.792	21991
855.926	21949
856.06	21888
856.194	21968
856.327	21892
856.461	21953
856.595	21804
856.729	21972
856.862	22032
856.996	22055
857.13	22124
857.263	22013
857.397	22029
857.53	22116
857.664	21937
857.797	22010
857.931	21934
858.064	21926
858.197	22105
858.331	21972
858.464	21819
858.597	21739
858.731	21964
858.864	21972
858.997	21949
859.13	21956
859.263	21949
859.396	22048
859.529	21907
859.662	21854
859.795	21861
859.928	21888
860.061	22086
860.194	22200
860.327	21922
860.46	21903
860.592	22021
860.725	22067
860.858	21998
860.99	21899
861.123	21819
861.256	21823
861.388	21998
861.521	22767
861.653	21762
861.786	21720
861.918	21759
862.05	21835
862.183	21838
862.315	21781
862.447	21873
862.58	21880
862.712	21759
862.844	21728
862.976	21747
863.108	21705
863.24	22074
863.372	21538
863.504	21526
863.636	21557
863.768	21717
863.9	21618
864.032	21580
864.164	21648
864.296	21625
864.428	21679
864.559	21701
864.691	21781
864.823	21629
864.954	21572
865.086	21637
865.217	21462
865.349	21431
865.48	21580
865.612	21564
865.743	21656
865.875	21542
866.006	21549
866.137	21473
866.269	21580
866.4	21477
866.531	21405
866.662	21545
866.793	21477
866.924	21443
867.055	21412
867.186	21485
867.317	21386
867.448	21344
867.579	21389
867.71	21454
867.841	21329
867.972	21374
868.103	21450
868.233	21439
868.364	21439
868.495	21507
868.625	21576
868.756	21701
868.886	21724
869.017	21622
869.147	21838
869.278	21686
869.408	21720
869.539	21644
869.669	21736
869.799	21804
869.929	21835
870.06	21751
870.19	22188
870.32	21983
870.45	21930
870.58	22067
870.71	22097
870.84	22185
870.97	22025
871.1	22078
871.23	22143
871.36	22333
871.489	22284
871.619	22242
871.749	22215
871.879	22360
872.008	22257
872.138	22287
872.267	22375
872.397	22249
872.526	22097
872.656	22135
872.785	22192
872.915	22371
873.044	22371
873.173	22318
873.303	22291
873.432	22337
873.561	22303
873.69	22382
873.819	22352
873.948	22230
874.077	22303
874.206	22356
874.335	22207
874.464	22466
874.593	22596
874.722	22451
874.851	22500
874.979	22546
875.108	22500
875.237	22497
875.365	22379
875.494	22485
875.623	22554
875.751	22493
875.88	22523
876.008	22504
876.136	22626
876.265	22873
876.393	23041
876.521	22938
876.65	22923
876.778	22759
876.906	22805
877.034	22752
877.162	22858
877.29	22778
877.418	22790
877.546	22930
877.674	22854
877.802	22911
877.93	22812
878.058	22805
878.185	22752
878.313	22881
878.441	22733
878.568	22641
878.696	22755
878.824	22942
878.951	22915
879.079	22843
879.206	23143
879.333	22892
879.461	22869
879.588	22980
879.715	22949
879.842	22949
879.97	22923
880.097	22809
880.224	22850
880.351	22748
880.478	22778
880.605	22733
880.732	22721
880.859	22923
880.986	22752
881.112	22542
881.239	22561
881.366	22318
881.493	22329
881.619	22249
881.746	22280
881.872	22230
881.999	22124
882.125	22150
882.252	22192
882.378	22188
882.505	22276
882.631	22112
882.757	21895
882.883	22044
883.01	22002
883.136	21918
883.262	21720
883.388	21793
883.514	21922
883.64	21998
883.766	21857
883.892	21660
884.018	21717
884.143	21873
884.269	21994
884.395	21622
884.52	21534
884.646	21660
884.772	21564
884.897	21530
885.023	21671
885.148	21675
885.274	21739
885.399	21724
885.524	21488
885.65	21622
885.775	21500
885.9	21485
886.025	21561
886.15	21526
886.275	21511
886.4	21530
886.525	21485
886.65	21542
886.775	21485
886.9	21667
887.025	21663
887.149	21466
887.274	21363
887.399	21336
887.523	21439
887.648	21157
887.773	21165
887.897	21492
888.021	21344
888.146	21306
888.27	21370
888.395	21530
888.519	21264
888.643	21237
888.767	21378
888.891	21226
889.015	21055
889.139	21146
889.263	21157
889.387	21283
889.511	21382
889.635	21332
889.759	21013
889.883	21081
890.006	21180
890.13	21226
890.254	21074
890.377	21138
890.501	21013
890.624	20819
890.748	20887
890.871	20720
890.995	20697
891.118	20648
891.241	20720
891.364	20670
891.488	20731
891.611	20765
891.734	20648
891.857	20682
891.98	20739
892.103	20697
892.226	20552
892.349	20659
892.471	20423
892.594	20587
892.717	20609
892.839	20602
892.962	20526
893.085	20796
893.207	20549
893.33	20488
893.452	20564
893.575	20682
893.697	20556
893.819	20701
893.941	20720
894.064	20609
894.186	20442
894.308	20587
894.43	20716
894.552	20674
894.674	20492
894.796	20518
894.918	20571
895.04	20454
895.161	20640
895.283	20697
895.405	20568
895.526	20583
895.648	20556
895.769	20682
895.891	20609
896.012	20712
896.134	20743
896.255	20530
896.376	20526
896.498	20545
896.619	20648
896.74	20552
896.861	20507
896.982	20887
897.103	20929
897.224	20853
897.345	20777
897.466	20712
897.587	20708
897.708	20887
897.828	20819
897.949	20663
898.07	20625
898.19	20667
898.311	20826
898.431	20819
898.552	20632
898.672	20804
898.792	20823
898.913	20727
899.033	20674
899.153	20617
899.273	20492
899.393	20495
899.513	20575
899.633	20526
899.753	20571
899.873	20431
899.993	20594
900.113	20412
900.232	20503
900.352	20438
900.472	20320
900.591	20187
900.711	20309
900.83	20358
900.95	20446
901.069	20305
901.189	20138
901.308	19989
901.427	19807
901.546	19750
901.665	19845
901.784	19868
901.904	19750
902.023	19537
902.141	19449
902.26	19476
902.379	19495
902.498	19434
902.617	19324
902.735	19312
902.854	19335
902.973	19259
903.091	19126
903.21	19023
903.328	19004
903.446	18943
903.565	18795
903.683	18764
903.801	18639
903.919	18738
904.038	18760
904.156	18597
904.274	18597
904.392	18627
904.51	18585
904.627	18688
904.745	18707
904.863	18631
904.981	18460
905.098	18311
905.216	18304
905.334	18277
905.451	18285
905.569	18174
905.686	18254
905.803	18254
905.921	18072
906.038	18186
906.155	18163
906.272	17969
906.389	17916
906.506	17771
906.623	17809
906.74	17794
906.857	17748
906.974	17722
907.091	17958
907.208	17980
907.324	17840
907.441	17608
907.557	17566
907.674	17535
907.79	17478
907.907	17463
908.023	17668
908.139	17589
908.256	17497
908.372	17398
908.488	17395
908.604	17212
908.72	17204
908.836	17269
908.952	17246
909.068	17284
909.184	17326
909.3	17170
909.415	17277
909.531	17189
909.647	16946
909.762	16949
909.878	16900
909.993	16949
910.108	16927
910.224	16892
910.339	17041
910.454	16858
910.57	16637
910.685	16596
910.8	16892
910.915	16923
911.03	16660
911.145	16531
911.259	16599
911.374	16580
911.489	16443
911.604	16360
911.718	16322
911.833	16322
911.947	16097
912.062	16090
912.176	16200
912.291	16242
912.405	16287
912.519	16417
912.633	16459
912.748	16436
912.862	16261
912.976	16158
913.09	15987
913.204	15998
913.318	16112
913.431	16185
913.545	16101
913.659	16120
913.772	15994
913.886	15880
914	15873
914.113	15979
914.226	16040
914.34	15956
914.453	15739
914.566	15861
914.68	15739
914.793	15701
914.906	15504
915.019	15397
915.132	15485
915.245	15401
915.358	15428
915.47	15492
915.583	15580
915.696	15538
915.809	15561
915.921	15542
916.034	15428
916.146	15374
916.259	15389
916.371	15431
916.483	15492
916.595	15230
916.708	15317
916.82	15393
916.932	15252
917.044	15237
917.156	15188
917.268	15127
917.38	15195
917.491	14986
917.603	15024
917.715	15055
917.826	15043
917.938	15013
918.049	14963
918.161	15108
918.272	15135
918.384	15157
918.495	15089
918.606	14918
918.717	14876
918.828	14891
918.939	14864
919.05	14724
919.161	14921
919.272	14621
919.383	14796
919.494	14845
919.604	15085
919.715	14792
919.826	14754
919.936	14762
920.047	14807
920.157	14804
920.267	14937
920.378	14788
920.488	14864
920.598	14998
920.708	15066
920.818	14895
920.928	15028
921.038	15074
921.148	14967
921.258	14823
921.368	14632
921.477	14575
921.587	14579
921.697	14461
921.806	14480
921.916	14385
922.025	14248
922.134	14161
922.244	14145
922.353	14278
922.462	14054
922.571	14035
922.68	13833
922.789	13830
922.898	13841
923.007	13765
923.116	13784
923.224	13837
923.333	13753
923.442	13719
923.55	13620
923.659	13708
923.767	13757
923.876	13700
923.984	13670
924.092	13552
924.201	13506
924.309	13601
924.417	13559
924.525	13445
924.633	13434
924.741	14195
924.849	13285
924.956	13464
925.064	13316
925.172	13076
925.279	13228
925.387	13209
925.494	13209
925.602	13278
925.709	13251
925.816	13118
925.924	13206
926.031	13194
926.138	13149
926.245	13274
926.352	13034
926.459	13228
926.566	13133
926.673	13122
926.779	12954
926.886	12962
926.993	12795
927.099	12654
927.206	12764
927.312	12696
927.419	12791
927.525	12707
927.631	12776
927.737	12692
927.843	12612
927.95	12399
928.056	12536
928.162	12559
928.267	12642
928.373	13122
928.479	12669
928.585	12441
928.69	12559
928.796	12631
928.901	12502
929.007	12266
929.112	12391
929.218	12414
929.323	12361
929.428	12342
929.533	12460
929.638	12308
929.743	12258
929.848	12285
929.953	12235
930.058	12178
930.163	12011
930.267	11939
930.372	12060
930.477	11923
930.581	12178
930.685	11939
930.79	11851
930.894	11813
930.998	11836
931.103	12003
931.207	11604
931.311	11585
931.415	11482
931.519	11220
931.623	11208
