Data from test_V78500241_1125.txt Node
Date: Fri Mar 25 15:17:41 CST 2022
User: usil
Spectrometer: V785-0024
Trigger mode: 0
Integration Time (sec): 4.000000E-1
Scans to average: 1
Nonlinearity correction enabled: false
Boxcar width: 0
Storing dark spectrum: false
XAxis mode: Wavelengths
Number of Pixels in Spectrum: 1024
>>>>>Begin Spectral Data<<<<<
801.071	28234
801.214	28139
801.356	27926
801.499	27838
801.641	27766
801.783	27778
801.926	27918
802.068	27895
802.211	27724
802.353	27690
802.496	27534
802.638	27298
802.78	27492
802.923	27374
803.065	27416
803.208	27420
803.35	27553
803.492	27572
803.635	27568
803.777	27614
803.919	27660
804.061	27922
804.204	27728
804.346	27523
804.488	27545
804.63	27564
804.773	27583
804.915	27648
805.057	27797
805.199	27530
805.341	27846
805.483	27736
805.626	27888
805.768	27591
805.91	27800
806.052	27644
806.194	27523
806.336	27930
806.478	27865
806.62	27857
806.762	27816
806.904	28040
807.046	28238
807.188	28249
807.33	28272
807.472	28211
807.614	28109
807.756	28196
807.898	28150
808.04	28032
808.182	28063
808.324	28048
808.465	28131
808.607	28246
808.749	28527
808.891	28478
809.033	28645
809.174	28440
809.316	28459
809.458	28451
809.6	28401
809.741	28603
809.883	28603
810.025	28687
810.166	28660
810.308	28672
810.45	28615
810.591	28717
810.733	28474
810.875	28417
811.016	28360
811.158	28291
811.299	28580
811.441	28672
811.582	28512
811.724	28421
811.865	28413
812.007	28493
812.148	28417
812.29	28497
812.431	28584
812.573	28786
812.714	28976
812.855	29056
812.997	29159
813.138	29204
813.279	29029
813.421	29025
813.562	28995
813.703	28835
813.845	28858
813.986	28447
814.127	28204
814.268	28207
814.41	28185
814.551	28067
814.692	28093
814.833	28188
814.974	28078
815.115	28291
815.256	28166
815.397	28109
815.539	28086
815.68	27960
815.821	27907
815.962	27949
816.103	27934
816.244	27831
816.385	27694
816.526	27781
816.666	27572
816.807	27610
816.948	27580
817.089	27568
817.23	27595
817.371	27466
817.512	27618
817.653	27595
817.793	27481
817.934	27545
818.075	27587
818.216	27416
818.356	27340
818.497	27447
818.638	27298
818.778	27226
818.919	27397
819.06	27298
819.2	27507
819.341	27481
819.481	27519
819.622	27618
819.762	27838
819.903	27888
820.043	27724
820.184	27625
820.324	27587
820.465	27713
820.605	27656
820.746	27694
820.886	27466
821.026	27583
821.167	27644
821.307	27644
821.447	27500
821.588	27523
821.728	27332
821.868	27066
822.008	27058
822.149	26902
822.289	26918
822.429	26689
822.569	26655
822.709	26636
822.849	26632
822.99	26609
823.13	26404
823.27	26389
823.41	26286
823.55	26267
823.69	26374
823.83	26282
823.97	26225
824.11	26199
824.25	26237
824.389	26206
824.529	26282
824.669	26248
824.809	26214
824.949	26233
825.089	26355
825.228	26370
825.368	25947
825.508	25936
825.648	26103
825.787	26046
825.927	26073
826.067	26115
826.206	25955
826.346	26138
826.485	26229
826.625	26050
826.765	26096
826.904	26043
827.044	25830
827.183	25780
827.323	25753
827.462	25879
827.601	25902
827.741	25761
827.88	25833
828.02	25704
828.159	25643
828.298	25655
828.437	25841
828.577	25655
828.716	25898
828.855	25757
828.994	25651
829.134	25426
829.273	25552
829.412	25479
829.551	25441
829.69	25419
829.829	25426
829.968	25479
830.107	25571
830.246	25537
830.385	25426
830.524	25221
830.663	25263
830.802	25247
830.941	25107
831.08	24992
831.219	25190
831.357	25141
831.496	25282
831.635	25145
831.774	24966
831.913	25038
832.051	24825
832.19	25023
832.329	25027
832.467	24734
832.606	24696
832.744	24802
832.883	24821
833.022	24776
833.16	24703
833.299	24661
833.437	24764
833.576	24806
833.714	24875
833.852	24806
833.991	24905
834.129	25053
834.267	24981
834.406	24894
834.544	24894
834.682	24905
834.821	24871
834.959	24973
835.097	24779
835.235	24894
835.373	24821
835.511	24848
835.65	24825
835.788	24703
835.926	24601
836.064	24483
836.202	24593
836.34	24741
836.478	24757
836.615	24639
836.753	24681
836.891	24711
837.029	24681
837.167	24745
837.305	24593
837.443	24692
837.58	24555
837.718	24616
837.856	24540
837.993	24513
838.131	24620
838.269	24426
838.406	24464
838.544	24258
838.681	24110
838.819	24125
838.956	24026
839.094	23965
839.231	24015
839.369	24186
839.506	24429
839.643	24254
839.781	23916
839.918	23942
840.055	23882
840.193	23885
840.33	23923
840.467	24015
840.604	23824
840.742	24266
840.879	23775
841.016	23836
841.153	23836
841.29	24072
841.427	23901
841.564	23977
841.701	23847
841.838	23935
841.975	23748
842.112	23687
842.249	23745
842.385	23687
842.522	23832
842.659	23691
842.796	23680
842.933	23710
843.069	23680
843.206	23570
843.343	23904
843.479	23646
843.616	23775
843.752	23459
843.889	23524
844.025	23543
844.162	23402
844.298	23433
844.435	23592
844.571	23440
844.708	23611
844.844	23566
844.98	23573
845.117	23615
845.253	23356
845.389	23292
845.525	23425
845.661	23261
845.798	23178
845.934	23315
846.07	23143
846.206	23334
846.342	23258
846.478	23284
846.614	22980
846.75	22900
846.886	22809
847.022	23117
847.158	22885
847.294	22972
847.429	22957
847.565	22930
847.701	23185
847.837	22596
847.972	22626
848.108	22797
848.244	22729
848.379	22596
848.515	22527
848.65	22485
848.786	22382
848.921	22523
849.057	22599
849.192	22649
849.328	22451
849.463	22531
849.598	22546
849.734	22352
849.869	22352
850.004	22234
850.14	22230
850.275	22246
850.41	22169
850.545	22348
850.68	22257
850.815	22314
850.95	22223
851.085	22375
851.22	22249
851.355	22379
851.49	22257
851.625	22276
851.76	22265
851.895	22314
852.03	22242
852.165	22200
852.299	22284
852.434	22344
852.569	22337
852.703	22147
852.838	22291
852.973	22421
853.107	22325
853.242	22253
853.376	22200
853.511	21975
853.645	22124
853.78	22196
853.914	22109
854.048	22051
854.183	22025
854.317	22109
854.451	22242
854.585	22188
854.72	22166
854.854	22234
854.988	22040
855.122	22090
855.256	21979
855.39	22013
855.524	22257
855.658	22086
855.792	22010
855.926	22025
856.06	22112
856.194	22128
856.327	22097
856.461	22036
856.595	21918
856.729	22090
856.862	22090
856.996	22055
857.13	22166
857.263	22204
857.397	22150
857.53	22017
857.664	22131
857.797	22086
857.931	22158
858.064	22063
858.197	22196
858.331	22109
858.464	22063
858.597	21991
858.731	21979
858.864	21975
858.997	21987
859.13	22025
859.263	22090
859.396	22067
859.529	21964
859.662	22029
859.795	22086
859.928	22154
860.061	22101
860.194	22196
860.327	22128
860.46	22055
860.592	22185
860.725	22253
860.858	22284
860.99	22124
861.123	22006
861.256	21964
861.388	22051
861.521	22881
861.653	21899
861.786	21846
861.918	21937
862.05	22002
862.183	21987
862.315	21998
862.447	22025
862.58	21998
862.712	21915
862.844	21633
862.976	21793
863.108	21720
863.24	22162
863.372	21637
863.504	21934
863.636	21747
863.768	21781
863.9	21861
864.032	21652
864.164	21686
864.296	21785
864.428	21793
864.559	21797
864.691	21751
864.823	21804
864.954	21755
865.086	21812
865.217	21694
865.349	21568
865.48	21629
865.612	21656
865.743	21800
865.875	21743
866.006	21717
866.137	21557
866.269	21603
866.4	21747
866.531	21610
866.662	21663
866.793	21469
866.924	21534
867.055	21667
867.186	21538
867.317	21538
867.448	21538
867.579	21545
867.71	21549
867.841	21564
867.972	21648
868.103	21682
868.233	21549
868.364	21538
868.495	21774
868.625	21850
868.756	21804
868.886	21895
869.017	21808
869.147	21926
869.278	22021
869.408	21770
869.539	21743
869.669	21876
869.799	21785
869.929	21907
870.06	21915
870.19	22124
870.32	22185
870.45	22192
870.58	22196
870.71	22375
870.84	22265
870.97	22188
871.1	22211
871.23	22333
871.36	22413
871.489	22204
871.619	22390
871.749	22379
871.879	22459
872.008	22478
872.138	22424
872.267	22451
872.397	22314
872.526	22337
872.656	22238
872.785	22265
872.915	22519
873.044	22538
873.173	22516
873.303	22382
873.432	22500
873.561	22554
873.69	22459
873.819	22466
873.948	22432
874.077	22390
874.206	22421
874.335	22379
874.464	22379
874.593	22679
874.722	22580
874.851	22626
874.979	22702
875.108	22706
875.237	22672
875.365	22535
875.494	22672
875.623	22683
875.751	22645
875.88	22702
876.008	22740
876.136	22744
876.265	22984
876.393	23151
876.521	22999
876.65	23102
876.778	22972
876.906	22949
877.034	22965
877.162	23010
877.29	23014
877.418	22957
877.546	23067
877.674	22942
877.802	23044
877.93	22972
878.058	22938
878.185	22767
878.313	23006
878.441	22881
878.568	22820
878.696	22991
878.824	23018
878.951	23121
879.079	23136
879.206	23269
879.333	23280
879.461	23022
879.588	23162
879.715	23060
879.842	23322
879.97	22930
880.097	22820
880.224	22729
880.351	22820
880.478	22858
880.605	22725
880.732	22656
880.859	23064
880.986	22767
881.112	22862
881.239	22725
881.366	22641
881.493	22504
881.619	22382
881.746	22443
881.872	22363
881.999	22314
882.125	22299
882.252	22424
882.378	22249
882.505	22398
882.631	22169
882.757	22036
882.883	22135
883.01	22215
883.136	21915
883.262	21911
883.388	21888
883.514	22044
883.64	22013
883.766	22070
883.892	21800
884.018	21827
884.143	21930
884.269	22010
884.395	21766
884.52	21652
884.646	21660
884.772	21618
884.897	21576
885.023	21762
885.148	21698
885.274	21739
885.399	21755
885.524	21675
885.65	21603
885.775	21709
885.9	21618
886.025	21747
886.15	21823
886.275	21595
886.4	21580
886.525	21751
886.65	21637
886.775	21576
886.9	21709
887.025	21838
887.149	21652
887.274	21511
887.399	21393
887.523	21389
887.648	21458
887.773	21332
887.897	21595
888.021	21504
888.146	21355
888.27	21443
888.395	21488
888.519	21477
888.643	21454
888.767	21504
888.891	21363
889.015	21123
889.139	21450
889.263	21298
889.387	21264
889.511	21367
889.635	21344
889.759	21230
889.883	21264
890.006	21355
890.13	21344
890.254	21108
890.377	21180
890.501	21032
890.624	21055
890.748	20971
890.871	20880
890.995	20777
891.118	20739
891.241	20758
891.364	20788
891.488	20895
891.611	20857
891.734	20796
891.857	20952
891.98	20838
892.103	20754
892.226	20872
892.349	20765
892.471	20689
892.594	20712
892.717	20746
892.839	20716
892.962	20731
893.085	20708
893.207	20640
893.33	20514
893.452	20632
893.575	20769
893.697	20701
893.819	20777
893.941	20921
894.064	20788
894.186	20613
894.308	20606
894.43	20739
894.552	20777
894.674	20762
894.796	20724
894.918	20648
895.04	20602
895.161	20750
895.283	20667
895.405	20549
895.526	20556
895.648	20609
895.769	20720
895.891	20735
896.012	20693
896.134	20678
896.255	20792
896.376	20716
896.498	20819
896.619	20655
896.74	20571
896.861	20830
896.982	21119
897.103	21127
897.224	20994
897.345	20765
897.466	20899
897.587	20906
897.708	20979
897.828	20941
897.949	20887
898.07	20758
898.19	20849
898.311	20895
898.431	20868
898.552	20933
898.672	20845
898.792	20925
898.913	20804
899.033	20845
899.153	20697
899.273	20541
899.393	20617
899.513	20716
899.633	20602
899.753	20473
899.873	20427
899.993	20659
900.113	20689
900.232	20537
900.352	20476
900.472	20465
900.591	20423
900.711	20351
900.83	20343
900.95	20374
901.069	20522
901.189	20370
901.308	20008
901.427	19925
901.546	19978
901.665	20092
901.784	19974
901.904	19913
902.023	19753
902.141	19655
902.26	19453
902.379	19548
902.498	19457
902.617	19419
902.735	19578
902.854	19415
902.973	19480
903.091	19046
903.21	19114
903.328	19110
903.446	18916
903.565	19027
903.683	18947
903.801	18878
903.919	19050
904.038	18852
904.156	18703
904.274	18688
904.392	18753
904.51	18760
904.627	18715
904.745	18711
904.863	18673
904.981	18452
905.098	18380
905.216	18353
905.334	18395
905.451	18475
905.569	18350
905.686	18525
905.803	18376
905.921	18098
906.038	18308
906.155	18144
906.272	18095
906.389	18049
906.506	17954
906.623	17851
906.74	17882
906.857	17832
906.974	17817
907.091	17973
907.208	18064
907.324	17931
907.441	17821
907.557	17653
907.674	17661
907.79	17535
907.907	17619
908.023	17699
908.139	17600
908.256	17516
908.372	17478
908.488	17471
908.604	17379
908.72	17254
908.836	17341
908.952	17360
909.068	17292
909.184	17429
909.3	17322
909.415	17414
909.531	17337
909.647	17067
909.762	17079
909.878	16976
909.993	17029
910.108	17048
910.224	16953
910.339	16900
910.454	16946
910.57	16752
910.685	16717
910.8	17090
910.915	16972
911.03	16710
911.145	16641
911.259	16706
911.374	16687
911.489	16535
911.604	16382
911.718	16333
911.833	16268
911.947	16192
912.062	16238
912.176	16268
912.291	16318
912.405	16265
912.519	16542
912.633	16527
912.748	16390
912.862	16322
912.976	16223
913.09	16025
913.204	16055
913.318	16109
913.431	16284
913.545	16150
913.659	16272
913.772	16166
913.886	15926
914	15861
914.113	16021
914.226	16067
914.34	16055
914.453	15846
914.566	15983
914.68	15842
914.793	15819
914.906	15591
915.019	15591
915.132	15549
915.245	15507
915.358	15633
915.47	15545
915.583	15580
915.696	15614
915.809	15591
915.921	15606
916.034	15511
916.146	15454
916.259	15408
916.371	15561
916.483	15496
916.595	15412
916.708	15340
916.82	15329
916.932	15351
917.044	15306
917.156	15268
917.268	15176
917.38	15138
917.491	15104
917.603	15146
917.715	15195
917.826	15214
917.938	15108
918.049	15081
918.161	15138
918.272	15272
918.384	15298
918.495	15119
918.606	14990
918.717	14830
918.828	14921
918.939	14994
919.05	14811
919.161	14853
919.272	14682
919.383	14682
919.494	14941
919.604	15066
919.715	14918
919.826	14823
919.936	14792
920.047	15020
920.157	14967
920.267	15017
920.378	14845
920.488	14815
920.598	15135
920.708	15233
920.818	15028
920.928	15009
921.038	15188
921.148	15142
921.258	14686
921.368	14769
921.477	14670
921.587	14648
921.697	14473
921.806	14564
921.916	14518
922.025	14240
922.134	14290
922.244	14206
922.353	14259
922.462	14130
922.571	14103
922.68	13856
922.789	13852
922.898	13864
923.007	13837
923.116	13868
923.224	13894
923.333	13852
923.442	13799
923.55	13807
923.659	13826
923.767	13814
923.876	13719
923.984	13753
924.092	13590
924.201	13651
924.309	13685
924.417	13662
924.525	13445
924.633	13533
924.741	14393
924.849	13350
924.956	13476
925.064	13320
925.172	13236
925.279	13301
925.387	13362
925.494	13164
925.602	13377
925.709	13392
925.816	13209
925.924	13221
926.031	13228
926.138	13228
926.245	13285
926.352	13152
926.459	13266
926.566	13320
926.673	13145
926.779	12985
926.886	13008
926.993	12840
927.099	12852
927.206	12760
927.312	12749
927.419	12859
927.525	12798
927.631	12825
927.737	12814
927.843	12616
927.95	12525
928.056	12696
928.162	12757
928.267	12654
928.373	13175
928.479	12722
928.585	12536
928.69	12608
928.796	12639
928.901	12608
929.007	12334
929.112	12486
929.218	12506
929.323	12452
929.428	12369
929.533	12460
929.638	12270
929.743	12399
929.848	12308
929.953	12205
930.058	12194
930.163	11942
930.267	12129
930.372	12155
930.477	12015
930.581	12228
930.685	12072
930.79	11882
930.894	11988
930.998	11885
931.103	12083
931.207	11691
931.311	11630
931.415	11448
931.519	11379
931.623	11364
