Data from test_V78500241_2584.txt Node
Date: Fri Mar 25 15:27:51 CST 2022
User: usil
Spectrometer: V785-0024
Trigger mode: 0
Integration Time (sec): 4.000000E-1
Scans to average: 1
Nonlinearity correction enabled: false
Boxcar width: 0
Storing dark spectrum: false
XAxis mode: Wavelengths
Number of Pixels in Spectrum: 1024
>>>>>Begin Spectral Data<<<<<
801.071	27089
801.214	26971
801.356	26773
801.499	26613
801.641	26549
801.783	26629
801.926	26590
802.068	26609
802.211	26549
802.353	26537
802.496	26320
802.638	26225
802.78	26336
802.923	26103
803.065	26100
803.208	26161
803.35	26240
803.492	26381
803.635	26488
803.777	26343
803.919	26473
804.061	26792
804.204	26423
804.346	26492
804.488	26267
804.63	26305
804.773	26343
804.915	26339
805.057	26507
805.199	26313
805.341	26514
805.483	26640
805.626	26537
805.768	26309
805.91	26514
806.052	26495
806.194	26431
806.336	26674
806.478	26495
806.62	26583
806.762	26750
806.904	26785
807.046	27085
807.188	27096
807.33	26887
807.472	27036
807.614	26876
807.756	26792
807.898	26781
808.04	26720
808.182	26727
808.324	26765
808.465	26807
808.607	26876
808.749	26971
808.891	27260
809.033	27298
809.174	27207
809.316	27028
809.458	27081
809.6	27096
809.741	27203
809.883	27260
810.025	27355
810.166	27386
810.308	27466
810.45	27294
810.591	27321
810.733	27116
810.875	27013
811.016	26891
811.158	26925
811.299	27161
811.441	27256
811.582	27283
811.724	27058
811.865	27081
812.007	26963
812.148	26971
812.29	27058
812.431	27161
812.573	27287
812.714	27450
812.855	27515
812.997	27698
813.138	27846
813.279	27610
813.421	27644
813.562	27485
813.703	27287
813.845	27203
813.986	26948
814.127	26777
814.268	26640
814.41	26800
814.551	26663
814.692	26880
814.833	26693
814.974	26655
815.115	26689
815.256	26560
815.397	26511
815.539	26564
815.68	26560
815.821	26457
815.962	26465
816.103	26507
816.244	26374
816.385	26377
816.526	26286
816.666	26077
816.807	25936
816.948	26138
817.089	26172
817.23	26069
817.371	25936
817.512	25879
817.653	26016
817.793	25986
817.934	25947
818.075	26062
818.216	26119
818.356	25936
818.497	25875
818.638	25712
818.778	25734
818.919	25769
819.06	25811
819.2	25989
819.341	25887
819.481	25982
819.622	26115
819.762	26343
819.903	26313
820.043	26172
820.184	26126
820.324	26149
820.465	25989
820.605	26065
820.746	26096
820.886	26027
821.026	26142
821.167	25963
821.307	26043
821.447	26008
821.588	25909
821.728	25742
821.868	25605
822.008	25499
822.149	25540
822.289	25373
822.429	25312
822.569	25164
822.709	25114
822.849	25076
822.99	24954
823.13	24890
823.27	24916
823.41	24760
823.55	24878
823.69	24783
823.83	24749
823.97	24817
824.11	24559
824.25	24521
824.389	24669
824.529	24650
824.669	24711
824.809	24707
824.949	24635
825.089	24882
825.228	24661
825.368	24490
825.508	24422
825.648	24422
825.787	24559
825.927	24540
826.067	24555
826.206	24585
826.346	24608
826.485	24544
826.625	24460
826.765	24563
826.904	24502
827.044	24224
827.183	24171
827.323	24133
827.462	24243
827.601	24205
827.741	24251
827.88	24338
828.02	24232
828.159	24235
828.298	24262
828.437	24262
828.577	24125
828.716	24304
828.855	24117
828.994	23897
829.134	23775
829.273	23954
829.412	23923
829.551	23714
829.69	23824
829.829	23904
829.968	23851
830.107	23961
830.246	23946
830.385	23802
830.524	23703
830.663	23619
830.802	23585
830.941	23627
831.08	23410
831.219	23570
831.357	23558
831.496	23748
831.635	23600
831.774	23406
831.913	23478
832.051	23299
832.19	23212
832.329	23299
832.467	23318
832.606	23147
832.744	23162
832.883	23143
833.022	23090
833.16	23189
833.299	23353
833.437	23189
833.576	23261
833.714	23242
833.852	23383
833.991	23368
834.129	23444
834.267	23265
834.406	23166
834.544	23105
834.682	23189
834.821	23364
834.959	23497
835.097	23208
835.235	23387
835.373	23204
835.511	23208
835.65	23212
835.788	23159
835.926	23090
836.064	22919
836.202	23006
836.34	23041
836.478	23162
836.615	23075
836.753	23235
836.891	23185
837.029	23067
837.167	23075
837.305	23102
837.443	22946
837.58	22968
837.718	23014
837.856	23086
837.993	22919
838.131	22995
838.269	22812
838.406	22930
838.544	22771
838.681	22660
838.819	22588
838.956	22504
839.094	22519
839.231	22508
839.369	22470
839.506	22850
839.643	22691
839.781	22481
839.918	22474
840.055	22371
840.193	22451
840.33	22432
840.467	22367
840.604	22618
840.742	22649
840.879	22276
841.016	22249
841.153	22238
841.29	22421
841.427	22398
841.564	22466
841.701	22398
841.838	22402
841.975	22352
842.112	22398
842.249	22276
842.385	22188
842.522	22443
842.659	22272
842.796	22219
842.933	22211
843.069	22128
843.206	22044
843.343	22204
843.479	22097
843.616	22154
843.752	21899
843.889	21994
844.025	22017
844.162	21987
844.298	21930
844.435	21911
844.571	21922
844.708	22010
844.844	22032
844.98	22051
845.117	22021
845.253	21808
845.389	21778
845.525	21736
845.661	21781
845.798	21641
845.934	21774
846.07	21625
846.206	21774
846.342	21838
846.478	21682
846.614	21336
846.75	21272
846.886	21332
847.022	21526
847.158	21481
847.294	21431
847.429	21405
847.565	21386
847.701	21534
847.837	21108
847.972	21077
848.108	21268
848.244	21241
848.379	21051
848.515	21074
848.65	20902
848.786	21051
848.921	20998
849.057	21017
849.192	21020
849.328	20998
849.463	21005
849.598	20891
849.734	20857
849.869	20880
850.004	20670
850.14	20758
850.275	20750
850.41	20739
850.545	20712
850.68	20708
850.815	20811
850.95	20750
851.085	20929
851.22	20785
851.355	20769
851.49	20693
851.625	20693
851.76	20777
851.895	20686
852.03	20777
852.165	20796
852.299	20842
852.434	20796
852.569	20842
852.703	20792
852.838	20804
852.973	20899
853.107	20830
853.242	20724
853.376	20659
853.511	20571
853.645	20594
853.78	20667
853.914	20621
854.048	20545
854.183	20606
854.317	20644
854.451	20804
854.585	20598
854.72	20571
854.854	20530
854.988	20511
855.122	20549
855.256	20541
855.39	20495
855.524	20792
855.658	20602
855.792	20727
855.926	20629
856.06	20598
856.194	20590
856.327	20632
856.461	20514
856.595	20579
856.729	20541
856.862	20632
856.996	20583
857.13	20693
857.263	20693
857.397	20632
857.53	20663
857.664	20530
857.797	20674
857.931	20743
858.064	20667
858.197	20590
858.331	20594
858.464	20526
858.597	20556
858.731	20556
858.864	20621
858.997	20568
859.13	20640
859.263	20571
859.396	20583
859.529	20571
859.662	20518
859.795	20556
859.928	20629
860.061	20617
860.194	20781
860.327	20609
860.46	20629
860.592	20674
860.725	20705
860.858	20720
860.99	20575
861.123	20552
861.256	20644
861.388	20556
861.521	21214
861.653	20393
861.786	20484
861.918	20480
862.05	20541
862.183	20469
862.315	20533
862.447	20560
862.58	20442
862.712	20320
862.844	20320
862.976	20282
863.108	20381
863.24	20785
863.372	20183
863.504	20233
863.636	20332
863.768	20358
863.9	20309
864.032	20122
864.164	20176
864.296	20412
864.428	20396
864.559	20412
864.691	20324
864.823	20339
864.954	20362
865.086	20225
865.217	20248
865.349	20168
865.48	20229
865.612	20278
865.743	20503
865.875	20214
866.006	20119
866.137	20214
866.269	20248
866.4	20153
866.531	20058
866.662	20183
866.793	20050
866.924	20149
867.055	20225
867.186	20183
867.317	20122
867.448	20001
867.579	20126
867.71	20084
867.841	20088
867.972	20122
868.103	20111
868.233	20313
868.364	20187
868.495	20332
868.625	20434
868.756	20583
868.886	20339
869.017	20320
869.147	20408
869.278	20545
869.408	20450
869.539	20427
869.669	20446
869.799	20309
869.929	20412
870.06	20450
870.19	20670
870.32	20735
870.45	20823
870.58	20868
870.71	20887
870.84	20956
870.97	20765
871.1	20750
871.23	21039
871.36	21123
871.489	20921
871.619	20944
871.749	21055
871.879	21036
872.008	21127
872.138	21036
872.267	20963
872.397	20811
872.526	20819
872.656	20864
872.785	20773
872.915	20994
873.044	21108
873.173	21077
873.303	21047
873.432	21009
873.561	21272
873.69	21142
873.819	20944
873.948	21150
874.077	21085
874.206	21001
874.335	21028
874.464	21100
874.593	21264
874.722	21195
874.851	21173
874.979	21226
875.108	21306
875.237	21313
875.365	21131
875.494	21154
875.623	21321
875.751	21275
875.88	21275
876.008	21439
876.136	21447
876.265	21724
876.393	21751
876.521	21717
876.65	21724
876.778	21686
876.906	21591
877.034	21485
877.162	21610
877.29	21564
877.418	21561
877.546	21633
877.674	21496
877.802	21595
877.93	21580
878.058	21542
878.185	21462
878.313	21572
878.441	21663
878.568	21580
878.696	21637
878.824	21762
878.951	21774
879.079	21774
879.206	21937
879.333	21793
879.461	21652
879.588	21675
879.715	21793
879.842	21903
879.97	21595
880.097	21302
880.224	21367
880.351	21469
880.478	21614
880.605	21382
880.732	21386
880.859	21675
880.986	21428
881.112	21492
881.239	21256
881.366	21291
881.493	21108
881.619	21017
881.746	21074
881.872	21013
881.999	21024
882.125	20994
882.252	21096
882.378	20937
882.505	21161
882.631	20796
882.757	20659
882.883	20815
883.01	20724
883.136	20636
883.262	20625
883.388	20579
883.514	20727
883.64	20864
883.766	20590
883.892	20473
884.018	20495
884.143	20625
884.269	20792
884.395	20568
884.52	20294
884.646	20507
884.772	20313
884.897	20377
885.023	20339
885.148	20415
885.274	20556
885.399	20541
885.524	20362
885.65	20278
885.775	20358
885.9	20396
886.025	20533
886.15	20480
886.275	20336
886.4	20214
886.525	20423
886.65	20347
886.775	20370
886.9	20522
887.025	20594
887.149	20336
887.274	20103
887.399	20012
887.523	20035
887.648	20012
887.773	19989
887.897	20275
888.021	20153
888.146	20058
888.27	20126
888.395	20259
888.519	20248
888.643	20126
888.767	20210
888.891	20103
889.015	19963
889.139	20062
889.263	19917
889.387	20058
889.511	20187
889.635	20046
889.759	19902
889.883	20065
890.006	19967
890.13	20027
890.254	20016
890.377	19871
890.501	19693
890.624	19742
890.748	19833
890.871	19601
890.995	19529
891.118	19620
891.241	19571
891.364	19529
891.488	19780
891.611	19533
891.734	19643
891.857	19635
891.98	19590
892.103	19723
892.226	19571
892.349	19483
892.471	19346
892.594	19586
892.717	19510
892.839	19518
892.962	19502
893.085	19460
893.207	19426
893.33	19270
893.452	19403
893.575	19616
893.697	19377
893.819	19765
893.941	19666
894.064	19677
894.186	19464
894.308	19377
894.43	19567
894.552	19529
894.674	19529
894.796	19373
894.918	19346
895.04	19426
895.161	19586
895.283	19487
895.405	19460
895.526	19491
895.648	19434
895.769	19426
895.891	19487
896.012	19468
896.134	19483
896.255	19556
896.376	19460
896.498	19453
896.619	19544
896.74	19487
896.861	19472
896.982	19693
897.103	19811
897.224	19799
897.345	19700
897.466	19639
897.587	19761
897.708	19879
897.828	19658
897.949	19609
898.07	19548
898.19	19502
898.311	19761
898.431	19674
898.552	19712
898.672	19734
898.792	19803
898.913	19609
899.033	19628
899.153	19537
899.273	19415
899.393	19407
899.513	19502
899.633	19449
899.753	19457
899.873	19438
899.993	19616
900.113	19354
900.232	19343
900.352	19460
900.472	19289
900.591	19179
900.711	19225
900.83	19194
900.95	19282
901.069	19293
901.189	19175
901.308	18863
901.427	18700
901.546	18863
901.665	18913
901.784	18840
901.904	18726
902.023	18620
902.141	18483
902.26	18334
902.379	18369
902.498	18433
902.617	18285
902.735	18483
902.854	18346
902.973	18304
903.091	18011
903.21	18026
903.328	17973
903.446	17958
903.565	17863
903.683	17870
903.801	17786
903.919	17866
904.038	17794
904.156	17577
904.274	17741
904.392	17642
904.51	17691
904.627	17558
904.745	17665
904.863	17687
904.981	17455
905.098	17246
905.216	17223
905.334	17372
905.451	17307
905.569	17212
905.686	17364
905.803	17299
905.921	17079
906.038	17181
906.155	17117
906.272	17067
906.389	16965
906.506	16816
906.623	16835
906.74	16847
906.857	16710
906.974	16755
907.091	16881
907.208	16934
907.324	16968
907.441	16717
907.557	16599
907.674	16561
907.79	16573
907.907	16470
908.023	16645
908.139	16523
908.256	16546
908.372	16588
908.488	16333
908.604	16314
908.72	16215
908.836	16211
908.952	16280
909.068	16226
909.184	16348
909.3	16303
909.415	16291
909.531	16215
909.647	16040
909.762	16078
909.878	15998
909.993	16090
910.108	15983
910.224	15895
910.339	15888
910.454	15907
910.57	15785
910.685	15709
910.8	15991
910.915	15956
911.03	15804
911.145	15648
911.259	15549
911.374	15599
911.489	15553
911.604	15481
911.718	15397
911.833	15351
911.947	15313
912.062	15275
912.176	15439
912.291	15466
912.405	15500
912.519	15595
912.633	15519
912.748	15378
912.862	15325
912.976	15116
913.09	15093
913.204	15112
913.318	15169
913.431	15294
913.545	15279
913.659	15275
913.772	15131
913.886	14998
914	15005
914.113	15055
914.226	15009
914.34	15055
914.453	14872
914.566	15074
914.68	14819
914.793	14811
914.906	14621
915.019	14598
915.132	14480
915.245	14606
915.358	14617
915.47	14678
915.583	14720
915.696	14541
915.809	14659
915.921	14739
916.034	14575
916.146	14518
916.259	14514
916.371	14648
916.483	14579
916.595	14351
916.708	14446
916.82	14412
916.932	14427
917.044	14320
917.156	14290
917.268	14214
917.38	14275
917.491	14218
917.603	14218
917.715	14412
917.826	14377
917.938	14153
918.049	14138
918.161	14259
918.272	14374
918.384	14298
918.495	14221
918.606	14092
918.717	14096
918.828	14100
918.939	14031
919.05	13959
919.161	13970
919.272	13856
919.383	13902
919.494	14065
919.604	14199
919.715	14092
919.826	13928
919.936	13997
920.047	14100
920.157	13970
920.267	14225
920.378	13947
920.488	13913
920.598	14081
920.708	14347
920.818	14134
920.928	14275
921.038	14343
921.148	14237
921.258	13997
921.368	13852
921.477	13822
921.587	13742
921.697	13556
921.806	13753
921.916	13578
922.025	13514
922.134	13449
922.244	13415
922.353	13487
922.462	13282
922.571	13236
922.68	13107
922.789	13012
922.898	13042
923.007	13050
923.116	13042
923.224	13038
923.333	13027
923.442	13019
923.55	12962
923.659	12947
923.767	13004
923.876	12962
923.984	12954
924.092	12772
924.201	12886
924.309	12844
924.417	12791
924.525	12802
924.633	12878
924.741	13719
924.849	12612
924.956	12772
925.064	12544
925.172	12502
925.279	12502
925.387	12555
925.494	12544
925.602	12654
925.709	12540
925.816	12460
925.924	12490
926.031	12551
926.138	12532
926.245	12540
926.352	12502
926.459	12486
926.566	12677
926.673	12471
926.779	12365
926.886	12315
926.993	12167
927.099	12133
927.206	11999
927.312	12072
927.419	12121
927.525	12083
927.631	12133
927.737	12072
927.843	11939
927.95	11843
928.056	11950
928.162	11992
928.267	12041
928.373	12525
928.479	12034
928.585	11790
928.69	11889
928.796	11885
928.901	11752
929.007	11707
929.112	11817
929.218	11737
929.323	11752
929.428	11729
929.533	11767
929.638	11672
929.743	11760
929.848	11703
929.953	11642
930.058	11501
930.163	11391
930.267	11391
930.372	11486
930.477	11288
930.581	11520
930.685	11444
930.79	11307
930.894	11277
930.998	11239
931.103	11429
931.207	11079
931.311	10980
931.415	10889
931.519	10653
931.623	10668
