Data from test_V78500241_2518.txt Node
Date: Fri Mar 25 15:27:23 CST 2022
User: usil
Spectrometer: V785-0024
Trigger mode: 0
Integration Time (sec): 4.000000E-1
Scans to average: 1
Nonlinearity correction enabled: false
Boxcar width: 0
Storing dark spectrum: false
XAxis mode: Wavelengths
Number of Pixels in Spectrum: 1024
>>>>>Begin Spectral Data<<<<<
801.071	26979
801.214	27043
801.356	26807
801.499	26826
801.641	26545
801.783	26670
801.926	26731
802.068	26705
802.211	26682
802.353	26499
802.496	26385
802.638	26305
802.78	26374
802.923	26229
803.065	26180
803.208	26138
803.35	26294
803.492	26473
803.635	26514
803.777	26240
803.919	26473
804.061	26659
804.204	26556
804.346	26412
804.488	26408
804.63	26389
804.773	26358
804.915	26415
805.057	26465
805.199	26457
805.341	26434
805.483	26590
805.626	26488
805.768	26393
805.91	26621
806.052	26587
806.194	26526
806.336	26804
806.478	26651
806.62	26583
806.762	26636
806.904	26788
807.046	27055
807.188	26975
807.33	26971
807.472	27020
807.614	26845
807.756	26868
807.898	26754
808.04	26792
808.182	26746
808.324	26880
808.465	26921
808.607	27043
808.749	27039
808.891	27169
809.033	27306
809.174	27359
809.316	27058
809.458	27222
809.6	26994
809.741	27195
809.883	27268
810.025	27481
810.166	27488
810.308	27462
810.45	27310
810.591	27249
810.733	27081
810.875	27123
811.016	27081
811.158	27161
811.299	27325
811.441	27405
811.582	27359
811.724	27112
811.865	26990
812.007	27135
812.148	27127
812.29	27081
812.431	27119
812.573	27439
812.714	27507
812.855	27618
812.997	27736
813.138	27892
813.279	27705
813.421	27515
813.562	27534
813.703	27374
813.845	27340
813.986	27062
814.127	26887
814.268	26872
814.41	26716
814.551	26693
814.692	26887
814.833	26686
814.974	26823
815.115	26727
815.256	26663
815.397	26667
815.539	26545
815.68	26450
815.821	26488
815.962	26465
816.103	26522
816.244	26389
816.385	26271
816.526	26210
816.666	26149
816.807	25982
816.948	26077
817.089	26191
817.23	26054
817.371	26096
817.512	25955
817.653	26024
817.793	25978
817.934	26088
818.075	26005
818.216	26122
818.356	25898
818.497	25860
818.638	25753
818.778	25830
818.919	25727
819.06	25860
819.2	25944
819.341	26069
819.481	26039
819.622	26221
819.762	26366
819.903	26320
820.043	26126
820.184	26271
820.324	26199
820.465	26221
820.605	26191
820.746	26111
820.886	25890
821.026	26176
821.167	26031
821.307	26187
821.447	26020
821.588	25951
821.728	25883
821.868	25746
822.008	25468
822.149	25521
822.289	25556
822.429	25255
822.569	25198
822.709	25255
822.849	25152
822.99	25046
823.13	25008
823.27	24973
823.41	24779
823.55	24700
823.69	24810
823.83	24856
823.97	24673
824.11	24601
824.25	24601
824.389	24677
824.529	24878
824.669	24616
824.809	24696
824.949	24612
825.089	24661
825.228	24730
825.368	24475
825.508	24528
825.648	24544
825.787	24582
825.927	24532
826.067	24544
826.206	24509
826.346	24646
826.485	24661
826.625	24479
826.765	24585
826.904	24601
827.044	24300
827.183	24258
827.323	24194
827.462	24357
827.601	24205
827.741	24239
827.88	24353
828.02	24182
828.159	24197
828.298	24388
828.437	24311
828.577	24311
828.716	24350
828.855	24174
828.994	24038
829.134	23889
829.273	23878
829.412	23961
829.551	23939
829.69	23855
829.829	24011
829.968	24053
830.107	24057
830.246	23901
830.385	23855
830.524	23718
830.663	23775
830.802	23592
830.941	23619
831.08	23539
831.219	23570
831.357	23718
831.496	23695
831.635	23615
831.774	23520
831.913	23436
832.051	23345
832.19	23345
832.329	23349
832.467	23280
832.606	23216
832.744	23280
832.883	23178
833.022	23330
833.16	23178
833.299	23166
833.437	23261
833.576	23242
833.714	23208
833.852	23337
833.991	23417
834.129	23493
834.267	23433
834.406	23315
834.544	23311
834.682	23303
834.821	23395
834.959	23486
835.097	23246
835.235	23406
835.373	23398
835.511	23311
835.65	23376
835.788	23174
835.926	23014
836.064	23006
836.202	23121
836.34	23124
836.478	23261
836.615	23109
836.753	23075
836.891	23208
837.029	23178
837.167	23109
837.305	22946
837.443	23071
837.58	22995
837.718	23181
837.856	23109
837.993	22900
838.131	23083
838.269	22877
838.406	22908
838.544	22809
838.681	22740
838.819	22717
838.956	22432
839.094	22497
839.231	22508
839.369	22691
839.506	22908
839.643	22763
839.781	22523
839.918	22500
840.055	22379
840.193	22500
840.33	22375
840.467	22485
840.604	22371
840.742	22816
840.879	22402
841.016	22402
841.153	22333
841.29	22557
841.427	22363
841.564	22428
841.701	22451
841.838	22440
841.975	22306
842.112	22405
842.249	22257
842.385	22276
842.522	22367
842.659	22371
842.796	22173
842.933	22215
843.069	22143
843.206	22131
843.343	22249
843.479	22112
843.616	22234
843.752	21926
843.889	21926
844.025	22131
844.162	21911
844.298	22044
844.435	21903
844.571	21949
844.708	22013
844.844	22173
844.98	22169
845.117	22029
845.253	21850
845.389	21720
845.525	21865
845.661	21854
845.798	21705
845.934	21724
846.07	21610
846.206	21774
846.342	21724
846.478	21671
846.614	21515
846.75	21412
846.886	21443
847.022	21477
847.158	21629
847.294	21534
847.429	21572
847.565	21332
847.701	21690
847.837	21180
847.972	21279
848.108	21283
848.244	21165
848.379	21116
848.515	20864
848.65	20895
848.786	21028
848.921	21093
849.057	21051
849.192	21032
849.328	21119
849.463	21005
849.598	20960
849.734	20864
849.869	20788
850.004	20743
850.14	20857
850.275	20769
850.41	20834
850.545	20864
850.68	20868
850.815	20754
850.95	20773
851.085	20929
851.22	20777
851.355	20769
851.49	20849
851.625	20895
851.76	20739
851.895	20781
852.03	20674
852.165	20746
852.299	20693
852.434	20937
852.569	20800
852.703	20804
852.838	20872
852.973	20868
853.107	20883
853.242	20651
853.376	20670
853.511	20549
853.645	20571
853.78	20655
853.914	20609
854.048	20465
854.183	20488
854.317	20697
854.451	20769
854.585	20636
854.72	20777
854.854	20720
854.988	20511
855.122	20686
855.256	20514
855.39	20579
855.524	20712
855.658	20678
855.792	20712
855.926	20655
856.06	20674
856.194	20670
856.327	20644
856.461	20594
856.595	20621
856.729	20606
856.862	20819
856.996	20613
857.13	20739
857.263	20815
857.397	20811
857.53	20549
857.664	20659
857.797	20590
857.931	20758
858.064	20522
858.197	20705
858.331	20621
858.464	20625
858.597	20492
858.731	20598
858.864	20564
858.997	20606
859.13	20571
859.263	20636
859.396	20629
859.529	20556
859.662	20560
859.795	20606
859.928	20598
860.061	20788
860.194	20830
860.327	20735
860.46	20545
860.592	20758
860.725	20777
860.858	20815
860.99	20579
861.123	20629
861.256	20594
861.388	20579
861.521	21378
861.653	20484
861.786	20499
861.918	20469
862.05	20537
862.183	20606
862.315	20583
862.447	20606
862.58	20674
862.712	20347
862.844	20355
862.976	20488
863.108	20484
863.24	20739
863.372	20263
863.504	20476
863.636	20278
863.768	20374
863.9	20252
864.032	20351
864.164	20377
864.296	20381
864.428	20450
864.559	20396
864.691	20438
864.823	20450
864.954	20229
865.086	20191
865.217	20362
865.349	20244
865.48	20256
865.612	20267
865.743	20457
865.875	20301
866.006	20282
866.137	20244
866.269	20233
866.4	20164
866.531	20199
866.662	20161
866.793	20176
866.924	20161
867.055	20229
867.186	20313
867.317	20122
867.448	20031
867.579	20119
867.71	20161
867.841	20180
867.972	20237
868.103	20214
868.233	20218
868.364	20259
868.495	20294
868.625	20434
868.756	20602
868.886	20396
869.017	20461
869.147	20503
869.278	20621
869.408	20396
869.539	20336
869.669	20438
869.799	20438
869.929	20667
870.06	20469
870.19	20754
870.32	20663
870.45	20838
870.58	20648
870.71	20937
870.84	20956
870.97	20830
871.1	20849
871.23	20960
871.36	20967
871.489	20960
871.619	21024
871.749	20982
871.879	21032
872.008	21138
872.138	21020
872.267	20910
872.397	20937
872.526	20872
872.656	20910
872.785	20918
872.915	21066
873.044	21150
873.173	21032
873.303	21108
873.432	21032
873.561	21199
873.69	21036
873.819	21108
873.948	21138
874.077	20910
874.206	21093
874.335	21131
874.464	21214
874.593	21332
874.722	21332
874.851	21310
874.979	21260
875.108	21313
875.237	21146
875.365	21142
875.494	21245
875.623	21454
875.751	21336
875.88	21283
876.008	21428
876.136	21412
876.265	21755
876.393	21770
876.521	21606
876.65	21739
876.778	21694
876.906	21595
877.034	21644
877.162	21564
877.29	21618
877.418	21694
877.546	21774
877.674	21587
877.802	21629
877.93	21808
878.058	21656
878.185	21564
878.313	21618
878.441	21538
878.568	21572
878.696	21576
878.824	21743
878.951	21671
879.079	21854
879.206	21987
879.333	21884
879.461	21667
879.588	21724
879.715	21747
879.842	22021
879.97	21789
880.097	21515
880.224	21466
880.351	21561
880.478	21477
880.605	21412
880.732	21401
880.859	21641
880.986	21481
881.112	21454
881.239	21325
881.366	21192
881.493	21135
881.619	21233
881.746	21218
881.872	21085
881.999	20990
882.125	20937
882.252	21096
882.378	21081
882.505	21077
882.631	20948
882.757	20796
882.883	20693
883.01	20765
883.136	20800
883.262	20720
883.388	20651
883.514	20701
883.64	20800
883.766	20667
883.892	20507
884.018	20598
884.143	20746
884.269	20758
884.395	20522
884.52	20476
884.646	20450
884.772	20313
884.897	20347
885.023	20374
885.148	20686
885.274	20564
885.399	20457
885.524	20461
885.65	20374
885.775	20385
885.9	20404
886.025	20511
886.15	20457
886.275	20393
886.4	20431
886.525	20393
886.65	20355
886.775	20343
886.9	20484
887.025	20598
887.149	20438
887.274	20317
887.399	20332
887.523	20142
887.648	20130
887.773	20084
887.897	20191
888.021	20370
888.146	20271
888.27	20278
888.395	20252
888.519	20313
888.643	20221
888.767	20343
888.891	20180
889.015	20008
889.139	20119
889.263	19959
889.387	20031
889.511	20229
889.635	20202
889.759	20046
889.883	20031
890.006	20058
890.13	20157
890.254	19932
890.377	19951
890.501	19814
890.624	19689
890.748	19841
890.871	19738
890.995	19738
891.118	19525
891.241	19632
891.364	19601
891.488	19738
891.611	19590
891.734	19616
891.857	19719
891.98	19655
892.103	19719
892.226	19666
892.349	19597
892.471	19430
892.594	19468
892.717	19571
892.839	19422
892.962	19499
893.085	19624
893.207	19499
893.33	19483
893.452	19441
893.575	19480
893.697	19525
893.819	19715
893.941	19544
894.064	19586
894.186	19563
894.308	19468
894.43	19620
894.552	19772
894.674	19677
894.796	19400
894.918	19514
895.04	19468
895.161	19525
895.283	19499
895.405	19468
895.526	19472
895.648	19537
895.769	19476
895.891	19537
896.012	19750
896.134	19639
896.255	19533
896.376	19529
896.498	19582
896.619	19613
896.74	19632
896.861	19502
896.982	19890
897.103	19906
897.224	19845
897.345	19742
897.466	19624
897.587	19803
897.708	19883
897.828	19780
897.949	19674
898.07	19582
898.19	19677
898.311	19887
898.431	19696
898.552	19837
898.672	19940
898.792	19856
898.913	19784
899.033	19666
899.153	19552
899.273	19483
899.393	19575
899.513	19480
899.633	19605
899.753	19552
899.873	19430
899.993	19525
900.113	19590
900.232	19506
900.352	19491
900.472	19460
900.591	19202
900.711	19297
900.83	19228
900.95	19392
901.069	19362
901.189	19202
901.308	19008
901.427	18798
901.546	18878
901.665	18977
901.784	18863
901.904	18692
902.023	18806
902.141	18391
902.26	18376
902.379	18475
902.498	18460
902.617	18445
902.735	18490
902.854	18289
902.973	18251
903.091	18072
903.21	18057
903.328	18186
903.446	18038
903.565	17863
903.683	17923
903.801	17813
903.919	17904
904.038	17726
904.156	17680
904.274	17813
904.392	17741
904.51	17714
904.627	17665
904.745	17786
904.863	17687
904.981	17501
905.098	17467
905.216	17273
905.334	17486
905.451	17334
905.569	17356
905.686	17337
905.803	17345
905.921	17128
906.038	17318
906.155	17246
906.272	17071
906.389	17090
906.506	16881
906.623	16927
906.74	16885
906.857	16809
906.974	16866
907.091	16942
907.208	16987
907.324	16961
907.441	16790
907.557	16607
907.674	16679
907.79	16500
907.907	16546
908.023	16577
908.139	16626
908.256	16569
908.372	16573
908.488	16523
908.604	16402
908.72	16379
908.836	16356
908.952	16287
909.068	16367
909.184	16478
909.3	16386
909.415	16318
909.531	16253
909.647	16025
909.762	15983
909.878	16032
909.993	16112
910.108	15994
910.224	16154
910.339	15975
910.454	15892
910.57	15888
910.685	15728
910.8	16074
910.915	16036
911.03	15770
911.145	15724
911.259	15705
911.374	15622
911.489	15557
911.604	15515
911.718	15428
911.833	15382
911.947	15386
912.062	15420
912.176	15492
912.291	15538
912.405	15450
912.519	15663
912.633	15519
912.748	15454
912.862	15382
912.976	15233
913.09	15146
913.204	15192
913.318	15176
913.431	15393
913.545	15340
913.659	15294
913.772	15195
913.886	15032
914	14998
914.113	15100
914.226	15192
914.34	15150
914.453	14861
914.566	15043
914.68	14872
914.793	14960
914.906	14701
915.019	14712
915.132	14579
915.245	14636
915.358	14651
915.47	14792
915.583	14746
915.696	14655
915.809	14819
915.921	14788
916.034	14579
916.146	14613
916.259	14575
916.371	14602
916.483	14598
916.595	14511
916.708	14396
916.82	14594
916.932	14545
917.044	14495
917.156	14415
917.268	14210
917.38	14259
917.491	14332
917.603	14355
917.715	14434
917.826	14377
917.938	14267
918.049	14237
918.161	14298
918.272	14423
918.384	14412
918.495	14355
918.606	14081
918.717	14043
918.828	14145
918.939	14088
919.05	13963
919.161	14058
919.272	13898
919.383	13936
919.494	14088
919.604	14286
919.715	14107
919.826	13982
919.936	14031
920.047	14130
920.157	14020
920.267	14252
920.378	14054
920.488	14046
920.598	14229
920.708	14374
920.818	14271
920.928	14157
921.038	14324
921.148	14263
921.258	14039
921.368	13974
921.477	13860
921.587	13719
921.697	13693
921.806	13696
921.916	13693
922.025	13521
922.134	13563
922.244	13396
922.353	13510
922.462	13354
922.571	13392
922.68	13084
922.789	13114
922.898	13084
923.007	13061
923.116	13190
923.224	13031
923.333	13095
923.442	13023
923.55	13008
923.659	12962
923.767	13000
923.876	12837
923.984	12954
924.092	12875
924.201	12985
924.309	12897
924.417	12859
924.525	12722
924.633	12802
924.741	13719
924.849	12589
924.956	12688
925.064	12585
925.172	12544
925.279	12585
925.387	12612
925.494	12551
925.602	12707
925.709	12578
925.816	12429
925.924	12502
926.031	12544
926.138	12544
926.245	12532
926.352	12426
926.459	12521
926.566	12506
926.673	12437
926.779	12285
926.886	12300
926.993	12266
927.099	12102
927.206	12106
927.312	12015
927.419	12144
927.525	12060
927.631	12224
927.737	12076
927.843	11996
927.95	11935
928.056	11889
928.162	11885
928.267	11977
928.373	12578
928.479	12087
928.585	11859
928.69	11942
928.796	11946
928.901	11893
929.007	11707
929.112	11817
929.218	11927
929.323	11733
929.428	11691
929.533	11893
929.638	11551
929.743	11573
929.848	11714
929.953	11615
930.058	11566
930.163	11402
930.267	11433
930.372	11520
930.477	11379
930.581	11615
930.685	11482
930.79	11364
930.894	11292
930.998	11261
931.103	11406
931.207	11064
931.311	11003
931.415	10854
931.519	10603
931.623	10660
