Data from test_V78500241_881.txt Node
Date: Fri Mar 25 15:15:59 CST 2022
User: usil
Spectrometer: V785-0024
Trigger mode: 0
Integration Time (sec): 4.000000E-1
Scans to average: 1
Nonlinearity correction enabled: false
Boxcar width: 0
Storing dark spectrum: false
XAxis mode: Wavelengths
Number of Pixels in Spectrum: 1024
>>>>>Begin Spectral Data<<<<<
801.071	28135
801.214	28086
801.356	27747
801.499	27675
801.641	27644
801.783	27694
801.926	27686
802.068	27591
802.211	27568
802.353	27435
802.496	27378
802.638	27252
802.78	27355
802.923	27230
803.065	27116
803.208	27146
803.35	27272
803.492	27306
803.635	27424
803.777	27412
803.919	27500
804.061	27819
804.204	27485
804.346	27496
804.488	27241
804.63	27568
804.773	27424
804.915	27466
805.057	27622
805.199	27462
805.341	27568
805.483	27686
805.626	27660
805.768	27538
805.91	27504
806.052	27580
806.194	27610
806.336	27854
806.478	27751
806.62	27739
806.762	27762
806.904	27766
807.046	28105
807.188	28021
807.33	28086
807.472	28040
807.614	27857
807.756	28059
807.898	27899
808.04	27823
808.182	27865
808.324	27907
808.465	27903
808.607	28211
808.749	28200
808.891	28246
809.033	28405
809.174	28276
809.316	28405
809.458	28314
809.6	28398
809.741	28401
809.883	28367
810.025	28462
810.166	28660
810.308	28599
810.45	28565
810.591	28538
810.733	28405
810.875	28249
811.016	28143
811.158	28284
811.299	28417
811.441	28451
811.582	28379
811.724	28360
811.865	28329
812.007	28246
812.148	28268
812.29	28417
812.431	28356
812.573	28630
812.714	28611
812.855	28679
812.997	28976
813.138	29060
813.279	28896
813.421	28755
813.562	28744
813.703	28672
813.845	28508
813.986	28352
814.127	28242
814.268	27972
814.41	28147
814.551	28051
814.692	28032
814.833	27987
814.974	27869
815.115	28093
815.256	27949
815.397	27873
815.539	27899
815.68	27857
815.821	27675
815.962	27850
816.103	27812
816.244	27736
816.385	27564
816.526	27629
816.666	27450
816.807	27359
816.948	27378
817.089	27443
817.23	27351
817.371	27310
817.512	27294
817.653	27496
817.793	27283
817.934	27214
818.075	27351
818.216	27386
818.356	27233
818.497	27173
818.638	27009
818.778	27001
818.919	27043
819.06	27211
819.2	27116
819.341	27233
819.481	27332
819.622	27450
819.762	27660
819.903	27671
820.043	27469
820.184	27378
820.324	27427
820.465	27462
820.605	27397
820.746	27416
820.886	27291
821.026	27325
821.167	27317
821.307	27496
821.447	27382
821.588	27131
821.728	27077
821.868	26952
822.008	26857
822.149	26811
822.289	26750
822.429	26522
822.569	26537
822.709	26469
822.849	26328
822.99	26328
823.13	26317
823.27	26199
823.41	26100
823.55	26096
823.69	26153
823.83	26058
823.97	26031
824.11	25955
824.25	25906
824.389	25898
824.529	26012
824.669	25894
824.809	26008
824.949	26130
825.089	26119
825.228	25974
825.368	25966
825.508	25826
825.648	25791
825.787	25814
825.927	25841
826.067	25727
826.206	25715
826.346	25917
826.485	25811
826.625	25852
826.765	25837
826.904	25921
827.044	25655
827.183	25674
827.323	25445
827.462	25578
827.601	25609
827.741	25609
827.88	25738
828.02	25312
828.159	25525
828.298	25597
828.437	25605
828.577	25491
828.716	25605
828.855	25658
828.994	25312
829.134	25190
829.273	25331
829.412	25209
829.551	25164
829.69	25232
829.829	25308
829.968	25354
830.107	25247
830.246	25202
830.385	25061
830.524	25244
830.663	25042
830.802	24989
830.941	25012
831.08	24817
831.219	24863
831.357	24741
831.496	25053
831.635	24897
831.774	24692
831.913	24734
832.051	24700
832.19	24593
832.329	24620
832.467	24547
832.606	24494
832.744	24448
832.883	24517
833.022	24433
833.16	24475
833.299	24574
833.437	24498
833.576	24623
833.714	24555
833.852	24677
833.991	24601
834.129	24597
834.267	24795
834.406	24673
834.544	24574
834.682	24555
834.821	24688
834.959	24681
835.097	24452
835.235	24612
835.373	24502
835.511	24635
835.65	24547
835.788	24464
835.926	24327
836.064	24235
836.202	24239
836.34	24414
836.478	24555
836.615	24388
836.753	24319
836.891	24585
837.029	24467
837.167	24403
837.305	24380
837.443	24213
837.58	24178
837.718	24395
837.856	24251
837.993	24285
838.131	24220
838.269	24091
838.406	24235
838.544	24163
838.681	23958
838.819	23855
838.956	23680
839.094	23756
839.231	23840
839.369	23889
839.506	24121
839.643	24007
839.781	23703
839.918	23726
840.055	23703
840.193	23676
840.33	23627
840.467	23604
840.604	23695
840.742	24030
840.879	23455
841.016	23551
841.153	23497
841.29	23752
841.427	23482
841.564	23634
841.701	23680
841.838	23676
841.975	23573
842.112	23566
842.249	23482
842.385	23410
842.522	23516
842.659	23512
842.796	23379
842.933	23429
843.069	23444
843.206	23311
843.343	23497
843.479	23364
843.616	23292
843.752	23178
843.889	23208
844.025	23235
844.162	23147
844.298	23322
844.435	23189
844.571	23143
844.708	23254
844.844	23220
844.98	23303
845.117	23311
845.253	23223
845.389	23029
845.525	22991
845.661	22968
845.798	22820
845.934	23006
846.07	22786
846.206	22949
846.342	22953
846.478	22892
846.614	22675
846.75	22561
846.886	22717
847.022	22706
847.158	22577
847.294	22691
847.429	22744
847.565	22630
847.701	22835
847.837	22329
847.972	22257
848.108	22497
848.244	22436
848.379	22276
848.515	22166
848.65	22268
848.786	22215
848.921	22333
849.057	22356
849.192	22207
849.328	22306
849.463	22200
849.598	22226
849.734	22204
849.869	22067
850.004	21960
850.14	22025
850.275	22120
850.41	21873
850.545	21709
850.68	22048
850.815	22025
850.95	21895
851.085	22128
851.22	22120
851.355	22063
851.49	22063
851.625	21991
851.76	21941
851.895	21895
852.03	21869
852.165	21915
852.299	22002
852.434	22006
852.569	22010
852.703	22002
852.838	22067
852.973	22090
853.107	22086
853.242	21857
853.376	21766
853.511	21736
853.645	21739
853.78	21930
853.914	21812
854.048	21728
854.183	21857
854.317	21892
854.451	21975
854.585	21857
854.72	21876
854.854	22002
854.988	21751
855.122	21778
855.256	21724
855.39	21720
855.524	21873
855.658	21865
855.792	21778
855.926	21797
856.06	21808
856.194	21945
856.327	21785
856.461	21743
856.595	21827
856.729	21648
856.862	21869
856.996	21781
857.13	21736
857.263	21949
857.397	21861
857.53	21785
857.664	21823
857.797	21922
857.931	21838
858.064	21819
858.197	21964
858.331	21759
858.464	21701
858.597	21724
858.731	21778
858.864	21720
858.997	21747
859.13	21720
859.263	21861
859.396	21835
859.529	21736
859.662	21797
859.795	21785
859.928	21884
860.061	21972
860.194	21975
860.327	21846
860.46	21865
860.592	21991
860.725	21873
860.858	21907
860.99	21819
861.123	21641
861.256	21766
861.388	21732
861.521	22607
861.653	21694
861.786	21641
861.918	21587
862.05	21717
862.183	21686
862.315	21667
862.447	21736
862.58	21675
862.712	21557
862.844	21405
862.976	21724
863.108	21701
863.24	21983
863.372	21447
863.504	21511
863.636	21500
863.768	21542
863.9	21519
864.032	21496
864.164	21526
864.296	21580
864.428	21641
864.559	21568
864.691	21538
864.823	21473
864.954	21336
865.086	21454
865.217	21355
865.349	21450
865.48	21431
865.612	21378
865.743	21599
865.875	21397
866.006	21389
866.137	21473
866.269	21386
866.4	21348
866.531	21264
866.662	21294
866.793	21310
866.924	21256
867.055	21176
867.186	21412
867.317	21260
867.448	21226
867.579	21348
867.71	21252
867.841	21329
867.972	21279
868.103	21306
868.233	21359
868.364	21382
868.495	21389
868.625	21747
868.756	21663
868.886	21469
869.017	21618
869.147	21637
869.278	21694
869.408	21622
869.539	21686
869.669	21701
869.799	21610
869.929	21610
870.06	21667
870.19	21899
870.32	21880
870.45	21926
870.58	21869
870.71	21949
870.84	22040
870.97	21975
871.1	21972
871.23	22120
871.36	22116
871.489	22067
871.619	22051
871.749	22196
871.879	22249
872.008	22192
872.138	22215
872.267	22090
872.397	21975
872.526	21956
872.656	21888
872.785	21994
872.915	22112
873.044	22257
873.173	22192
873.303	22207
873.432	22147
873.561	22211
873.69	22082
873.819	22234
873.948	22272
874.077	22158
874.206	22173
874.335	22090
874.464	22234
874.593	22504
874.722	22314
874.851	22493
874.979	22386
875.108	22447
875.237	22447
875.365	22421
875.494	22402
875.623	22371
875.751	22371
875.88	22557
876.008	22390
876.136	22596
876.265	22736
876.393	22850
876.521	22881
876.65	22797
876.778	22805
876.906	22744
877.034	22675
877.162	22653
877.29	22763
877.418	22820
877.546	22763
877.674	22809
877.802	22668
877.93	22683
878.058	22759
878.185	22679
878.313	22702
878.441	22577
878.568	22489
878.696	22713
878.824	22740
878.951	22828
879.079	23029
879.206	22930
879.333	22908
879.461	22797
879.588	22820
879.715	22889
879.842	22957
879.97	22763
880.097	22599
880.224	22561
880.351	22592
880.478	22630
880.605	22611
880.732	22485
880.859	22721
880.986	22497
881.112	22481
881.239	22409
881.366	22226
881.493	22234
881.619	22177
881.746	22181
881.872	22173
881.999	22185
882.125	22036
882.252	22131
882.378	22051
882.505	22223
882.631	21915
882.757	21732
882.883	21846
883.01	21793
883.136	21759
883.262	21679
883.388	21606
883.514	21975
883.64	21808
883.766	21701
883.892	21603
884.018	21542
884.143	21781
884.269	21747
884.395	21538
884.52	21359
884.646	21477
884.772	21359
884.897	21397
885.023	21420
885.148	21553
885.274	21629
885.399	21504
885.524	21424
885.65	21496
885.775	21428
885.9	21382
886.025	21462
886.15	21504
886.275	21458
886.4	21344
886.525	21424
886.65	21260
886.775	21424
886.9	21431
887.025	21690
887.149	21329
887.274	21313
887.399	21249
887.523	21291
887.648	21138
887.773	21116
887.897	21203
888.021	21131
888.146	21222
888.27	21294
888.395	21332
888.519	21275
888.643	21378
888.767	21264
888.891	21127
889.015	20895
889.139	21028
889.263	20994
889.387	21100
889.511	21214
889.635	21245
889.759	21108
889.883	21066
890.006	20929
890.13	21127
890.254	20887
890.377	21024
890.501	20686
890.624	20720
890.748	20857
890.871	20651
890.995	20686
891.118	20457
891.241	20537
891.364	20499
891.488	20705
891.611	20568
891.734	20564
891.857	20590
891.98	20609
892.103	20606
892.226	20526
892.349	20552
892.471	20301
892.594	20450
892.717	20469
892.839	20503
892.962	20492
893.085	20511
893.207	20389
893.33	20454
893.452	20408
893.575	20461
893.697	20488
893.819	20556
893.941	20651
894.064	20678
894.186	20518
894.308	20465
894.43	20594
894.552	20644
894.674	20648
894.796	20351
894.918	20377
895.04	20328
895.161	20530
895.283	20526
895.405	20396
895.526	20473
895.648	20434
895.769	20590
895.891	20473
896.012	20533
896.134	20507
896.255	20476
896.376	20431
896.498	20461
896.619	20476
896.74	20480
896.861	20579
896.982	20819
897.103	20925
897.224	20720
897.345	20716
897.466	20575
897.587	20670
897.708	20743
897.828	20602
897.949	20575
898.07	20480
898.19	20594
898.311	20750
898.431	20583
898.552	20594
898.672	20785
898.792	20701
898.913	20674
899.033	20629
899.153	20438
899.273	20339
899.393	20336
899.513	20476
899.633	20396
899.753	20358
899.873	20412
899.993	20454
900.113	20427
900.232	20377
900.352	20309
900.472	20111
900.591	20119
900.711	20271
900.83	20149
900.95	20202
901.069	20130
901.189	20005
901.308	19860
901.427	19826
901.546	19700
901.665	19746
901.784	19723
901.904	19658
902.023	19575
902.141	19324
902.26	19289
902.379	19373
902.498	19278
902.617	19225
902.735	19274
902.854	19346
902.973	19168
903.091	18947
903.21	18981
903.328	19019
903.446	18867
903.565	18722
903.683	18703
903.801	18692
903.919	18650
904.038	18692
904.156	18566
904.274	18681
904.392	18513
904.51	18585
904.627	18467
904.745	18570
904.863	18570
904.981	18323
905.098	18292
905.216	18190
905.334	18315
905.451	18133
905.569	18171
905.686	18228
905.803	18152
905.921	18038
906.038	18095
906.155	18015
906.272	17809
906.389	17885
906.506	17623
906.623	17649
906.74	17649
906.857	17668
906.974	17653
907.091	17824
907.208	17885
907.324	17752
907.441	17543
907.557	17353
907.674	17501
907.79	17360
907.907	17398
908.023	17395
908.139	17360
908.256	17353
908.372	17315
908.488	17292
908.604	17121
908.72	17083
908.836	17239
908.952	17189
909.068	17128
909.184	17231
909.3	17181
909.415	17170
909.531	17197
909.647	16908
909.762	16965
909.878	16793
909.993	16774
910.108	16771
910.224	16748
910.339	16801
910.454	16698
910.57	16660
910.685	16550
910.8	16816
910.915	16850
911.03	16740
911.145	16485
911.259	16428
911.374	16436
911.489	16394
911.604	16352
911.718	16093
911.833	16223
911.947	16093
912.062	15945
912.176	16257
912.291	16188
912.405	16097
912.519	16306
912.633	16314
912.748	16257
912.862	16139
912.976	16021
913.09	15892
913.204	15880
913.318	16044
913.431	16150
913.545	16048
913.659	16074
913.772	15903
913.886	15880
914	15675
914.113	15865
914.226	15804
914.34	15804
914.453	15599
914.566	15861
914.68	15698
914.793	15720
914.906	15507
915.019	15450
915.132	15294
915.245	15344
915.358	15363
915.47	15504
915.583	15397
915.696	15348
915.809	15466
915.921	15496
916.034	15374
916.146	15264
916.259	15237
916.371	15370
916.483	15268
916.595	15203
916.708	15268
916.82	15268
916.932	15150
917.044	15055
917.156	15108
917.268	14948
917.38	15085
917.491	15058
917.603	15074
917.715	15070
917.826	15161
917.938	14876
918.049	14902
918.161	14971
918.272	15074
918.384	15032
918.495	14918
918.606	14731
918.717	14785
918.828	14880
918.939	14781
919.05	14670
919.161	14727
919.272	14514
919.383	14674
919.494	14746
919.604	14960
919.715	14823
919.826	14727
919.936	14708
920.047	14967
920.157	14678
920.267	14948
920.378	14796
920.488	14686
920.598	14899
920.708	14994
920.818	14792
920.928	14861
921.038	14986
921.148	14941
921.258	14777
921.368	14549
921.477	14537
921.587	14351
921.697	14332
921.806	14442
921.916	14328
922.025	14164
922.134	14081
922.244	14050
922.353	14180
922.462	14024
922.571	13936
922.68	13788
922.789	13765
922.898	13674
923.007	13719
923.116	13746
923.224	13700
923.333	13681
923.442	13518
923.55	13632
923.659	13506
923.767	13655
923.876	13407
923.984	13632
924.092	13552
924.201	13533
924.309	13445
924.417	13499
924.525	13373
924.633	13480
924.741	14187
924.849	13232
924.956	13320
925.064	13171
925.172	13031
925.279	13156
925.387	13175
925.494	13023
925.602	13244
925.709	13122
925.816	13080
925.924	13053
926.031	13126
926.138	13103
926.245	13145
926.352	12962
926.459	13168
926.566	13133
926.673	13076
926.779	12886
926.886	12928
926.993	12681
927.099	12772
927.206	12696
927.312	12730
927.419	12787
927.525	12669
927.631	12684
927.737	12631
927.843	12623
927.95	12410
928.056	12502
928.162	12536
928.267	12639
928.373	13107
928.479	12597
928.585	12399
928.69	12486
928.796	12521
928.901	12380
929.007	12369
929.112	12407
929.218	12319
929.323	12262
929.428	12304
929.533	12357
929.638	12106
929.743	12216
929.848	12190
929.953	12270
930.058	12121
930.163	11908
930.267	11931
930.372	12121
930.477	11961
930.581	12144
930.685	11969
930.79	11817
930.894	11817
930.998	11798
931.103	11946
931.207	11585
931.311	11539
931.415	11467
931.519	11223
931.623	11216
