Data from test_V78500241_1185.txt Node
Date: Fri Mar 25 15:18:06 CST 2022
User: usil
Spectrometer: V785-0024
Trigger mode: 0
Integration Time (sec): 4.000000E-1
Scans to average: 1
Nonlinearity correction enabled: false
Boxcar width: 0
Storing dark spectrum: false
XAxis mode: Wavelengths
Number of Pixels in Spectrum: 1024
>>>>>Begin Spectral Data<<<<<
801.071	27774
801.214	27568
801.356	27458
801.499	27454
801.641	27203
801.783	27169
801.926	27306
802.068	27252
802.211	27150
802.353	27188
802.496	26944
802.638	26990
802.78	26933
802.923	26861
803.065	26864
803.208	26925
803.35	26921
803.492	27055
803.635	27146
803.777	26857
803.919	27150
804.061	27355
804.204	27298
804.346	27028
804.488	27024
804.63	27192
804.773	26960
804.915	27237
805.057	27161
805.199	27218
805.341	27252
805.483	27294
805.626	27211
805.768	27123
805.91	27287
806.052	27146
806.194	27138
806.336	27382
806.478	27233
806.62	27241
806.762	27382
806.904	27469
807.046	27838
807.188	27568
807.33	27652
807.472	27641
807.614	27591
807.756	27587
807.898	27614
808.04	27287
808.182	27382
808.324	27511
808.465	27530
808.607	27705
808.749	27854
808.891	28013
809.033	27964
809.174	27892
809.316	27766
809.458	27850
809.6	27781
809.741	27922
809.883	27979
810.025	28067
810.166	28059
810.308	28063
810.45	28078
810.591	27991
810.733	27888
810.875	28025
811.016	27838
811.158	27675
811.299	28048
811.441	27964
811.582	27979
811.724	28006
811.865	27827
812.007	27682
812.148	27766
812.29	28074
812.431	27991
812.573	28249
812.714	28318
812.855	28436
812.997	28474
813.138	28611
813.279	28405
813.421	28470
813.562	28314
813.703	28211
813.845	28082
813.986	27899
814.127	27572
814.268	27610
814.41	27485
814.551	27610
814.692	27576
814.833	27317
814.974	27450
815.115	27534
815.256	27485
815.397	27439
815.539	27435
815.68	27389
815.821	27283
815.962	27268
816.103	27317
816.244	27336
816.385	27245
816.526	27112
816.666	27051
816.807	26990
816.948	26876
817.089	27005
817.23	27005
817.371	26883
817.512	26910
817.653	26781
817.793	26785
817.934	26902
818.075	26845
818.216	26868
818.356	26762
818.497	26754
818.638	26629
818.778	26663
818.919	26663
819.06	26693
819.2	26842
819.341	26785
819.481	26815
819.622	26872
819.762	27074
819.903	27093
820.043	26929
820.184	26982
820.324	26979
820.465	27085
820.605	26937
820.746	26902
820.886	26815
821.026	27005
821.167	26823
821.307	27043
821.447	26838
821.588	26788
821.728	26598
821.868	26450
822.008	26317
822.149	26290
822.289	26347
822.429	26172
822.569	25902
822.709	25887
822.849	25833
822.99	25811
823.13	25875
823.27	25791
823.41	25837
823.55	25578
823.69	25670
823.83	25605
823.97	25597
824.11	25464
824.25	25430
824.389	25495
824.529	25529
824.669	25445
824.809	25605
824.949	25616
825.089	25571
825.228	25537
825.368	25449
825.508	25240
825.648	25403
825.787	25407
825.927	25381
826.067	25282
826.206	25339
826.346	25381
826.485	25487
826.625	25426
826.765	25434
826.904	25381
827.044	25004
827.183	25133
827.323	25069
827.462	25114
827.601	25099
827.741	25076
827.88	25065
828.02	24894
828.159	25057
828.298	25099
828.437	25061
828.577	24943
828.716	25145
828.855	24935
828.994	24798
829.134	24753
829.273	24859
829.412	24817
829.551	24745
829.69	24768
829.829	24749
829.968	24996
830.107	24897
830.246	24768
830.385	24791
830.524	24642
830.663	24627
830.802	24502
830.941	24350
831.08	24239
831.219	24555
831.357	24521
831.496	24711
831.635	24486
831.774	24376
831.913	24273
832.051	24258
832.19	24262
832.329	24209
832.467	24152
832.606	24102
832.744	24140
832.883	24064
833.022	24034
833.16	24095
833.299	24144
833.437	24045
833.576	24129
833.714	24117
833.852	24194
833.991	24129
834.129	24296
834.267	24235
834.406	24136
834.544	24110
834.682	24152
834.821	24057
834.959	24304
835.097	24087
835.235	24136
835.373	24167
835.511	24148
835.65	23984
835.788	24030
835.926	23824
836.064	23764
836.202	23904
836.34	23912
836.478	24041
836.615	23946
836.753	24095
836.891	24011
837.029	24015
837.167	23805
837.305	23973
837.443	23950
837.58	23779
837.718	23969
837.856	23904
837.993	23699
838.131	23817
838.269	23805
838.406	23756
838.544	23794
838.681	23501
838.819	23436
838.956	23292
839.094	23353
839.231	23391
839.369	23524
839.506	23748
839.643	23531
839.781	23410
839.918	23376
840.055	23379
840.193	23208
840.33	23162
840.467	23261
840.604	23178
840.742	23562
840.879	23022
841.016	23212
841.153	23197
841.29	23288
841.427	23204
841.564	23261
841.701	23155
841.838	23212
841.975	23117
842.112	23064
842.249	23094
842.385	22995
842.522	23170
842.659	23181
842.796	23006
842.933	22923
843.069	23010
843.206	22820
843.343	23018
843.479	22869
843.616	23071
843.752	22790
843.889	22778
844.025	22850
844.162	22759
844.298	23037
844.435	22885
844.571	22843
844.708	22816
844.844	22896
844.98	22866
845.117	22885
845.253	22744
845.389	22611
845.525	22725
845.661	22546
845.798	22417
845.934	22554
846.07	22440
846.206	22618
846.342	22588
846.478	22421
846.614	22318
846.75	22166
846.886	22207
847.022	22185
847.158	22314
847.294	22253
847.429	22287
847.565	22246
847.701	22440
847.837	21975
847.972	21994
848.108	22040
848.244	22063
848.379	21869
848.515	21861
848.65	21842
848.786	21724
848.921	21869
849.057	21888
849.192	21857
849.328	21827
849.463	21960
849.598	21915
849.734	21572
849.869	21637
850.004	21572
850.14	21603
850.275	21656
850.41	21549
850.545	21557
850.68	21534
850.815	21686
850.95	21553
851.085	21709
851.22	21724
851.355	21675
851.49	21572
851.625	21538
851.76	21435
851.895	21492
852.03	21454
852.165	21519
852.299	21622
852.434	21690
852.569	21622
852.703	21576
852.838	21694
852.973	21660
853.107	21671
853.242	21568
853.376	21507
853.511	21336
853.645	21329
853.78	21477
853.914	21534
854.048	21447
854.183	21542
854.317	21386
854.451	21625
854.585	21393
854.72	21241
854.854	21359
854.988	21359
855.122	21397
855.256	21332
855.39	21268
855.524	21462
855.658	21363
855.792	21416
855.926	21553
856.06	21336
856.194	21386
856.327	21340
856.461	21367
856.595	21458
856.729	21454
856.862	21500
856.996	21443
857.13	21469
857.263	21553
857.397	21519
857.53	21447
857.664	21500
857.797	21500
857.931	21511
858.064	21439
858.197	21534
858.331	21389
858.464	21348
858.597	21237
858.731	21401
858.864	21298
858.997	21294
859.13	21374
859.263	21386
859.396	21534
859.529	21405
859.662	21298
859.795	21306
859.928	21332
860.061	21393
860.194	21698
860.327	21496
860.46	21473
860.592	21523
860.725	21583
860.858	21519
860.99	21412
861.123	21401
861.256	21355
861.388	21488
861.521	22207
861.653	21256
861.786	21211
861.918	21348
862.05	21351
862.183	21313
862.315	21454
862.447	21568
862.58	21313
862.712	21127
862.844	21096
862.976	21260
863.108	21169
863.24	21507
863.372	21138
863.504	21173
863.636	21161
863.768	21119
863.9	21001
864.032	21066
864.164	21024
864.296	21119
864.428	21188
864.559	21332
864.691	21127
864.823	21199
864.954	21195
865.086	21131
865.217	20971
865.349	20998
865.48	21127
865.612	21039
865.743	21176
865.875	21013
866.006	21028
866.137	20963
866.269	21062
866.4	21112
866.531	21074
866.662	20895
866.793	20883
866.924	20933
867.055	20952
867.186	21066
867.317	20883
867.448	21047
867.579	21024
867.71	20952
867.841	20807
867.972	21051
868.103	21074
868.233	20944
868.364	20982
868.495	21009
868.625	21112
868.756	21211
868.886	21142
869.017	21192
869.147	21412
869.278	21355
869.408	21268
869.539	21279
869.669	21249
869.799	21302
869.929	21298
870.06	21332
870.19	21523
870.32	21500
870.45	21580
870.58	21629
870.71	21679
870.84	21774
870.97	21648
871.1	21534
871.23	21800
871.36	21770
871.489	21739
871.619	21671
871.749	21682
871.879	21850
872.008	21892
872.138	21785
872.267	21846
872.397	21739
872.526	21709
872.656	21656
872.785	21698
872.915	21987
873.044	21915
873.173	21842
873.303	21888
873.432	21854
873.561	21930
873.69	21865
873.819	21743
873.948	21926
874.077	21785
874.206	21656
874.335	21873
874.464	21941
874.593	22051
874.722	22021
874.851	22139
874.979	22120
875.108	22059
875.237	21880
875.365	21884
875.494	21972
875.623	22230
875.751	22021
875.88	22017
876.008	22093
876.136	22253
876.265	22580
876.393	22531
876.521	22538
876.65	22618
876.778	22440
876.906	22424
877.034	22436
877.162	22440
877.29	22325
877.418	22554
877.546	22352
877.674	22565
877.802	22394
877.93	22386
878.058	22394
878.185	22287
878.313	22318
878.441	22428
878.568	22177
878.696	22272
878.824	22421
878.951	22413
879.079	22485
879.206	22664
879.333	22440
879.461	22455
879.588	22493
879.715	22569
879.842	22611
879.97	22459
880.097	22200
880.224	22090
880.351	22234
880.478	22215
880.605	22253
880.732	22154
880.859	22367
880.986	22192
881.112	22204
881.239	22070
881.366	21941
881.493	21850
881.619	21770
881.746	21869
881.872	21797
881.999	21751
882.125	21713
882.252	21835
882.378	21762
882.505	21873
882.631	21686
882.757	21481
882.883	21504
883.01	21530
883.136	21431
883.262	21439
883.388	21355
883.514	21690
883.64	21591
883.766	21553
883.892	21161
884.018	21241
884.143	21389
884.269	21507
884.395	21165
884.52	21062
884.646	21131
884.772	20944
884.897	21024
885.023	21214
885.148	21275
885.274	21256
885.399	21233
885.524	21142
885.65	21131
885.775	21272
885.9	21096
886.025	21260
886.15	21154
886.275	21154
886.4	21020
886.525	21055
886.65	21116
886.775	20971
886.9	21142
887.025	21367
887.149	21081
887.274	20979
887.399	20986
887.523	20941
887.648	20906
887.773	20800
887.897	20861
888.021	20849
888.146	20902
888.27	20990
888.395	20979
888.519	20765
888.643	20994
888.767	20994
888.891	20826
889.015	20777
889.139	20758
889.263	20724
889.387	20765
889.511	20857
889.635	20857
889.759	20724
889.883	20636
890.006	20754
890.13	20838
890.254	20613
890.377	20583
890.501	20495
890.624	20358
890.748	20514
890.871	20358
890.995	20256
891.118	20339
891.241	20278
891.364	20336
891.488	20427
891.611	20328
891.734	20240
891.857	20271
891.98	20233
892.103	20286
892.226	20317
892.349	20317
892.471	20077
892.594	20126
892.717	20126
892.839	20142
892.962	20134
893.085	20191
893.207	20290
893.33	19978
893.452	20107
893.575	20252
893.697	20111
893.819	20400
893.941	20499
894.064	20309
894.186	20187
894.308	20126
894.43	20149
894.552	20358
894.674	20195
894.796	20107
894.918	20191
895.04	20119
895.161	20233
895.283	20122
895.405	20062
895.526	20077
895.648	20145
895.769	20286
895.891	20183
896.012	20153
896.134	20233
896.255	20157
896.376	20145
896.498	20050
896.619	20092
896.74	20126
896.861	20240
896.982	20480
897.103	20629
897.224	20370
897.345	20351
897.466	20298
897.587	20248
897.708	20560
897.828	20419
897.949	20240
898.07	20176
898.19	20332
898.311	20457
898.431	20267
898.552	20396
898.672	20552
898.792	20469
898.913	20320
899.033	20309
899.153	20187
899.273	20157
899.393	20084
899.513	20168
899.633	20111
899.753	20157
899.873	20046
899.993	20111
900.113	20077
900.232	19967
900.352	20073
900.472	19967
900.591	19864
900.711	19845
900.83	19814
900.95	20016
901.069	19913
901.189	19822
901.308	19643
901.427	19582
901.546	19499
901.665	19426
901.784	19521
901.904	19411
902.023	19308
902.141	19004
902.26	19065
902.379	18989
902.498	18943
902.617	18973
902.735	19084
902.854	18897
902.973	18886
903.091	18684
903.21	18681
903.328	18589
903.446	18506
903.565	18460
903.683	18414
903.801	18418
903.919	18479
904.038	18376
904.156	18114
904.274	18471
904.392	18167
904.51	18232
904.627	18266
904.745	18258
904.863	18228
904.981	18110
905.098	17828
905.216	17931
905.334	17931
905.451	17942
905.569	17859
905.686	17977
905.803	17874
905.921	17672
906.038	17805
906.155	17668
906.272	17638
906.389	17642
906.506	17524
906.623	17551
906.74	17376
906.857	17383
906.974	17204
907.091	17490
907.208	17543
907.324	17638
907.441	17326
907.557	17178
907.674	17105
907.79	17178
907.907	17178
908.023	17265
908.139	17193
908.256	17159
908.372	17075
908.488	17090
908.604	16927
908.72	17052
908.836	16923
908.952	16869
909.068	16892
909.184	16900
909.3	16980
909.415	16961
909.531	16801
909.647	16626
909.762	16596
909.878	16470
909.993	16622
910.108	16550
910.224	16440
910.339	16421
910.454	16481
910.57	16375
910.685	16272
910.8	16660
910.915	16588
911.03	16280
911.145	16219
911.259	16116
911.374	16257
911.489	16143
911.604	15998
911.718	15975
911.833	16006
911.947	15739
912.062	15724
912.176	15846
912.291	15743
912.405	15907
912.519	16150
912.633	16093
912.748	15960
912.862	15941
912.976	15759
913.09	15580
913.204	15720
913.318	15755
913.431	15747
913.545	15625
913.659	15854
913.772	15747
913.886	15523
914	15530
914.113	15618
914.226	15625
914.34	15614
914.453	15443
914.566	15557
914.68	15428
914.793	15443
914.906	15317
915.019	15157
915.132	15150
915.245	15184
915.358	15218
915.47	15150
915.583	15119
915.696	15199
915.809	15203
915.921	15218
916.034	15051
916.146	15089
916.259	15036
916.371	15108
916.483	15112
916.595	15066
916.708	14944
916.82	15036
916.932	14807
917.044	14994
917.156	14876
917.268	14792
917.38	14758
917.491	14788
917.603	14769
917.715	14849
917.826	14857
917.938	14781
918.049	14564
918.161	14769
918.272	14823
918.384	14880
918.495	14807
918.606	14621
918.717	14602
918.828	14629
918.939	14533
919.05	14415
919.161	14473
919.272	14362
919.383	14442
919.494	14590
919.604	14769
919.715	14549
919.826	14423
919.936	14484
920.047	14537
920.157	14438
920.267	14716
920.378	14511
920.488	14511
920.598	14785
920.708	14925
920.818	14716
920.928	14644
921.038	14777
921.148	14743
921.258	14484
921.368	14389
921.477	14263
921.587	14278
921.697	14123
921.806	14259
921.916	14096
922.025	13917
922.134	13894
922.244	13856
922.353	13932
922.462	13803
922.571	13666
922.68	13616
922.789	13506
922.898	13556
923.007	13514
923.116	13590
923.224	13548
923.333	13525
923.442	13373
923.55	13365
923.659	13384
923.767	13480
923.876	13365
923.984	13343
924.092	13282
924.201	13285
924.309	13221
924.417	13331
924.525	13206
924.633	13190
924.741	13963
924.849	13038
924.956	13179
925.064	12935
925.172	12924
925.279	12981
925.387	12928
925.494	12962
925.602	13149
925.709	13034
925.816	12920
925.924	12932
926.031	13050
926.138	12886
926.245	12932
926.352	12833
926.459	12928
926.566	12920
926.673	12856
926.779	12658
926.886	12658
926.993	12551
927.099	12471
927.206	12407
927.312	12509
927.419	12563
927.525	12502
927.631	12604
927.737	12452
927.843	12319
927.95	12258
928.056	12395
928.162	12475
928.267	12456
928.373	12905
928.479	12407
928.585	12304
928.69	12277
928.796	12372
928.901	12216
929.007	12175
929.112	12171
929.218	12243
929.323	12175
929.428	12030
929.533	12140
929.638	12015
929.743	11958
929.848	12197
929.953	11984
930.058	11961
930.163	11809
930.267	11767
930.372	11999
930.477	11783
930.581	11946
930.685	11843
930.79	11726
930.894	11741
930.998	11623
931.103	11786
931.207	11326
931.311	11364
931.415	11223
931.519	11086
931.623	11033
