Data from test_V78500241_3263.txt Node
Date: Fri Mar 25 15:32:34 CST 2022
User: usil
Spectrometer: V785-0024
Trigger mode: 0
Integration Time (sec): 4.000000E-1
Scans to average: 1
Nonlinearity correction enabled: false
Boxcar width: 0
Storing dark spectrum: false
XAxis mode: Wavelengths
Number of Pixels in Spectrum: 1024
>>>>>Begin Spectral Data<<<<<
801.071	27526
801.214	27207
801.356	26971
801.499	26940
801.641	26853
801.783	26868
801.926	26929
802.068	27005
802.211	26758
802.353	26857
802.496	26568
802.638	26762
802.78	26621
802.923	26393
803.065	26385
803.208	26461
803.35	26404
803.492	26560
803.635	26750
803.777	26476
803.919	26731
804.061	26982
804.204	26720
804.346	26579
804.488	26651
804.63	26686
804.773	26629
804.915	26716
805.057	26693
805.199	26583
805.341	26800
805.483	26712
805.626	26857
805.768	26663
805.91	26788
806.052	26731
806.194	26701
806.336	27032
806.478	26731
806.62	26731
806.762	26819
806.904	26960
807.046	27230
807.188	27264
807.33	27241
807.472	27226
807.614	27260
807.756	27009
807.898	27066
808.04	26925
808.182	26925
808.324	26921
808.465	26933
808.607	27291
808.749	27203
808.891	27462
809.033	27496
809.174	27462
809.316	27386
809.458	27249
809.6	27355
809.741	27439
809.883	27469
810.025	27652
810.166	27663
810.308	27709
810.45	27576
810.591	27701
810.733	27477
810.875	27355
811.016	27252
811.158	27214
811.299	27450
811.441	27641
811.582	27492
811.724	27325
811.865	27408
812.007	27344
812.148	27389
812.29	27317
812.431	27477
812.573	27637
812.714	27762
812.855	27880
812.997	27911
813.138	28090
813.279	28055
813.421	27819
813.562	27930
813.703	27694
813.845	27618
813.986	27252
814.127	27165
814.268	27024
814.41	26979
814.551	26952
814.692	27074
814.833	26952
814.974	26982
815.115	26975
815.256	26948
815.397	26868
815.539	27017
815.68	26811
815.821	26716
815.962	26815
816.103	26819
816.244	26575
816.385	26644
816.526	26552
816.666	26237
816.807	26252
816.948	26412
817.089	26442
817.23	26343
817.371	26210
817.512	26240
817.653	26206
817.793	26202
817.934	26168
818.075	26278
818.216	26377
818.356	26328
818.497	26142
818.638	25993
818.778	25868
818.919	26103
819.06	26142
819.2	26142
819.341	26157
819.481	26355
819.622	26476
819.762	26686
819.903	26526
820.043	26434
820.184	26476
820.324	26446
820.465	26419
820.605	26324
820.746	26336
820.886	26168
821.026	26294
821.167	26176
821.307	26305
821.447	26248
821.588	26107
821.728	26122
821.868	26031
822.008	25871
822.149	25696
822.289	25746
822.429	25472
822.569	25453
822.709	25548
822.849	25419
822.99	25312
823.13	25278
823.27	25129
823.41	25008
823.55	24852
823.69	25015
823.83	25050
823.97	24996
824.11	24795
824.25	24890
824.389	24951
824.529	25107
824.669	24825
824.809	25103
824.949	25095
825.089	24973
825.228	24871
825.368	24745
825.508	24684
825.648	24772
825.787	24829
825.927	24817
826.067	24741
826.206	24749
826.346	24867
826.485	24787
826.625	24631
826.765	24840
826.904	24829
827.044	24700
827.183	24604
827.323	24566
827.462	24532
827.601	24566
827.741	24498
827.88	24513
828.02	24429
828.159	24544
828.298	24521
828.437	24502
828.577	24372
828.716	24608
828.855	24399
828.994	24190
829.134	24197
829.273	24194
829.412	24011
829.551	24125
829.69	24095
829.829	24251
829.968	24414
830.107	24338
830.246	24030
830.385	24182
830.524	24163
830.663	23950
830.802	23999
830.941	23760
831.08	23615
831.219	23775
831.357	23874
831.496	23992
831.635	23817
831.774	23684
831.913	23592
832.051	23623
832.19	23695
832.329	23509
832.467	23505
832.606	23414
832.744	23436
832.883	23448
833.022	23497
833.16	23490
833.299	23520
833.437	23490
833.576	23646
833.714	23577
833.852	23512
833.991	23509
834.129	23653
834.267	23680
834.406	23554
834.544	23630
834.682	23596
834.821	23604
834.959	23733
835.097	23402
835.235	23581
835.373	23459
835.511	23471
835.65	23410
835.788	23391
835.926	23364
836.064	23117
836.202	23185
836.34	23452
836.478	23577
836.615	23265
836.753	23429
836.891	23471
837.029	23395
837.167	23345
837.305	23311
837.443	23299
837.58	23094
837.718	23265
837.856	23242
837.993	23159
838.131	23216
838.269	23227
838.406	23151
838.544	23083
838.681	23056
838.819	23075
838.956	22710
839.094	22679
839.231	22869
839.369	22991
839.506	23109
839.643	22987
839.781	22672
839.918	22748
840.055	22687
840.193	22710
840.33	22759
840.467	22877
840.604	22824
840.742	22812
840.879	22485
841.016	22611
841.153	22660
841.29	22748
841.427	22485
841.564	22828
841.701	22466
841.838	22599
841.975	22607
842.112	22538
842.249	22565
842.385	22538
842.522	22683
842.659	22542
842.796	22554
842.933	22489
843.069	22413
843.206	22310
843.343	22504
843.479	22421
843.616	22402
843.752	22234
843.889	22299
844.025	22314
844.162	22169
844.298	22265
844.435	22230
844.571	22181
844.708	22124
844.844	22344
844.98	22291
845.117	22299
845.253	22105
845.389	22013
845.525	22124
845.661	21945
845.798	22048
845.934	21994
846.07	21880
846.206	22181
846.342	22021
846.478	21861
846.614	21637
846.75	21682
846.886	21648
847.022	21747
847.158	21671
847.294	21690
847.429	21755
847.565	21694
847.701	21895
847.837	21424
847.972	21378
848.108	21439
848.244	21492
848.379	21321
848.515	21264
848.65	21211
848.786	21283
848.921	21180
849.057	21298
849.192	21386
849.328	21275
849.463	21283
849.598	21161
849.734	21283
849.869	21131
850.004	21009
850.14	20990
850.275	21085
850.41	20986
850.545	21051
850.68	21043
850.815	21066
850.95	21055
851.085	21199
851.22	21081
851.355	21051
851.49	21100
851.625	20963
851.76	21100
851.895	21066
852.03	20967
852.165	20910
852.299	20994
852.434	21131
852.569	21066
852.703	21051
852.838	21024
852.973	21119
853.107	21039
853.242	20960
853.376	20914
853.511	20895
853.645	20758
853.78	20963
853.914	20895
854.048	20864
854.183	20785
854.317	20785
854.451	21017
854.585	20792
854.72	20849
854.854	20883
854.988	20876
855.122	20807
855.256	20697
855.39	20845
855.524	20910
855.658	20880
855.792	20758
855.926	20948
856.06	20842
856.194	21005
856.327	20804
856.461	20921
856.595	20739
856.729	20731
856.862	21001
856.996	20975
857.13	20941
857.263	20899
857.397	20933
857.53	20906
857.664	21005
857.797	20826
857.931	21013
858.064	20937
858.197	21001
858.331	20800
858.464	20823
858.597	20838
858.731	20842
858.864	20750
858.997	20887
859.13	20944
859.263	20895
859.396	20906
859.529	20823
859.662	20781
859.795	20750
859.928	20895
860.061	21077
860.194	21055
860.327	20876
860.46	20853
860.592	21043
860.725	21077
860.858	20963
860.99	20830
861.123	20853
861.256	20804
861.388	20861
861.521	21416
861.653	20693
861.786	20579
861.918	20659
862.05	20792
862.183	20750
862.315	20834
862.447	20788
862.58	20651
862.712	20587
862.844	20556
862.976	20750
863.108	20659
863.24	21146
863.372	20545
863.504	20629
863.636	20625
863.768	20511
863.9	20434
864.032	20492
864.164	20522
864.296	20480
864.428	20686
864.559	20663
864.691	20621
864.823	20590
864.954	20396
865.086	20412
865.217	20518
865.349	20313
865.48	20377
865.612	20412
865.743	20571
865.875	20366
866.006	20362
866.137	20415
866.269	20495
866.4	20366
866.531	20419
866.662	20343
866.793	20480
866.924	20412
867.055	20358
867.186	20240
867.317	20381
867.448	20309
867.579	20393
867.71	20343
867.841	20355
867.972	20446
868.103	20434
868.233	20355
868.364	20343
868.495	20484
868.625	20606
868.756	20800
868.886	20541
869.017	20735
869.147	20804
869.278	20735
869.408	20678
869.539	20644
869.669	20781
869.799	20746
869.929	20788
870.06	20648
870.19	21017
870.32	20994
870.45	21013
870.58	21017
870.71	21127
870.84	21138
870.97	21051
871.1	21093
871.23	21272
871.36	21283
871.489	21214
871.619	21340
871.749	21203
871.879	21298
872.008	21184
872.138	21268
872.267	21222
872.397	21256
872.526	21108
872.656	21169
872.785	21119
872.915	21291
873.044	21359
873.173	21252
873.303	21332
873.432	21367
873.561	21405
873.69	21249
873.819	21252
873.948	21401
874.077	21249
874.206	21222
874.335	21302
874.464	21359
874.593	21614
874.722	21424
874.851	21481
874.979	21370
875.108	21583
875.237	21450
875.365	21416
875.494	21519
875.623	21603
875.751	21492
875.88	21637
876.008	21709
876.136	21720
876.265	21911
876.393	22032
876.521	22078
876.65	21918
876.778	21892
876.906	21915
877.034	21770
877.162	21895
877.29	21903
877.418	21880
877.546	21953
877.674	21934
877.802	21903
877.93	21899
878.058	21922
878.185	21667
878.313	21774
878.441	21846
878.568	21759
878.696	21759
878.824	21800
878.951	21873
879.079	21926
879.206	22154
879.333	21983
879.461	21812
879.588	21937
879.715	22150
879.842	22139
879.97	21941
880.097	21728
880.224	21747
880.351	21705
880.478	21800
880.605	21637
880.732	21728
880.859	21956
880.986	21831
881.112	21618
881.239	21530
881.366	21424
881.493	21279
881.619	21279
881.746	21321
881.872	21431
881.999	21325
882.125	21184
882.252	21233
882.378	21329
882.505	21332
882.631	21195
882.757	21062
882.883	21108
883.01	21081
883.136	21085
883.262	20830
883.388	20731
883.514	20910
883.64	21051
883.766	20918
883.892	20724
884.018	20819
884.143	20864
884.269	20967
884.395	20731
884.52	20693
884.646	20670
884.772	20606
884.897	20617
885.023	20670
885.148	20758
885.274	20921
885.399	20632
885.524	20689
885.65	20743
885.775	20682
885.9	20667
886.025	20727
886.15	20716
886.275	20564
886.4	20480
886.525	20682
886.65	20518
886.775	20522
886.9	20754
887.025	20826
887.149	20731
887.274	20571
887.399	20370
887.523	20332
887.648	20507
887.773	20355
887.897	20541
888.021	20374
888.146	20423
888.27	20469
888.395	20522
888.519	20503
888.643	20469
888.767	20492
888.891	20358
889.015	20275
889.139	20233
889.263	20164
889.387	20271
889.511	20423
889.635	20366
889.759	20153
889.883	20172
890.006	20267
890.13	20400
890.254	20077
890.377	20153
890.501	20035
890.624	19909
890.748	19921
890.871	19841
890.995	19696
891.118	19772
891.241	19826
891.364	19731
891.488	19925
891.611	19799
891.734	19689
891.857	19772
891.98	19772
892.103	19753
892.226	19715
892.349	19696
892.471	19712
892.594	19746
892.717	19704
892.839	19719
892.962	19575
893.085	19685
893.207	19575
893.33	19502
893.452	19609
893.575	19674
893.697	19712
893.819	19936
893.941	19967
894.064	19837
894.186	19712
894.308	19677
894.43	19814
894.552	19890
894.674	19757
894.796	19632
894.918	19616
895.04	19601
895.161	19750
895.283	19704
895.405	19616
895.526	19727
895.648	19693
895.769	19715
895.891	19723
896.012	19681
896.134	19742
896.255	19696
896.376	19681
896.498	19712
896.619	19727
896.74	19696
896.861	19666
896.982	20046
897.103	20187
897.224	20005
897.345	19830
897.466	19860
897.587	20005
897.708	19963
897.828	19936
897.949	19849
898.07	19643
898.19	19791
898.311	20168
898.431	19875
898.552	19906
898.672	19879
898.792	19997
898.913	19909
899.033	19868
899.153	19719
899.273	19689
899.393	19753
899.513	19753
899.633	19651
899.753	19750
899.873	19605
899.993	19712
900.113	19597
900.232	19719
900.352	19597
900.472	19438
900.591	19464
900.711	19537
900.83	19396
900.95	19460
901.069	19575
901.189	19327
901.308	19099
901.427	19008
901.546	19023
901.665	19175
901.784	19099
901.904	18886
902.023	18745
902.141	18601
902.26	18642
902.379	18642
902.498	18612
902.617	18642
902.735	18646
902.854	18585
902.973	18506
903.091	18270
903.21	18243
903.328	18216
903.446	18083
903.565	17988
903.683	17992
903.801	17973
903.919	17942
904.038	17996
904.156	17779
904.274	18060
904.392	17847
904.51	17802
904.627	17863
904.745	17939
904.863	17832
904.981	17547
905.098	17440
905.216	17467
905.334	17509
905.451	17436
905.569	17406
905.686	17486
905.803	17433
905.921	17303
906.038	17376
906.155	17261
906.272	17223
906.389	17239
906.506	17041
906.623	17090
906.74	16991
906.857	16896
906.974	16965
907.091	17094
907.208	17185
907.324	17090
907.441	16984
907.557	16809
907.674	16797
907.79	16725
907.907	16672
908.023	16820
908.139	16763
908.256	16672
908.372	16531
908.488	16565
908.604	16592
908.72	16417
908.836	16481
908.952	16519
909.068	16550
909.184	16569
909.3	16489
909.415	16512
909.531	16447
909.647	16234
909.762	16204
909.878	16143
909.993	16105
910.108	16188
910.224	16131
910.339	16181
910.454	16032
910.57	15979
910.685	15945
910.8	16257
910.915	16051
911.03	16021
911.145	15819
911.259	15755
911.374	15861
911.489	15671
911.604	15648
911.718	15656
911.833	15568
911.947	15416
912.062	15428
912.176	15580
912.291	15572
912.405	15595
912.519	15743
912.633	15751
912.748	15618
912.862	15507
912.976	15344
913.09	15321
913.204	15336
913.318	15287
913.431	15454
913.545	15386
913.659	15389
913.772	15317
913.886	15252
914	15074
914.113	15211
914.226	15245
914.34	15249
914.453	15066
914.566	15222
914.68	15055
914.793	14971
914.906	14944
915.019	14804
915.132	14823
915.245	14762
915.358	14739
915.47	14785
915.583	14811
915.696	14819
915.809	14910
915.921	14796
916.034	14758
916.146	14743
916.259	14705
916.371	14823
916.483	14727
916.595	14705
916.708	14533
916.82	14575
916.932	14648
917.044	14617
917.156	14530
917.268	14476
917.38	14473
917.491	14450
917.603	14381
917.715	14613
917.826	14465
917.938	14377
918.049	14294
918.161	14484
918.272	14484
918.384	14530
918.495	14366
918.606	14252
918.717	14229
918.828	14286
918.939	14244
919.05	14168
919.161	14176
919.272	13978
919.383	13997
919.494	14225
919.604	14480
919.715	14096
919.826	14134
919.936	14092
920.047	14248
920.157	14164
920.267	14412
920.378	14244
920.488	14054
920.598	14389
920.708	14530
920.818	14313
920.928	14332
921.038	14431
921.148	14358
921.258	14187
921.368	14012
921.477	13936
921.587	13932
921.697	13772
921.806	13898
921.916	13750
922.025	13677
922.134	13540
922.244	13499
922.353	13590
922.462	13582
922.571	13381
922.68	13217
922.789	13206
922.898	13232
923.007	13099
923.116	13244
923.224	13164
923.333	13141
923.442	13122
923.55	13152
923.659	13034
923.767	13046
923.876	12985
923.984	13099
924.092	12951
924.201	12909
924.309	12958
924.417	13031
924.525	12871
924.633	12894
924.741	13818
924.849	12681
924.956	12837
925.064	12662
925.172	12582
925.279	12551
925.387	12703
925.494	12604
925.602	12829
925.709	12738
925.816	12506
925.924	12589
926.031	12730
926.138	12517
926.245	12650
926.352	12486
926.459	12646
926.566	12559
926.673	12445
926.779	12429
926.886	12376
926.993	12308
927.099	12175
927.206	12266
927.312	12178
927.419	12315
927.525	12209
927.631	12292
927.737	12068
927.843	12106
927.95	11977
928.056	12079
928.162	12098
928.267	12106
928.373	12711
928.479	12083
928.585	11897
928.69	12102
928.796	12072
928.901	11912
929.007	11809
929.112	11889
929.218	11813
929.323	11843
929.428	11821
929.533	11855
929.638	11767
929.743	11722
929.848	11885
929.953	11775
930.058	11615
930.163	11509
930.267	11455
930.372	11615
930.477	11387
930.581	11707
930.685	11490
930.79	11398
930.894	11463
930.998	11387
931.103	11478
931.207	11094
931.311	11105
931.415	10949
931.519	10869
931.623	10824
