Data from test_V78500241_260.txt Node
Date: Fri Mar 25 15:11:40 CST 2022
User: usil
Spectrometer: V785-0024
Trigger mode: 0
Integration Time (sec): 4.000000E-1
Scans to average: 1
Nonlinearity correction enabled: false
Boxcar width: 0
Storing dark spectrum: false
XAxis mode: Wavelengths
Number of Pixels in Spectrum: 1024
>>>>>Begin Spectral Data<<<<<
801.071	28295
801.214	28284
801.356	28093
801.499	27964
801.641	28010
801.783	27869
801.926	27850
802.068	27926
802.211	27686
802.353	27728
802.496	27629
802.638	27606
802.78	27485
802.923	27427
803.065	27408
803.208	27458
803.35	27542
803.492	27504
803.635	27682
803.777	27534
803.919	27743
804.061	28002
804.204	27747
804.346	27648
804.488	27504
804.63	27519
804.773	27427
804.915	27751
805.057	27728
805.199	27720
805.341	27720
805.483	27797
805.626	27755
805.768	27622
805.91	27739
806.052	27652
806.194	27751
806.336	27918
806.478	27808
806.62	27816
806.762	28051
806.904	27994
807.046	28234
807.188	28295
807.33	28268
807.472	28276
807.614	28078
807.756	28276
807.898	28010
808.04	27975
808.182	28002
808.324	27953
808.465	27991
808.607	28181
808.749	28223
808.891	28436
809.033	28611
809.174	28413
809.316	28310
809.458	28379
809.6	28428
809.741	28519
809.883	28398
810.025	28649
810.166	28691
810.308	28763
810.45	28577
810.591	28554
810.733	28455
810.875	28325
811.016	28306
811.158	28325
811.299	28466
811.441	28573
811.582	28398
811.724	28295
811.865	28234
812.007	28352
812.148	28356
812.29	28413
812.431	28512
812.573	28470
812.714	28774
812.855	28854
812.997	28965
813.138	29060
813.279	29033
813.421	28904
813.562	28885
813.703	28725
813.845	28424
813.986	28360
814.127	28120
814.268	28116
814.41	28086
814.551	28124
814.692	27972
814.833	27998
814.974	27899
815.115	27918
815.256	27759
815.397	27865
815.539	27816
815.68	27827
815.821	27838
815.962	27755
816.103	27793
816.244	27778
816.385	27542
816.526	27538
816.666	27294
816.807	27169
816.948	27317
817.089	27332
817.23	27313
817.371	27332
817.512	27321
817.653	27256
817.793	27245
817.934	27154
818.075	27173
818.216	27382
818.356	27138
818.497	27138
818.638	26906
818.778	26940
818.919	26925
819.06	26956
819.2	26982
819.341	27123
819.481	27017
819.622	27408
819.762	27622
819.903	27374
820.043	27313
820.184	27226
820.324	27218
820.465	27256
820.605	27439
820.746	27180
820.886	27077
821.026	27317
821.167	27195
821.307	27268
821.447	27237
821.588	26998
821.728	26982
821.868	26697
822.008	26598
822.149	26663
822.289	26640
822.429	26408
822.569	26286
822.709	26309
822.849	26122
822.99	26020
823.13	25955
823.27	26031
823.41	25868
823.55	25807
823.69	26043
823.83	26001
823.97	25830
824.11	25715
824.25	25647
824.389	25811
824.529	25811
824.669	25757
824.809	25811
824.949	25761
825.089	25772
825.228	25738
825.368	25571
825.508	25548
825.648	25582
825.787	25651
825.927	25575
826.067	25491
826.206	25639
826.346	25632
826.485	25677
826.625	25502
826.765	25628
826.904	25715
827.044	25377
827.183	25343
827.323	25225
827.462	25384
827.601	25274
827.741	25228
827.88	25228
828.02	25183
828.159	25175
828.298	25350
828.437	25164
828.577	25194
828.716	25343
828.855	25129
828.994	24928
829.134	24859
829.273	24962
829.412	24886
829.551	24810
829.69	24859
829.829	24867
829.968	25042
830.107	25019
830.246	24916
830.385	24894
830.524	24913
830.663	24798
830.802	24570
830.941	24505
831.08	24475
831.219	24528
831.357	24635
831.496	24787
831.635	24437
831.774	24483
831.913	24376
832.051	24361
832.19	24342
832.329	24376
832.467	24079
832.606	24136
832.744	24220
832.883	24182
833.022	24205
833.16	24205
833.299	24220
833.437	24399
833.576	24216
833.714	24178
833.852	24319
833.991	24353
834.129	24289
834.267	24285
834.406	24266
834.544	24201
834.682	24174
834.821	24216
834.959	24346
835.097	24342
835.235	24224
835.373	24220
835.511	24197
835.65	24083
835.788	24133
835.926	23984
836.064	23863
836.202	23923
836.34	23996
836.478	24251
836.615	23980
836.753	24049
836.891	24155
837.029	24018
837.167	23912
837.305	23920
837.443	23939
837.58	23824
837.718	23977
837.856	23920
837.993	23942
838.131	23870
838.269	23672
838.406	23821
838.544	23630
838.681	23581
838.819	23577
838.956	23398
839.094	23208
839.231	23345
839.369	23372
839.506	23752
839.643	23600
839.781	23368
839.918	23277
840.055	23360
840.193	23258
840.33	23216
840.467	23132
840.604	23273
840.742	23539
840.879	23189
841.016	23288
841.153	23128
841.29	23349
841.427	23284
841.564	23227
841.701	23315
841.838	23159
841.975	23147
842.112	23018
842.249	23056
842.385	22991
842.522	23132
842.659	23086
842.796	22999
842.933	22949
843.069	22892
843.206	22946
843.343	23037
843.479	22889
843.616	23037
843.752	22763
843.889	22740
844.025	22854
844.162	22683
844.298	22797
844.435	22580
844.571	22653
844.708	22881
844.844	22984
844.98	22771
845.117	22790
845.253	22641
845.389	22611
845.525	22584
845.661	22546
845.798	22489
845.934	22611
846.07	22459
846.206	22344
846.342	22561
846.478	22386
846.614	22249
846.75	22207
846.886	22207
847.022	22329
847.158	22120
847.294	22242
847.429	22249
847.565	22242
847.701	22504
847.837	21804
847.972	21941
848.108	22006
848.244	21953
848.379	21762
848.515	21759
848.65	21694
848.786	21770
848.921	21884
849.057	21873
849.192	21827
849.328	21789
849.463	21618
849.598	21728
849.734	21755
849.869	21507
850.004	21686
850.14	21542
850.275	21458
850.41	21355
850.545	21401
850.68	21500
850.815	21545
850.95	21412
851.085	21572
851.22	21663
851.355	21405
851.49	21405
851.625	21523
851.76	21336
851.895	21431
852.03	21378
852.165	21458
852.299	21576
852.434	21698
852.569	21511
852.703	21519
852.838	21519
852.973	21675
853.107	21599
853.242	21477
853.376	21340
853.511	21260
853.645	21211
853.78	21416
853.914	21329
854.048	21176
854.183	21245
854.317	21344
854.451	21389
854.585	21287
854.72	21340
854.854	21378
854.988	21203
855.122	21218
855.256	21138
855.39	21310
855.524	21340
855.658	21416
855.792	21291
855.926	21405
856.06	21374
856.194	21416
856.327	21317
856.461	21116
856.595	21275
856.729	21359
856.862	21367
856.996	21348
857.13	21321
857.263	21397
857.397	21306
857.53	21351
857.664	21344
857.797	21302
857.931	21477
858.064	21370
858.197	21439
858.331	21260
858.464	21256
858.597	21116
858.731	21287
858.864	21294
858.997	21332
859.13	21237
859.263	21214
859.396	21367
859.529	21180
859.662	21359
859.795	21298
859.928	21230
860.061	21428
860.194	21435
860.327	21348
860.46	21226
860.592	21287
860.725	21473
860.858	21469
860.99	21310
861.123	21176
861.256	21142
861.388	21275
861.521	21941
861.653	21138
861.786	21074
861.918	21127
862.05	21252
862.183	21340
862.315	21252
862.447	21332
862.58	21161
862.712	20963
862.844	20952
862.976	21028
863.108	21055
863.24	21439
863.372	21047
863.504	20967
863.636	21005
863.768	21096
863.9	20960
864.032	20963
864.164	20963
864.296	20937
864.428	21062
864.559	20994
864.691	20975
864.823	20914
864.954	21009
865.086	20872
865.217	20937
865.349	20731
865.48	20735
865.612	20864
865.743	20979
865.875	20941
866.006	20857
866.137	20872
866.269	20906
866.4	20880
866.531	20762
866.662	20777
866.793	20838
866.924	20800
867.055	20895
867.186	20762
867.317	20762
867.448	20701
867.579	20765
867.71	20564
867.841	20727
867.972	20720
868.103	20758
868.233	20670
868.364	20758
868.495	20899
868.625	20910
868.756	21138
868.886	20891
869.017	21157
869.147	21127
869.278	21058
869.408	20975
869.539	20979
869.669	21089
869.799	21093
869.929	21146
870.06	21043
870.19	21287
870.32	21252
870.45	21313
870.58	21397
870.71	21420
870.84	21469
870.97	21591
871.1	21306
871.23	21561
871.36	21701
871.489	21488
871.619	21755
871.749	21603
871.879	21679
872.008	21739
872.138	21713
872.267	21469
872.397	21583
872.526	21466
872.656	21408
872.785	21435
872.915	21576
873.044	21671
873.173	21648
873.303	21675
873.432	21610
873.561	21667
873.69	21732
873.819	21644
873.948	21705
874.077	21625
874.206	21618
874.335	21698
874.464	21648
874.593	21850
874.722	21960
874.851	22010
874.979	21865
875.108	21956
875.237	21789
875.365	21694
875.494	21876
875.623	22002
875.751	21876
875.88	21755
876.008	21975
876.136	22093
876.265	22272
876.393	22314
876.521	22303
876.65	22379
876.778	22318
876.906	22207
877.034	22211
877.162	22333
877.29	22112
877.418	22158
877.546	22253
877.674	22230
877.802	22166
877.93	22207
878.058	22173
878.185	22097
878.313	22226
878.441	22055
878.568	22032
878.696	22124
878.824	22242
878.951	22276
879.079	22440
879.206	22455
879.333	22371
879.461	22150
879.588	22382
879.715	22405
879.842	22500
879.97	22226
880.097	22105
880.224	22010
880.351	21998
880.478	22082
880.605	21998
880.732	22006
880.859	22238
880.986	22166
881.112	22097
881.239	21854
881.366	21823
881.493	21732
881.619	21610
881.746	21564
881.872	21603
881.999	21515
882.125	21454
882.252	21717
882.378	21492
882.505	21622
882.631	21458
882.757	21279
882.883	21534
883.01	21310
883.136	21287
883.262	21207
883.388	21051
883.514	21256
883.64	21355
883.766	21233
883.892	21055
884.018	21203
884.143	21313
884.269	21283
884.395	20994
884.52	20944
884.646	21066
884.772	20971
884.897	20899
885.023	20960
885.148	21047
885.274	21100
885.399	21058
885.524	21051
885.65	20963
885.775	21055
885.9	20975
886.025	21085
886.15	20986
886.275	20967
886.4	20811
886.525	20986
886.65	20956
886.775	20834
886.9	21032
887.025	21146
887.149	20990
887.274	20792
887.399	20727
887.523	20880
887.648	20625
887.773	20629
887.897	20819
888.021	20716
888.146	20602
888.27	20823
888.395	20838
888.519	20849
888.643	20727
888.767	20625
888.891	20571
889.015	20393
889.139	20609
889.263	20469
889.387	20545
889.511	20640
889.635	20549
889.759	20507
889.883	20450
890.006	20568
890.13	20503
890.254	20374
890.377	20385
890.501	20199
890.624	20252
890.748	20305
890.871	20221
890.995	20039
891.118	20081
891.241	20012
891.364	20031
891.488	20233
891.611	20191
891.734	20081
891.857	20142
891.98	20065
892.103	20221
892.226	20084
892.349	20062
892.471	19822
892.594	19936
892.717	20054
892.839	19989
892.962	20012
893.085	20008
893.207	19989
893.33	19902
893.452	19951
893.575	20046
893.697	19997
893.819	20115
893.941	20130
894.064	20134
894.186	19959
894.308	19868
894.43	20050
894.552	20157
894.674	20062
894.796	19887
894.918	19989
895.04	19883
895.161	19959
895.283	20035
895.405	19970
895.526	19917
895.648	20096
895.769	20046
895.891	19993
896.012	20043
896.134	20081
896.255	19986
896.376	19890
896.498	19940
896.619	20122
896.74	19997
896.861	20161
896.982	20305
897.103	20522
897.224	20358
897.345	20233
897.466	20088
897.587	20195
897.708	20305
897.828	20191
897.949	20046
898.07	20100
898.19	20199
898.311	20309
898.431	20130
898.552	20336
898.672	20381
898.792	20313
898.913	20202
899.033	20100
899.153	19989
899.273	19849
899.393	19879
899.513	19860
899.633	19936
899.753	19947
899.873	19856
899.993	19913
900.113	19947
900.232	19875
900.352	19811
900.472	19738
900.591	19613
900.711	19769
900.83	19681
900.95	19811
901.069	19719
901.189	19559
901.308	19362
901.427	19407
901.546	19183
901.665	19411
901.784	19278
901.904	19103
902.023	19065
902.141	18875
902.26	18738
902.379	18890
902.498	18852
902.617	18757
902.735	18886
902.854	18692
902.973	18665
903.091	18448
903.21	18525
903.328	18616
903.446	18460
903.565	18365
903.683	18216
903.801	18068
903.919	18155
904.038	18224
904.156	18254
904.274	18079
904.392	17961
904.51	17999
904.627	18060
904.745	18114
904.863	18079
904.981	17901
905.098	17707
905.216	17798
905.334	17783
905.451	17707
905.569	17699
905.686	17642
905.803	17771
905.921	17414
906.038	17589
906.155	17596
906.272	17444
906.389	17356
906.506	17239
906.623	17376
906.74	17261
906.857	17159
906.974	17143
907.091	17239
907.208	17341
907.324	17204
907.441	17121
907.557	16953
907.674	16900
907.79	16778
907.907	16946
908.023	16900
908.139	17045
908.256	16847
908.372	16820
908.488	16782
908.604	16736
908.72	16546
908.836	16615
908.952	16607
909.068	16607
909.184	16653
909.3	16645
909.415	16656
909.531	16641
909.647	16344
909.762	16329
909.878	16246
909.993	16352
910.108	16276
910.224	16257
910.339	16394
910.454	16219
910.57	16116
910.685	16128
910.8	16344
910.915	16280
911.03	16158
911.145	16025
911.259	15926
911.374	16002
911.489	15854
911.604	15831
911.718	15732
911.833	15739
911.947	15519
912.062	15462
912.176	15644
912.291	15724
912.405	15660
912.519	15983
912.633	15774
912.748	15709
912.862	15686
912.976	15454
913.09	15382
913.204	15549
913.318	15431
913.431	15519
913.545	15454
913.659	15739
913.772	15450
913.886	15321
914	15283
914.113	15443
914.226	15568
914.34	15332
914.453	15230
914.566	15408
914.68	15184
914.793	15241
914.906	14960
915.019	14853
915.132	14880
915.245	14937
915.358	14845
915.47	14963
915.583	14948
915.696	14944
915.809	15032
915.921	14948
916.034	15020
916.146	14868
916.259	14804
916.371	14933
916.483	14842
916.595	14762
916.708	14811
916.82	14697
916.932	14727
917.044	14792
917.156	14705
917.268	14530
917.38	14556
917.491	14602
917.603	14526
917.715	14735
917.826	14651
917.938	14511
918.049	14393
918.161	14552
918.272	14682
918.384	14594
918.495	14473
918.606	14408
918.717	14282
918.828	14347
918.939	14366
919.05	14332
919.161	14244
919.272	14191
919.383	14263
919.494	14454
919.604	14484
919.715	14267
919.826	14240
919.936	14256
920.047	14393
920.157	14263
920.267	14374
920.378	14282
920.488	14271
920.598	14427
920.708	14663
920.818	14522
920.928	14507
921.038	14526
921.148	14530
921.258	14161
921.368	14290
921.477	14115
921.587	13932
921.697	13951
921.806	14077
921.916	13909
922.025	13784
922.134	13738
922.244	13575
922.353	13696
922.462	13529
922.571	13460
922.68	13324
922.789	13320
922.898	13320
923.007	13335
923.116	13297
923.224	13343
923.333	13156
923.442	13057
923.55	13076
923.659	13156
923.767	13236
923.876	13046
923.984	13141
924.092	13038
924.201	13057
924.309	13076
924.417	13072
924.525	13012
924.633	12943
924.741	13761
924.849	12852
924.956	12935
925.064	12779
925.172	12700
925.279	12677
925.387	12726
925.494	12726
925.602	12890
925.709	12776
925.816	12642
925.924	12681
926.031	12779
926.138	12688
926.245	12753
926.352	12627
926.459	12692
926.566	12749
926.673	12566
926.779	12448
926.886	12506
926.993	12323
927.099	12311
927.206	12308
927.312	12258
927.419	12365
927.525	12323
927.631	12403
927.737	12247
927.843	12213
927.95	12136
928.056	12102
928.162	12182
928.267	12171
928.373	12658
928.479	12213
928.585	11923
928.69	12152
928.796	12175
928.901	11977
929.007	11878
929.112	12007
929.218	11973
929.323	11840
929.428	11843
929.533	12034
929.638	11824
929.743	11828
929.848	11859
929.953	11752
930.058	11752
930.163	11547
930.267	11668
930.372	11615
930.477	11577
930.581	11733
930.685	11566
930.79	11429
930.894	11376
930.998	11452
931.103	11516
931.207	11124
931.311	11147
931.415	10949
931.519	10824
931.623	10778
