Data from test_V78500241_3426.txt Node
Date: Fri Mar 25 15:33:43 CST 2022
User: usil
Spectrometer: V785-0024
Trigger mode: 0
Integration Time (sec): 4.000000E-1
Scans to average: 1
Nonlinearity correction enabled: false
Boxcar width: 0
Storing dark spectrum: false
XAxis mode: Wavelengths
Number of Pixels in Spectrum: 1024
>>>>>Begin Spectral Data<<<<<
801.071	27340
801.214	27173
801.356	27001
801.499	26899
801.641	26617
801.783	26777
801.926	26868
802.068	26636
802.211	26716
802.353	26556
802.496	26404
802.638	26438
802.78	26252
802.923	26351
803.065	26214
803.208	26275
803.35	26396
803.492	26469
803.635	26613
803.777	26389
803.919	26366
804.061	26872
804.204	26708
804.346	26396
804.488	26351
804.63	26377
804.773	26385
804.915	26503
805.057	26629
805.199	26518
805.341	26560
805.483	26621
805.626	26568
805.768	26492
805.91	26545
806.052	26655
806.194	26564
806.336	26716
806.478	26621
806.62	26522
806.762	26663
806.904	26842
807.046	27077
807.188	27020
807.33	27039
807.472	26921
807.614	26960
807.756	27039
807.898	26857
808.04	26712
808.182	26849
808.324	26925
808.465	27020
808.607	27005
808.749	27260
808.891	27222
809.033	27500
809.174	27230
809.316	27150
809.458	27249
809.6	27112
809.741	27332
809.883	27363
810.025	27382
810.166	27507
810.308	27572
810.45	27462
810.591	27424
810.733	27298
810.875	27264
811.016	27203
811.158	26986
811.299	27241
811.441	27424
811.582	27332
811.724	27203
811.865	27199
812.007	27230
812.148	27085
812.29	27176
812.431	27370
812.573	27553
812.714	27519
812.855	27591
812.997	27759
813.138	27930
813.279	27641
813.421	27785
813.562	27686
813.703	27545
813.845	27340
813.986	26956
814.127	26845
814.268	26891
814.41	26906
814.551	26857
814.692	26914
814.833	26655
814.974	26811
815.115	26887
815.256	26697
815.397	26754
815.539	26708
815.68	26583
815.821	26640
815.962	26552
816.103	26549
816.244	26400
816.385	26480
816.526	26374
816.666	26206
816.807	26115
816.948	25986
817.089	26187
817.23	26126
817.371	26020
817.512	26005
817.653	25959
817.793	25932
817.934	26016
818.075	26142
818.216	26145
818.356	25986
818.497	25913
818.638	25799
818.778	25860
818.919	25913
819.06	26012
819.2	26069
819.341	25989
819.481	26172
819.622	26210
819.762	26396
819.903	26343
820.043	26320
820.184	26130
820.324	26233
820.465	26263
820.605	26088
820.746	26202
820.886	26103
821.026	26225
821.167	26130
821.307	26191
821.447	25955
821.588	26035
821.728	25925
821.868	25727
822.008	25544
822.149	25552
822.289	25495
822.429	25251
822.569	25301
822.709	25266
822.849	25027
822.99	25061
823.13	24897
823.27	25027
823.41	24875
823.55	24772
823.69	24810
823.83	24890
823.97	24700
824.11	24719
824.25	24696
824.389	24654
824.529	24833
824.669	24806
824.809	24787
824.949	24726
825.089	24749
825.228	24654
825.368	24532
825.508	24639
825.648	24661
825.787	24608
825.927	24631
826.067	24513
826.206	24631
826.346	24585
826.485	24597
826.625	24566
826.765	24821
826.904	24540
827.044	24350
827.183	24365
827.323	24209
827.462	24334
827.601	24323
827.741	24243
827.88	24308
828.02	24247
828.159	24186
828.298	24110
828.437	24422
828.577	24213
828.716	24361
828.855	24117
828.994	23916
829.134	24049
829.273	23954
829.412	24030
829.551	23863
829.69	24038
829.829	24076
829.968	24072
830.107	24064
830.246	24038
830.385	23954
830.524	23882
830.663	23771
830.802	23718
830.941	23619
831.08	23573
831.219	23771
831.357	23726
831.496	23824
831.635	23562
831.774	23554
831.913	23547
832.051	23353
832.19	23383
832.329	23509
832.467	23353
832.606	23280
832.744	23258
832.883	23322
833.022	23277
833.16	23227
833.299	23334
833.437	23307
833.576	23376
833.714	23231
833.852	23387
833.991	23379
834.129	23417
834.267	23516
834.406	23493
834.544	23356
834.682	23372
834.821	23181
834.959	23528
835.097	23334
835.235	23345
835.373	23284
835.511	23379
835.65	23269
835.788	23372
835.926	23124
836.064	23044
836.202	22991
836.34	23079
836.478	23440
836.615	23170
836.753	23132
836.891	23280
837.029	23242
837.167	23162
837.305	23083
837.443	23025
837.58	22896
837.718	23185
837.856	23155
837.993	22953
838.131	23174
838.269	22862
838.406	22968
838.544	22915
838.681	22763
838.819	22637
838.956	22565
839.094	22554
839.231	22546
839.369	22759
839.506	22904
839.643	22702
839.781	22645
839.918	22504
840.055	22565
840.193	22481
840.33	22512
840.467	22645
840.604	22470
840.742	22736
840.879	22333
841.016	22276
841.153	22459
841.29	22550
841.427	22398
841.564	22554
841.701	22493
841.838	22500
841.975	22451
842.112	22360
842.249	22375
842.385	22192
842.522	22596
842.659	22367
842.796	22207
842.933	22280
843.069	22234
843.206	22215
843.343	22272
843.479	22272
843.616	22215
843.752	22051
843.889	21926
844.025	22090
844.162	21861
844.298	22063
844.435	22025
844.571	21987
844.708	22006
844.844	22337
844.98	22105
845.117	22215
845.253	21895
845.389	21899
845.525	21854
845.661	21857
845.798	21705
845.934	21922
846.07	21686
846.206	21800
846.342	21926
846.478	21717
846.614	21530
846.75	21466
846.886	21458
847.022	21572
847.158	21568
847.294	21481
847.429	21561
847.565	21435
847.701	21717
847.837	21214
847.972	21188
848.108	21283
848.244	21245
848.379	21100
848.515	21119
848.65	20956
848.786	21112
848.921	21005
849.057	21096
849.192	21222
849.328	21135
849.463	21085
849.598	20994
849.734	20960
849.869	21024
850.004	20785
850.14	20773
850.275	21005
850.41	20705
850.545	20800
850.68	20872
850.815	20811
850.95	20842
851.085	20960
851.22	21024
851.355	20864
851.49	20883
851.625	20777
851.76	20880
851.895	20823
852.03	20716
852.165	20792
852.299	20842
852.434	20899
852.569	20807
852.703	20765
852.838	20887
852.973	20876
853.107	20899
853.242	20686
853.376	20636
853.511	20518
853.645	20571
853.78	20773
853.914	20754
854.048	20716
854.183	20663
854.317	20644
854.451	20788
854.585	20735
854.72	20739
854.854	20762
854.988	20663
855.122	20743
855.256	20583
855.39	20667
855.524	20720
855.658	20697
855.792	20655
855.926	20743
856.06	20705
856.194	20765
856.327	20693
856.461	20640
856.595	20693
856.729	20621
856.862	20845
856.996	20670
857.13	20769
857.263	20743
857.397	20864
857.53	20655
857.664	20617
857.797	20651
857.931	20807
858.064	20644
858.197	20861
858.331	20609
858.464	20598
858.597	20621
858.731	20568
858.864	20629
858.997	20655
859.13	20693
859.263	20686
859.396	20762
859.529	20579
859.662	20617
859.795	20579
859.928	20712
860.061	20834
860.194	20914
860.327	20788
860.46	20686
860.592	20735
860.725	20804
860.858	20773
860.99	20705
861.123	20511
861.256	20617
861.388	20629
861.521	21367
861.653	20552
861.786	20442
861.918	20499
862.05	20571
862.183	20571
862.315	20590
862.447	20640
862.58	20583
862.712	20370
862.844	20278
862.976	20518
863.108	20400
863.24	20823
863.372	20336
863.504	20351
863.636	20434
863.768	20465
863.9	20518
864.032	20138
864.164	20495
864.296	20423
864.428	20473
864.559	20450
864.691	20476
864.823	20400
864.954	20404
865.086	20339
865.217	20332
865.349	20191
865.48	20347
865.612	20336
865.743	20454
865.875	20336
866.006	20248
866.137	20233
866.269	20225
866.4	20305
866.531	20157
866.662	20240
866.793	20305
866.924	20229
867.055	20214
867.186	20298
867.317	20145
867.448	20210
867.579	20248
867.71	20138
867.841	20225
867.972	20138
868.103	20282
868.233	20248
868.364	20271
868.495	20332
868.625	20438
868.756	20568
868.886	20358
869.017	20552
869.147	20514
869.278	20522
869.408	20457
869.539	20457
869.669	20461
869.799	20530
869.929	20727
870.06	20514
870.19	20758
870.32	20796
870.45	20792
870.58	20842
870.71	20956
870.84	21077
870.97	20861
871.1	20838
871.23	21024
871.36	21085
871.489	21001
871.619	21150
871.749	21154
871.879	21237
872.008	21195
872.138	21146
872.267	21112
872.397	21070
872.526	20933
872.656	21032
872.785	21047
872.915	21207
873.044	21241
873.173	21112
873.303	21127
873.432	21119
873.561	21241
873.69	21188
873.819	21138
873.948	21146
874.077	21161
874.206	21005
874.335	21116
874.464	21222
874.593	21325
874.722	21264
874.851	21435
874.979	21412
875.108	21405
875.237	21275
875.365	21218
875.494	21336
875.623	21329
875.751	21306
875.88	21393
876.008	21439
876.136	21466
876.265	21850
876.393	21842
876.521	21854
876.65	21861
876.778	21728
876.906	21747
877.034	21679
877.162	21671
877.29	21648
877.418	21831
877.546	21701
877.674	21785
877.802	21724
877.93	21652
878.058	21717
878.185	21545
878.313	21698
878.441	21595
878.568	21473
878.696	21663
878.824	21690
878.951	21865
879.079	21964
879.206	22139
879.333	21880
879.461	21701
879.588	21861
879.715	21755
879.842	21930
879.97	21739
880.097	21534
880.224	21599
880.351	21606
880.478	21580
880.605	21599
880.732	21523
880.859	21694
880.986	21545
881.112	21618
881.239	21298
881.366	21310
881.493	21176
881.619	21024
881.746	21127
881.872	21146
881.999	21104
882.125	21024
882.252	21142
882.378	21081
882.505	21283
882.631	20986
882.757	20773
882.883	20941
883.01	20849
883.136	20899
883.262	20796
883.388	20629
883.514	20788
883.64	20975
883.766	20712
883.892	20556
884.018	20720
884.143	20800
884.269	20800
884.395	20533
884.52	20469
884.646	20507
884.772	20450
884.897	20446
885.023	20454
885.148	20579
885.274	20549
885.399	20556
885.524	20476
885.65	20507
885.775	20522
885.9	20511
886.025	20503
886.15	20526
886.275	20389
886.4	20385
886.525	20530
886.65	20408
886.775	20252
886.9	20579
887.025	20606
887.149	20442
887.274	20381
887.399	20240
887.523	20275
887.648	20221
887.773	20115
887.897	20271
888.021	20286
888.146	20168
888.27	20282
888.395	20282
888.519	20202
888.643	20339
888.767	20332
888.891	20149
889.015	20122
889.139	20191
889.263	20039
889.387	20031
889.511	20229
889.635	20206
889.759	20183
889.883	20039
890.006	20084
890.13	20176
890.254	20054
890.377	20001
890.501	19788
890.624	19856
890.748	19856
890.871	19811
890.995	19590
891.118	19514
891.241	19674
891.364	19609
891.488	19769
891.611	19677
891.734	19514
891.857	19693
891.98	19715
892.103	19594
892.226	19670
892.349	19521
892.471	19476
892.594	19533
892.717	19575
892.839	19510
892.962	19499
893.085	19624
893.207	19613
893.33	19464
893.452	19537
893.575	19491
893.697	19464
893.819	19715
893.941	19689
894.064	19696
894.186	19514
894.308	19483
894.43	19582
894.552	19597
894.674	19575
894.796	19529
894.918	19578
895.04	19502
895.161	19689
895.283	19578
895.405	19556
895.526	19502
895.648	19609
895.769	19578
895.891	19601
896.012	19594
896.134	19624
896.255	19548
896.376	19464
896.498	19544
896.619	19483
896.74	19510
896.861	19529
896.982	19776
897.103	20001
897.224	19818
897.345	19807
897.466	19788
897.587	19738
897.708	19917
897.828	19871
897.949	19712
898.07	19715
898.19	19719
898.311	19845
898.431	19727
898.552	19738
898.672	19974
898.792	19841
898.913	19723
899.033	19704
899.153	19567
899.273	19601
899.393	19506
899.513	19521
899.633	19476
899.753	19609
899.873	19525
899.993	19430
900.113	19495
900.232	19487
900.352	19388
900.472	19438
900.591	19324
900.711	19339
900.83	19320
900.95	19483
901.069	19434
901.189	19190
901.308	19004
901.427	18890
901.546	18913
901.665	18920
901.784	19004
901.904	18696
902.023	18696
902.141	18452
902.26	18460
902.379	18486
902.498	18483
902.617	18403
902.735	18467
902.854	18395
902.973	18323
903.091	18163
903.21	18129
903.328	18091
903.446	17954
903.565	17946
903.683	17977
903.801	17798
903.919	17885
904.038	17824
904.156	17661
904.274	17817
904.392	17649
904.51	17634
904.627	17646
904.745	17771
904.863	17752
904.981	17482
905.098	17406
905.216	17410
905.334	17376
905.451	17471
905.569	17341
905.686	17448
905.803	17220
905.921	17197
906.038	17318
906.155	17204
906.272	17052
906.389	17052
906.506	16885
906.623	16953
906.74	16927
906.857	16828
906.974	16793
907.091	16889
907.208	16972
907.324	16915
907.441	16820
907.557	16721
907.674	16687
907.79	16656
907.907	16565
908.023	16641
908.139	16660
908.256	16550
908.372	16527
908.488	16436
908.604	16303
908.72	16356
908.836	16367
908.952	16207
909.068	16424
909.184	16322
909.3	16337
909.415	16402
909.531	16306
909.647	16090
909.762	16090
909.878	16051
909.993	16032
910.108	15937
910.224	16002
910.339	16048
910.454	15972
910.57	15888
910.685	15816
910.8	16101
910.915	16036
911.03	15899
911.145	15739
911.259	15724
911.374	15663
911.489	15496
911.604	15507
911.718	15450
911.833	15351
911.947	15340
912.062	15256
912.176	15466
912.291	15481
912.405	15454
912.519	15591
912.633	15561
912.748	15435
912.862	15367
912.976	15218
913.09	15135
913.204	15173
913.318	15245
913.431	15275
913.545	15332
913.659	15382
913.772	15241
913.886	15184
914	15108
914.113	15184
914.226	15074
914.34	15150
914.453	14807
914.566	15020
914.68	15028
914.793	14956
914.906	14712
915.019	14716
915.132	14571
915.245	14606
915.358	14625
915.47	14769
915.583	14701
915.696	14720
915.809	14754
915.921	14800
916.034	14625
916.146	14522
916.259	14587
916.371	14579
916.483	14667
916.595	14465
916.708	14469
916.82	14545
916.932	14427
917.044	14518
917.156	14393
917.268	14324
917.38	14347
917.491	14286
917.603	14339
917.715	14400
917.826	14396
917.938	14218
918.049	14176
918.161	14404
918.272	14476
918.384	14415
918.495	14328
918.606	14199
918.717	14092
918.828	14126
918.939	14191
919.05	14027
919.161	14058
919.272	13826
919.383	13963
919.494	14145
919.604	14278
919.715	14107
919.826	14069
919.936	13997
920.047	14149
920.157	14164
920.267	14225
920.378	13997
920.488	14069
920.598	14252
920.708	14431
920.818	14252
920.928	14187
921.038	14366
921.148	14339
921.258	14039
921.368	14054
921.477	13845
921.587	13784
921.697	13719
921.806	13811
921.916	13651
922.025	13487
922.134	13491
922.244	13392
922.353	13445
922.462	13354
922.571	13274
922.68	13187
922.789	13110
922.898	13236
923.007	13091
923.116	13164
923.224	13004
923.333	13149
923.442	12996
923.55	12935
923.659	13027
923.767	13065
923.876	12909
923.984	12985
924.092	12871
924.201	12833
924.309	12905
924.417	12700
924.525	12730
924.633	12768
924.741	13616
924.849	12513
924.956	12757
925.064	12635
925.172	12452
925.279	12540
925.387	12642
925.494	12517
925.602	12734
925.709	12627
925.816	12437
925.924	12513
926.031	12502
926.138	12467
926.245	12559
926.352	12467
926.459	12589
926.566	12536
926.673	12426
926.779	12273
926.886	12232
926.993	12190
927.099	12194
927.206	12140
927.312	12129
927.419	12186
927.525	12213
927.631	12159
927.737	12019
927.843	11923
927.95	11866
928.056	12015
928.162	11965
928.267	12068
928.373	12521
928.479	11999
928.585	11828
928.69	11908
928.796	11939
928.901	11779
929.007	11680
929.112	11832
929.218	11771
929.323	11718
929.428	11695
929.533	11889
929.638	11646
929.743	11623
929.848	11722
929.953	11566
930.058	11532
930.163	11383
930.267	11421
930.372	11486
930.477	11364
930.581	11596
930.685	11497
930.79	11242
930.894	11356
930.998	11334
931.103	11410
931.207	11117
931.311	10999
931.415	10900
931.519	10714
931.623	10706
