Data from test_V78500241_1602.txt Node
Date: Fri Mar 25 15:21:00 CST 2022
User: usil
Spectrometer: V785-0024
Trigger mode: 0
Integration Time (sec): 4.000000E-1
Scans to average: 1
Nonlinearity correction enabled: false
Boxcar width: 0
Storing dark spectrum: false
XAxis mode: Wavelengths
Number of Pixels in Spectrum: 1024
>>>>>Begin Spectral Data<<<<<
801.071	28029
801.214	27888
801.356	27812
801.499	27545
801.641	27549
801.783	27427
801.926	27751
802.068	27443
802.211	27481
802.353	27275
802.496	27199
802.638	27150
802.78	27138
802.923	27188
803.065	27017
803.208	27123
803.35	27192
803.492	27245
803.635	27443
803.777	27321
803.919	27435
804.061	27660
804.204	27424
804.346	27325
804.488	27252
804.63	27264
804.773	27294
804.915	27435
805.057	27515
805.199	27511
805.341	27515
805.483	27610
805.626	27496
805.768	27272
805.91	27477
806.052	27496
806.194	27435
806.336	27557
806.478	27545
806.62	27450
806.762	27675
806.904	27686
807.046	27956
807.188	27857
807.33	27926
807.472	27937
807.614	27941
807.756	27846
807.898	27785
808.04	27903
808.182	27747
808.324	27842
808.465	27778
808.607	27983
808.749	27964
808.891	28246
809.033	28268
809.174	28219
809.316	28067
809.458	28173
809.6	28131
809.741	28261
809.883	28291
810.025	28394
810.166	28512
810.308	28546
810.45	28299
810.591	28287
810.733	27937
810.875	28082
811.016	28010
811.158	28025
811.299	28131
811.441	28284
811.582	28261
811.724	28150
811.865	28006
812.007	27991
812.148	28169
812.29	28135
812.431	28257
812.573	28455
812.714	28577
812.855	28649
812.997	28782
813.138	28797
813.279	28744
813.421	28645
813.562	28615
813.703	28466
813.845	28341
813.986	28124
814.127	27812
814.268	27766
814.41	27861
814.551	27876
814.692	27888
814.833	27781
814.974	27789
815.115	27876
815.256	27652
815.397	27637
815.539	27762
815.68	27637
815.821	27561
815.962	27682
816.103	27606
816.244	27606
816.385	27367
816.526	27374
816.666	27157
816.807	27020
816.948	27066
817.089	27180
817.23	27226
817.371	27074
817.512	27165
817.653	27074
817.793	27127
817.934	27085
818.075	27058
818.216	27043
818.356	27150
818.497	27047
818.638	26849
818.778	26762
818.919	26861
819.06	26940
819.2	27047
819.341	27024
819.481	27013
819.622	27211
819.762	27378
819.903	27313
820.043	27317
820.184	27108
820.324	27165
820.465	27363
820.605	27256
820.746	27085
820.886	27207
821.026	27199
821.167	27150
821.307	27332
821.447	27077
821.588	27055
821.728	26925
821.868	26769
822.008	26667
822.149	26621
822.289	26594
822.429	26347
822.569	26309
822.709	26199
822.849	26130
822.99	26103
823.13	26027
823.27	25936
823.41	25826
823.55	25868
823.69	25986
823.83	25944
823.97	25852
824.11	25677
824.25	25715
824.389	25632
824.529	25772
824.669	25727
824.809	25887
824.949	25803
825.089	25871
825.228	25738
825.368	25537
825.508	25495
825.648	25445
825.787	25639
825.927	25605
826.067	25597
826.206	25609
826.346	25662
826.485	25594
826.625	25609
826.765	25696
826.904	25681
827.044	25362
827.183	25365
827.323	25354
827.462	25400
827.601	25422
827.741	25346
827.88	25392
828.02	25228
828.159	25301
828.298	25415
828.437	25343
828.577	25198
828.716	25464
828.855	25251
828.994	24981
829.134	25061
829.273	25152
829.412	24886
829.551	25061
829.69	25057
829.829	25114
829.968	25099
830.107	25072
830.246	25053
830.385	24837
830.524	24928
830.663	24924
830.802	24665
830.941	24673
831.08	24589
831.219	24715
831.357	24772
831.496	24932
831.635	24753
831.774	24582
831.913	24547
832.051	24517
832.19	24525
832.329	24559
832.467	24369
832.606	24254
832.744	24213
832.883	24209
833.022	24300
833.16	24155
833.299	24319
833.437	24338
833.576	24361
833.714	24426
833.852	24369
833.991	24498
834.129	24380
834.267	24422
834.406	24399
834.544	24437
834.682	24216
834.821	24376
834.959	24593
835.097	24213
835.235	24426
835.373	24395
835.511	24232
835.65	24167
835.788	24148
835.926	24087
836.064	23931
836.202	24064
836.34	24308
836.478	24251
836.615	24152
836.753	24110
836.891	24243
837.029	24186
837.167	24159
837.305	23958
837.443	24045
837.58	24011
837.718	24152
837.856	24155
837.993	24060
838.131	24011
838.269	23901
838.406	24007
838.544	23805
838.681	23570
838.819	23668
838.956	23497
839.094	23520
839.231	23573
839.369	23707
839.506	23889
839.643	23729
839.781	23471
839.918	23486
840.055	23318
840.193	23414
840.33	23318
840.467	23307
840.604	23444
840.742	23817
840.879	23105
841.016	23429
841.153	23406
841.29	23570
841.427	23448
841.564	23433
841.701	23235
841.838	23326
841.975	23353
842.112	23353
842.249	23178
842.385	23155
842.522	23299
842.659	23121
842.796	23178
842.933	23113
843.069	23083
843.206	22984
843.343	23235
843.479	23208
843.616	23075
843.752	22942
843.889	22946
844.025	23094
844.162	22968
844.298	23060
844.435	22961
844.571	22877
844.708	23060
844.844	23067
844.98	23041
845.117	23044
845.253	22850
845.389	22889
845.525	22767
845.661	22782
845.798	22649
845.934	22748
846.07	22645
846.206	22729
846.342	22877
846.478	22672
846.614	22424
846.75	22405
846.886	22367
847.022	22645
847.158	22386
847.294	22493
847.429	22352
847.565	22360
847.701	22615
847.837	22196
847.972	22067
848.108	22238
848.244	22177
848.379	22070
848.515	21888
848.65	22040
848.786	21972
848.921	22048
849.057	22143
849.192	21964
849.328	22017
849.463	21953
849.598	21876
849.734	21876
849.869	21884
850.004	21808
850.14	21679
850.275	21774
850.41	21751
850.545	21622
850.68	21720
850.815	21857
850.95	21766
851.085	21983
851.22	21785
851.355	21759
851.49	21850
851.625	21663
851.76	21755
851.895	21732
852.03	21679
852.165	21774
852.299	21854
852.434	21797
852.569	21857
852.703	21736
852.838	21789
852.973	21880
853.107	21857
853.242	21618
853.376	21553
853.511	21473
853.645	21557
853.78	21656
853.914	21553
854.048	21549
854.183	21515
854.317	21648
854.451	21781
854.585	21644
854.72	21614
854.854	21663
854.988	21469
855.122	21663
855.256	21393
855.39	21481
855.524	21583
855.658	21561
855.792	21557
855.926	21587
856.06	21625
856.194	21641
856.327	21606
856.461	21538
856.595	21564
856.729	21488
856.862	21622
856.996	21606
857.13	21648
857.263	21663
857.397	21587
857.53	21667
857.664	21675
857.797	21682
857.931	21648
858.064	21625
858.197	21736
858.331	21530
858.464	21564
858.597	21416
858.731	21682
858.864	21583
858.997	21496
859.13	21542
859.263	21625
859.396	21637
859.529	21580
859.662	21466
859.795	21477
859.928	21504
860.061	21785
860.194	21804
860.327	21625
860.46	21618
860.592	21679
860.725	21770
860.858	21637
860.99	21515
861.123	21549
861.256	21488
861.388	21526
861.521	22048
861.653	21382
861.786	21313
861.918	21351
862.05	21466
862.183	21485
862.315	21515
862.447	21553
862.58	21477
862.712	21203
862.844	21237
862.976	21302
863.108	21298
863.24	21553
863.372	21260
863.504	21180
863.636	21264
863.768	21199
863.9	21264
864.032	21302
864.164	21332
864.296	21260
864.428	21367
864.559	21302
864.691	21382
864.823	21310
864.954	21294
865.086	21313
865.217	21119
865.349	21070
865.48	21104
865.612	21245
865.743	21264
865.875	21214
866.006	21131
866.137	21112
866.269	21032
866.4	20998
866.531	21005
866.662	21077
866.793	21081
866.924	21108
867.055	21085
867.186	21108
867.317	21001
867.448	20982
867.579	21104
867.71	20925
867.841	20994
867.972	21135
868.103	21085
868.233	21218
868.364	21077
868.495	21055
868.625	21310
868.756	21401
868.886	21325
869.017	21230
869.147	21344
869.278	21454
869.408	21355
869.539	21397
869.669	21473
869.799	21405
869.929	21469
870.06	21374
870.19	21549
870.32	21709
870.45	21698
870.58	21682
870.71	21812
870.84	21717
870.97	21595
871.1	21713
871.23	21873
871.36	22010
871.489	21808
871.619	21888
871.749	21876
871.879	21930
872.008	22059
872.138	21800
872.267	21911
872.397	21804
872.526	21838
872.656	21755
872.785	21793
872.915	21915
873.044	22067
873.173	21983
873.303	21975
873.432	21975
873.561	22010
873.69	22063
873.819	21884
873.948	21873
874.077	21975
874.206	21793
874.335	21975
874.464	22135
874.593	22097
874.722	22166
874.851	22131
874.979	22200
875.108	22200
875.237	22131
875.365	22101
875.494	22131
875.623	22371
875.751	22219
875.88	22177
876.008	22306
876.136	22181
876.265	22519
876.393	22656
876.521	22592
876.65	22687
876.778	22603
876.906	22569
877.034	22569
877.162	22481
877.29	22462
877.418	22569
877.546	22531
877.674	22497
877.802	22611
877.93	22527
878.058	22493
878.185	22363
878.313	22322
878.441	22516
878.568	22337
878.696	22481
878.824	22523
878.951	22717
879.079	22774
879.206	22706
879.333	22653
879.461	22497
879.588	22660
879.715	22725
879.842	22961
879.97	22512
880.097	22272
880.224	22329
880.351	22356
880.478	22352
880.605	22226
880.732	22303
880.859	22535
880.986	22409
881.112	22394
881.239	22257
881.366	22109
881.493	22063
881.619	21937
881.746	21884
881.872	21972
881.999	21865
882.125	21876
882.252	21907
882.378	21861
882.505	22013
882.631	21781
882.757	21595
882.883	21751
883.01	21599
883.136	21538
883.262	21625
883.388	21382
883.514	21663
883.64	21652
883.766	21526
883.892	21336
884.018	21382
884.143	21420
884.269	21473
884.395	21272
884.52	21161
884.646	21218
884.772	21211
884.897	21074
885.023	21260
885.148	21275
885.274	21378
885.399	21351
885.524	21135
885.65	21374
885.775	21272
885.9	21313
886.025	21382
886.15	21291
886.275	21252
886.4	21169
886.525	21302
886.65	21123
886.775	21074
886.9	21317
887.025	21310
887.149	21214
887.274	21005
887.399	21051
887.523	20941
887.648	21013
887.773	20883
887.897	20986
888.021	20967
888.146	20899
888.27	21207
888.395	21123
888.519	21169
888.643	20975
888.767	20994
888.891	20994
889.015	20716
889.139	20819
889.263	20762
889.387	20914
889.511	21001
889.635	20986
889.759	20609
889.883	20834
890.006	20914
890.13	21017
890.254	20640
890.377	20701
890.501	20488
890.624	20480
890.748	20686
890.871	20495
890.995	20328
891.118	20377
891.241	20351
891.364	20396
891.488	20564
891.611	20476
891.734	20404
891.857	20393
891.98	20358
892.103	20423
892.226	20415
892.349	20358
892.471	20206
892.594	20362
892.717	20278
892.839	20317
892.962	20248
893.085	20415
893.207	20351
893.33	20142
893.452	20111
893.575	20309
893.697	20358
893.819	20427
893.941	20537
894.064	20457
894.186	20267
894.308	20229
894.43	20324
894.552	20347
894.674	20343
894.796	20298
894.918	20275
895.04	20244
895.161	20282
895.283	20290
895.405	20240
895.526	20263
895.648	20218
895.769	20271
895.891	20377
896.012	20412
896.134	20332
896.255	20244
896.376	20252
896.498	20317
896.619	20377
896.74	20210
896.861	20244
896.982	20583
897.103	20708
897.224	20629
897.345	20511
897.466	20317
897.587	20419
897.708	20640
897.828	20530
897.949	20328
898.07	20419
898.19	20324
898.311	20583
898.431	20419
898.552	20438
898.672	20434
898.792	20446
898.913	20476
899.033	20351
899.153	20370
899.273	20119
899.393	20206
899.513	20206
899.633	20271
899.753	20278
899.873	20187
899.993	20172
900.113	20176
900.232	20202
900.352	20103
900.472	20058
900.591	20024
900.711	19951
900.83	19894
900.95	20081
901.069	19970
901.189	19974
901.308	19700
901.427	19677
901.546	19586
901.665	19658
901.784	19715
901.904	19362
902.023	19373
902.141	19133
902.26	19114
902.379	19225
902.498	19076
902.617	18993
902.735	19190
902.854	19015
902.973	18939
903.091	18875
903.21	18722
903.328	18719
903.446	18658
903.565	18597
903.683	18589
903.801	18536
903.919	18528
904.038	18574
904.156	18323
904.274	18483
904.392	18308
904.51	18365
904.627	18330
904.745	18300
904.863	18437
904.981	18129
905.098	17973
905.216	17923
905.334	18087
905.451	18034
905.569	17847
905.686	18045
905.803	17992
905.921	17638
906.038	17832
906.155	17866
906.272	17729
906.389	17718
906.506	17554
906.623	17608
906.74	17532
906.857	17436
906.974	17532
907.091	17668
907.208	17699
907.324	17623
907.441	17463
907.557	17402
907.674	17299
907.79	17094
907.907	17223
908.023	17246
908.139	17250
908.256	17136
908.372	17231
908.488	17090
908.604	17029
908.72	16938
908.836	17014
908.952	17060
909.068	16976
909.184	17109
909.3	16972
909.415	16927
909.531	16885
909.647	16687
909.762	16729
909.878	16755
909.993	16683
910.108	16596
910.224	16649
910.339	16664
910.454	16504
910.57	16626
910.685	16428
910.8	16702
910.915	16599
911.03	16379
911.145	16329
911.259	16363
911.374	16215
911.489	16166
911.604	16044
911.718	15972
911.833	15953
911.947	15915
912.062	15873
912.176	15945
912.291	15998
912.405	16006
912.519	16131
912.633	16124
912.748	16021
912.862	15979
912.976	15869
913.09	15682
913.204	15637
913.318	15831
913.431	15895
913.545	15827
913.659	15994
913.772	15804
913.886	15580
914	15618
914.113	15751
914.226	15755
914.34	15724
914.453	15572
914.566	15625
914.68	15485
914.793	15435
914.906	15374
915.019	15214
915.132	15051
915.245	15214
915.358	15241
915.47	15207
915.583	15207
915.696	15169
915.809	15287
915.921	15268
916.034	15165
916.146	15093
916.259	15081
916.371	15237
916.483	15142
916.595	15131
916.708	15097
916.82	15055
916.932	15017
917.044	14994
917.156	14891
917.268	14899
917.38	14925
917.491	14838
917.603	14815
917.715	14872
917.826	14887
917.938	14746
918.049	14750
918.161	14788
918.272	14956
918.384	14982
918.495	14845
918.606	14689
918.717	14522
918.828	14724
918.939	14598
919.05	14590
919.161	14606
919.272	14427
919.383	14423
919.494	14689
919.604	14788
919.715	14568
919.826	14415
919.936	14579
920.047	14663
920.157	14625
920.267	14708
920.378	14537
920.488	14499
920.598	14712
920.708	14899
920.818	14792
920.928	14720
921.038	14933
921.148	14731
921.258	14465
921.368	14442
921.477	14355
921.587	14332
921.697	14210
921.806	14355
921.916	14240
922.025	13967
922.134	13978
922.244	13875
922.353	14031
922.462	13803
922.571	13826
922.68	13620
922.789	13499
922.898	13590
923.007	13628
923.116	13636
923.224	13571
923.333	13662
923.442	13476
923.55	13419
923.659	13430
923.767	13559
923.876	13354
923.984	13415
924.092	13331
924.201	13483
924.309	13350
924.417	13335
924.525	13232
924.633	13225
924.741	13997
924.849	13137
924.956	13190
925.064	13114
925.172	13019
925.279	13042
925.387	13095
925.494	13050
925.602	13164
925.709	13099
925.816	12848
925.924	12947
926.031	12981
926.138	12958
926.245	13050
926.352	12856
926.459	12996
926.566	13019
926.673	12871
926.779	12730
926.886	12734
926.993	12627
927.099	12623
927.206	12521
927.312	12494
927.419	12597
927.525	12665
927.631	12563
927.737	12467
927.843	12437
927.95	12388
928.056	12365
928.162	12452
928.267	12483
928.373	12996
928.479	12517
928.585	12228
928.69	12353
928.796	12448
928.901	12281
929.007	12155
929.112	12235
929.218	12182
929.323	12133
929.428	12117
929.533	12163
929.638	12083
929.743	12155
929.848	12095
929.953	12060
930.058	11920
930.163	11821
930.267	11847
930.372	11992
930.477	11729
930.581	12049
930.685	11794
930.79	11691
930.894	11710
930.998	11611
931.103	11745
931.207	11429
931.311	11372
931.415	11296
931.519	11098
931.623	11060
