Data from test_V78500241_2260.txt Node
Date: Fri Mar 25 15:25:35 CST 2022
User: usil
Spectrometer: V785-0024
Trigger mode: 0
Integration Time (sec): 4.000000E-1
Scans to average: 1
Nonlinearity correction enabled: false
Boxcar width: 0
Storing dark spectrum: false
XAxis mode: Wavelengths
Number of Pixels in Spectrum: 1024
>>>>>Begin Spectral Data<<<<<
801.071	27701
801.214	27633
801.356	27504
801.499	27336
801.641	27195
801.783	27233
801.926	27389
802.068	27275
802.211	27165
802.353	27119
802.496	26830
802.638	26906
802.78	26781
802.923	26735
803.065	26655
803.208	26834
803.35	26891
803.492	26963
803.635	26967
803.777	26826
803.919	27032
804.061	27363
804.204	27077
804.346	27013
804.488	26971
804.63	27081
804.773	26937
804.915	27085
805.057	27081
805.199	27093
805.341	27013
805.483	27176
805.626	27112
805.768	27085
805.91	27214
806.052	27291
806.194	27062
806.336	27298
806.478	27047
806.62	27344
806.762	27233
806.904	27473
807.046	27781
807.188	27526
807.33	27641
807.472	27770
807.614	27523
807.756	27526
807.898	27568
808.04	27344
808.182	27416
808.324	27431
808.465	27469
808.607	27701
808.749	27850
808.891	27934
809.033	27937
809.174	27778
809.316	27641
809.458	27652
809.6	27770
809.741	28010
809.883	27831
810.025	28055
810.166	28093
810.308	28078
810.45	28021
810.591	27983
810.733	27804
810.875	27823
811.016	27644
811.158	27599
811.299	27808
811.441	28010
811.582	27930
811.724	27713
811.865	27800
812.007	27781
812.148	27797
812.29	27755
812.431	27914
812.573	28074
812.714	28261
812.855	28181
812.997	28344
813.138	28379
813.279	28440
813.421	28371
813.562	28314
813.703	28040
813.845	27979
813.986	27633
814.127	27679
814.268	27530
814.41	27507
814.551	27523
814.692	27519
814.833	27329
814.974	27435
815.115	27496
815.256	27249
815.397	27439
815.539	27420
815.68	27165
815.821	27321
815.962	27230
816.103	27321
816.244	27264
816.385	27074
816.526	27055
816.666	26754
816.807	26716
816.948	26769
817.089	26887
817.23	26880
817.371	26883
817.512	26659
817.653	26765
817.793	26621
817.934	26727
818.075	26701
818.216	26705
818.356	26746
818.497	26568
818.638	26446
818.778	26503
818.919	26324
819.06	26613
819.2	26651
819.341	26800
819.481	26609
819.622	26960
819.762	27100
819.903	26952
820.043	26842
820.184	26914
820.324	26815
820.465	26967
820.605	26872
820.746	26929
820.886	26655
821.026	26819
821.167	26746
821.307	26792
821.447	26819
821.588	26621
821.728	26560
821.868	26377
822.008	26317
822.149	26081
822.289	26195
822.429	26035
822.569	25852
822.709	25936
822.849	25856
822.99	25548
823.13	25772
823.27	25765
823.41	25559
823.55	25544
823.69	25510
823.83	25677
823.97	25514
824.11	25457
824.25	25346
824.389	25324
824.529	25369
824.669	25263
824.809	25449
824.949	25373
825.089	25476
825.228	25453
825.368	25175
825.508	25247
825.648	25304
825.787	25365
825.927	25236
826.067	25088
826.206	25263
826.346	25198
826.485	25278
826.625	25179
826.765	25297
826.904	25324
827.044	24882
827.183	25050
827.323	24966
827.462	24973
827.601	24894
827.741	24886
827.88	24981
828.02	24760
828.159	24863
828.298	24981
828.437	24935
828.577	24787
828.716	24985
828.855	24783
828.994	24642
829.134	24688
829.273	24707
829.412	24646
829.551	24707
829.69	24601
829.829	24658
829.968	24616
830.107	24544
830.246	24589
830.385	24536
830.524	24517
830.663	24437
830.802	24422
830.941	24224
831.08	24239
831.219	24273
831.357	24197
831.496	24471
831.635	24251
831.774	24087
831.913	24133
832.051	24102
832.19	23935
832.329	24018
832.467	23969
832.606	23863
832.744	23847
832.883	23836
833.022	23809
833.16	23866
833.299	23893
833.437	23954
833.576	23961
833.714	24079
833.852	24015
833.991	23954
834.129	23965
834.267	24015
834.406	24053
834.544	24049
834.682	24060
834.821	23802
834.959	24182
835.097	23969
835.235	24015
835.373	23920
835.511	23984
835.65	23805
835.788	23908
835.926	23630
836.064	23573
836.202	23619
836.34	23874
836.478	23741
836.615	23809
836.753	23741
836.891	23779
837.029	23950
837.167	23737
837.305	23718
837.443	23543
837.58	23619
837.718	23653
837.856	23783
837.993	23589
838.131	23615
838.269	23482
838.406	23486
838.544	23429
838.681	23311
838.819	23185
838.956	23132
839.094	22987
839.231	23124
839.369	23277
839.506	23444
839.643	23318
839.781	23105
839.918	23048
840.055	22961
840.193	23109
840.33	23025
840.467	22949
840.604	23060
840.742	23337
840.879	22790
841.016	22942
841.153	22831
841.29	23067
841.427	22965
841.564	23003
841.701	23041
841.838	22984
841.975	22816
842.112	22854
842.249	22786
842.385	22858
842.522	22991
842.659	22835
842.796	22911
842.933	22816
843.069	22672
843.206	22805
843.343	22786
843.479	22763
843.616	22752
843.752	22622
843.889	22634
844.025	22721
844.162	22508
844.298	22626
844.435	22542
844.571	22379
844.708	22740
844.844	22725
844.98	22782
845.117	22653
845.253	22588
845.389	22474
845.525	22462
845.661	22371
845.798	22287
845.934	22280
846.07	22261
846.206	22272
846.342	22470
846.478	22234
846.614	22021
846.75	22025
846.886	21911
847.022	21987
847.158	22021
847.294	22116
847.429	21930
847.565	22017
847.701	22238
847.837	21770
847.972	21778
848.108	21827
848.244	21713
848.379	21614
848.515	21629
848.65	21576
848.786	21633
848.921	21603
849.057	21694
849.192	21698
849.328	21652
849.463	21523
849.598	21523
849.734	21439
849.869	21477
850.004	21393
850.14	21386
850.275	21344
850.41	21283
850.545	21260
850.68	21298
850.815	21367
850.95	21249
851.085	21545
851.22	21435
851.355	21416
851.49	21325
851.625	21359
851.76	21344
851.895	21283
852.03	21313
852.165	21249
852.299	21355
852.434	21386
852.569	21332
852.703	21310
852.838	21370
852.973	21473
853.107	21462
853.242	21283
853.376	21138
853.511	21024
853.645	21112
853.78	21256
853.914	21161
854.048	21199
854.183	21051
854.317	21207
854.451	21454
854.585	21157
854.72	21157
854.854	21275
854.988	21081
855.122	21169
855.256	21093
855.39	21165
855.524	21203
855.658	21188
855.792	21123
855.926	21203
856.06	21100
856.194	21325
856.327	21127
856.461	21039
856.595	21089
856.729	21230
856.862	21302
856.996	21218
857.13	21203
857.263	21138
857.397	21313
857.53	21131
857.664	21176
857.797	21249
857.931	21321
858.064	21173
858.197	21386
858.331	21214
858.464	21135
858.597	20979
858.731	21150
858.864	21123
858.997	21188
859.13	21176
859.263	21112
859.396	21233
859.529	21207
859.662	21104
859.795	21116
859.928	21047
860.061	21306
860.194	21428
860.327	21233
860.46	21195
860.592	21302
860.725	21275
860.858	21302
860.99	21169
861.123	21100
861.256	21127
861.388	21119
861.521	21960
861.653	21066
861.786	21058
861.918	21089
862.05	21036
862.183	21032
862.315	21169
862.447	21188
862.58	20967
862.712	20979
862.844	20876
862.976	21096
863.108	20914
863.24	21188
863.372	20826
863.504	20823
863.636	20944
863.768	20849
863.9	20857
864.032	20815
864.164	20800
864.296	20834
864.428	21055
864.559	21001
864.691	20982
864.823	20861
864.954	20853
865.086	20796
865.217	20826
865.349	20785
865.48	20823
865.612	20750
865.743	20849
865.875	20853
866.006	20716
866.137	20815
866.269	20830
866.4	20750
866.531	20781
866.662	20777
866.793	20571
866.924	20762
867.055	20861
867.186	20773
867.317	20686
867.448	20686
867.579	20701
867.71	20724
867.841	20807
867.972	20674
868.103	20636
868.233	20712
868.364	20773
868.495	20777
868.625	20872
868.756	21096
868.886	20842
869.017	20952
869.147	21108
869.278	21127
869.408	21047
869.539	20921
869.669	21173
869.799	20986
869.929	21017
870.06	20921
870.19	21370
870.32	21241
870.45	21241
870.58	21226
870.71	21450
870.84	21435
870.97	21245
871.1	21302
871.23	21519
871.36	21511
871.489	21477
871.619	21469
871.749	21500
871.879	21576
872.008	21625
872.138	21500
872.267	21568
872.397	21420
872.526	21355
872.656	21348
872.785	21397
872.915	21542
873.044	21671
873.173	21595
873.303	21606
873.432	21614
873.561	21583
873.69	21644
873.819	21439
873.948	21698
874.077	21603
874.206	21610
874.335	21564
874.464	21755
874.593	21759
874.722	21625
874.851	21842
874.979	21816
875.108	21827
875.237	21816
875.365	21869
875.494	21701
875.623	21808
875.751	21770
875.88	21876
876.008	22002
876.136	22040
876.265	22093
876.393	22402
876.521	22276
876.65	22363
876.778	22207
876.906	22143
877.034	22196
877.162	22090
877.29	22093
877.418	22169
877.546	22204
877.674	22177
877.802	22143
877.93	22131
878.058	22147
878.185	21975
878.313	22139
878.441	22249
878.568	22154
878.696	22173
878.824	22101
878.951	22196
879.079	22508
879.206	22394
879.333	22360
879.461	22162
879.588	22242
879.715	22276
879.842	22280
879.97	22268
880.097	22070
880.224	21926
880.351	22067
880.478	22070
880.605	21937
880.732	22006
880.859	22162
880.986	22010
881.112	21945
881.239	21770
881.366	21766
881.493	21656
881.619	21663
881.746	21504
881.872	21572
881.999	21504
882.125	21485
882.252	21587
882.378	21641
882.505	21595
882.631	21382
882.757	21310
882.883	21298
883.01	21169
883.136	21306
883.262	21214
883.388	20994
883.514	21264
883.64	21367
883.766	21180
883.892	21074
884.018	21089
884.143	21211
884.269	21157
884.395	20971
884.52	20921
884.646	20952
884.772	20815
884.897	20769
885.023	20899
885.148	21024
885.274	21051
885.399	20979
885.524	20963
885.65	20830
885.775	20880
885.9	20902
886.025	20963
886.15	21028
886.275	20929
886.4	20792
886.525	20895
886.65	20887
886.775	20864
886.9	21039
887.025	21093
887.149	20868
887.274	20617
887.399	20659
887.523	20678
887.648	20663
887.773	20636
887.897	20746
888.021	20754
888.146	20594
888.27	20781
888.395	20838
888.519	20678
888.643	20750
888.767	20625
888.891	20575
889.015	20431
889.139	20552
889.263	20476
889.387	20434
889.511	20564
889.635	20564
889.759	20480
889.883	20434
890.006	20450
890.13	20484
890.254	20389
890.377	20339
890.501	20298
890.624	20221
890.748	20275
890.871	20115
890.995	20008
891.118	20050
891.241	20058
891.364	19982
891.488	20259
891.611	20081
891.734	20145
891.857	20157
891.98	20020
892.103	20107
892.226	20016
892.349	20069
892.471	19795
892.594	19921
892.717	19947
892.839	19894
892.962	19921
893.085	20012
893.207	19890
893.33	19795
893.452	19860
893.575	19921
893.697	19913
893.819	20058
893.941	20164
894.064	19989
894.186	20005
894.308	19871
894.43	20016
894.552	20111
894.674	19989
894.796	19811
894.918	19875
895.04	19871
895.161	20039
895.283	20001
895.405	19978
895.526	19925
895.648	20058
895.769	19928
895.891	19906
896.012	19925
896.134	20001
896.255	19894
896.376	19864
896.498	19917
896.619	20001
896.74	19940
896.861	19959
896.982	20229
897.103	20423
897.224	20252
897.345	20180
897.466	20024
897.587	20084
897.708	20355
897.828	20111
897.949	19959
898.07	19993
898.19	20145
898.311	20187
898.431	20103
898.552	20043
898.672	20248
898.792	20225
898.913	20157
899.033	20008
899.153	20065
899.273	19856
899.393	19947
899.513	19997
899.633	19951
899.753	20027
899.873	19936
899.993	19902
900.113	19864
900.232	19978
900.352	19791
900.472	19746
900.591	19734
900.711	19795
900.83	19670
900.95	19780
901.069	19784
901.189	19563
901.308	19415
901.427	19259
901.546	19301
901.665	19251
901.784	19381
901.904	19129
902.023	19046
902.141	18962
902.26	18852
902.379	18833
902.498	18821
902.617	18738
902.735	18924
902.854	18829
902.973	18646
903.091	18593
903.21	18437
903.328	18604
903.446	18376
903.565	18194
903.683	18251
903.801	18292
903.919	18228
904.038	18266
904.156	17996
904.274	18140
904.392	18019
904.51	17973
904.627	18007
904.745	18239
904.863	18178
904.981	17874
905.098	17710
905.216	17703
905.334	17794
905.451	17703
905.569	17672
905.686	17805
905.803	17786
905.921	17543
906.038	17649
906.155	17566
906.272	17440
906.389	17349
906.506	17254
906.623	17296
906.74	17231
906.857	17113
906.974	17204
907.091	17353
907.208	17315
907.324	17296
907.441	17216
907.557	17033
907.674	17022
907.79	16919
907.907	16919
908.023	16915
908.139	16980
908.256	16854
908.372	16915
908.488	16927
908.604	16729
908.72	16573
908.836	16736
908.952	16702
909.068	16717
909.184	16812
909.3	16721
909.415	16691
909.531	16645
909.647	16451
909.762	16295
909.878	16367
909.993	16367
910.108	16424
910.224	16344
910.339	16344
910.454	16314
910.57	16200
910.685	16071
910.8	16413
910.915	16322
911.03	16090
911.145	16128
911.259	15960
911.374	15884
911.489	15934
911.604	15960
911.718	15705
911.833	15823
911.947	15622
912.062	15576
912.176	15622
912.291	15606
912.405	15713
912.519	15930
912.633	15903
912.748	15747
912.862	15660
912.976	15618
913.09	15599
913.204	15405
913.318	15511
913.431	15648
913.545	15713
913.659	15557
913.772	15511
913.886	15367
914	15351
914.113	15424
914.226	15428
914.34	15485
914.453	15218
914.566	15363
914.68	15275
914.793	15233
914.906	15055
915.019	14948
915.132	14990
915.245	14967
915.358	15013
915.47	15005
915.583	14948
915.696	15024
915.809	15036
915.921	15173
916.034	14883
916.146	14906
916.259	14921
916.371	14910
916.483	14921
916.595	14948
916.708	14807
916.82	14792
916.932	14743
917.044	14758
917.156	14781
917.268	14530
917.38	14632
917.491	14720
917.603	14594
917.715	14785
917.826	14735
917.938	14522
918.049	14522
918.161	14651
918.272	14667
918.384	14655
918.495	14568
918.606	14419
918.717	14366
918.828	14408
918.939	14488
919.05	14218
919.161	14320
919.272	14298
919.383	14286
919.494	14358
919.604	14568
919.715	14370
919.826	14263
919.936	14324
920.047	14488
920.157	14408
920.267	14526
920.378	14347
920.488	14313
920.598	14480
920.708	14686
920.818	14545
920.928	14412
921.038	14606
921.148	14606
921.258	14396
921.368	14309
921.477	14050
921.587	14157
921.697	13989
921.806	14069
921.916	13860
922.025	13769
922.134	13742
922.244	13727
922.353	13757
922.462	13662
922.571	13590
922.68	13400
922.789	13487
922.898	13388
923.007	13350
923.116	13434
923.224	13293
923.333	13419
923.442	13164
923.55	13236
923.659	13225
923.767	13198
923.876	13141
923.984	13244
924.092	12973
924.201	13118
924.309	13228
924.417	13179
924.525	13080
924.633	13046
924.741	13753
924.849	12882
924.956	12928
925.064	12840
925.172	12749
925.279	12791
925.387	12856
925.494	12768
925.602	12951
925.709	12859
925.816	12730
925.924	12715
926.031	12867
926.138	12764
926.245	12814
926.352	12700
926.459	12715
926.566	12795
926.673	12768
926.779	12506
926.886	12563
926.993	12437
927.099	12308
927.206	12330
927.312	12350
927.419	12350
927.525	12319
927.631	12414
927.737	12247
927.843	12239
927.95	12114
928.056	12140
928.162	12213
928.267	12311
928.373	12848
928.479	12342
928.585	12114
928.69	12190
928.796	12296
928.901	12034
929.007	12038
929.112	12057
929.218	11996
929.323	11977
929.428	11927
929.533	12129
929.638	11843
929.743	11996
929.848	11908
929.953	11828
930.058	11737
930.163	11592
930.267	11672
930.372	11752
930.477	11642
930.581	11840
930.685	11661
930.79	11520
930.894	11585
930.998	11528
931.103	11661
931.207	11223
931.311	11227
931.415	11071
931.519	10942
931.623	10862
