Data from test_V78500241_1115.txt Node
Date: Fri Mar 25 15:17:37 CST 2022
User: usil
Spectrometer: V785-0024
Trigger mode: 0
Integration Time (sec): 4.000000E-1
Scans to average: 1
Nonlinearity correction enabled: false
Boxcar width: 0
Storing dark spectrum: false
XAxis mode: Wavelengths
Number of Pixels in Spectrum: 1024
>>>>>Begin Spectral Data<<<<<
801.071	27930
801.214	28074
801.356	27766
801.499	27682
801.641	27671
801.783	27652
801.926	27606
802.068	27526
802.211	27561
802.353	27389
802.496	27386
802.638	27195
802.78	27287
802.923	27275
803.065	27272
803.208	27279
803.35	27233
803.492	27336
803.635	27374
803.777	27275
803.919	27504
804.061	27660
804.204	27443
804.346	27488
804.488	27359
804.63	27500
804.773	27492
804.915	27507
805.057	27416
805.199	27336
805.341	27561
805.483	27663
805.626	27564
805.768	27340
805.91	27595
806.052	27591
806.194	27397
806.336	27804
806.478	27652
806.62	27682
806.762	27614
806.904	27797
807.046	28116
807.188	27953
807.33	27983
807.472	28120
807.614	27911
807.756	27930
807.898	27983
808.04	27903
808.182	27861
808.324	27888
808.465	27907
808.607	28181
808.749	28219
808.891	28329
809.033	28295
809.174	28192
809.316	28371
809.458	28185
809.6	28116
809.741	28409
809.883	28375
810.025	28523
810.166	28523
810.308	28443
810.45	28466
810.591	28440
810.733	28207
810.875	28299
811.016	28128
811.158	28017
811.299	28348
811.441	28211
811.582	28386
811.724	28348
811.865	28211
812.007	28265
812.148	28265
812.29	28207
812.431	28314
812.573	28554
812.714	28603
812.855	28744
812.997	28771
813.138	29056
813.279	28839
813.421	28812
813.562	28672
813.703	28493
813.845	28531
813.986	28200
814.127	28078
814.268	27926
814.41	27953
814.551	27964
814.692	28029
814.833	27941
814.974	27850
815.115	27857
815.256	27945
815.397	27918
815.539	27842
815.68	27797
815.821	27663
815.962	27637
816.103	27724
816.244	27648
816.385	27443
816.526	27618
816.666	27378
816.807	27180
816.948	27382
817.089	27386
817.23	27313
817.371	27329
817.512	27233
817.653	27245
817.793	27081
817.934	27317
818.075	27264
818.216	27207
818.356	27256
818.497	27165
818.638	27013
818.778	27036
818.919	26891
819.06	27093
819.2	27119
819.341	27214
819.481	27070
819.622	27367
819.762	27538
819.903	27469
820.043	27561
820.184	27291
820.324	27310
820.465	27458
820.605	27340
820.746	27233
820.886	27116
821.026	27443
821.167	27275
821.307	27325
821.447	27336
821.588	27112
821.728	27150
821.868	26918
822.008	26845
822.149	26754
822.289	26670
822.429	26469
822.569	26351
822.709	26290
822.849	26324
822.99	26244
823.13	26172
823.27	26157
823.41	26100
823.55	26046
823.69	26126
823.83	26088
823.97	26149
824.11	25879
824.25	25830
824.389	25921
824.529	25940
824.669	25913
824.809	26084
824.949	25951
825.089	25940
825.228	25936
825.368	25784
825.508	25761
825.648	25696
825.787	25841
825.927	25814
826.067	25742
826.206	25803
826.346	25708
826.485	25940
826.625	25753
826.765	25871
826.904	25887
827.044	25609
827.183	25495
827.323	25506
827.462	25540
827.601	25411
827.741	25472
827.88	25491
828.02	25487
828.159	25540
828.298	25453
828.437	25601
828.577	25514
828.716	25533
828.855	25392
828.994	25187
829.134	25141
829.273	25251
829.412	25179
829.551	25263
829.69	25198
829.829	25316
829.968	25202
830.107	25324
830.246	25160
830.385	25152
830.524	25228
830.663	25012
830.802	24935
830.941	24825
831.08	24886
831.219	24840
831.357	25008
831.496	24985
831.635	24749
831.774	24859
831.913	24734
832.051	24616
832.19	24700
832.329	24734
832.467	24658
832.606	24505
832.744	24479
832.883	24502
833.022	24448
833.16	24612
833.299	24532
833.437	24536
833.576	24646
833.714	24551
833.852	24502
833.991	24669
834.129	24654
834.267	24608
834.406	24631
834.544	24604
834.682	24593
834.821	24525
834.959	24669
835.097	24532
835.235	24661
835.373	24490
835.511	24639
835.65	24563
835.788	24429
835.926	24361
836.064	24171
836.202	24270
836.34	24525
836.478	24517
836.615	24399
836.753	24471
836.891	24563
837.029	24380
837.167	24441
837.305	24399
837.443	24292
837.58	24315
837.718	24403
837.856	24319
837.993	24159
838.131	24247
838.269	24194
838.406	24167
838.544	24224
838.681	23965
838.819	23885
838.956	23646
839.094	23752
839.231	23729
839.369	23935
839.506	24178
839.643	23916
839.781	23726
839.918	23897
840.055	23756
840.193	23707
840.33	23657
840.467	23623
840.604	23885
840.742	24129
840.879	23623
841.016	23691
841.153	23600
841.29	23752
841.427	23535
841.564	23748
841.701	23634
841.838	23604
841.975	23722
842.112	23596
842.249	23433
842.385	23429
842.522	23653
842.659	23581
842.796	23452
842.933	23554
843.069	23433
843.206	23452
843.343	23608
843.479	23414
843.616	23330
843.752	23155
843.889	23223
844.025	23448
844.162	23052
844.298	23292
844.435	23250
844.571	23204
844.708	23414
844.844	23429
844.98	23448
845.117	23273
845.253	23102
845.389	23094
845.525	23204
845.661	23029
845.798	22862
845.934	23025
846.07	22949
846.206	23025
846.342	23075
846.478	22866
846.614	22854
846.75	22660
846.886	22702
847.022	22744
847.158	22763
847.294	22759
847.429	22725
847.565	22691
847.701	22911
847.837	22405
847.972	22348
848.108	22451
848.244	22523
848.379	22261
848.515	22204
848.65	22280
848.786	22295
848.921	22249
849.057	22474
849.192	22382
849.328	22207
849.463	22253
849.598	22207
849.734	22196
849.869	22139
850.004	22048
850.14	22090
850.275	22158
850.41	21945
850.545	21819
850.68	22067
850.815	22181
850.95	22021
851.085	22192
851.22	22059
851.355	22055
851.49	21953
851.625	22006
851.76	22029
851.895	21972
852.03	21998
852.165	21998
852.299	22010
852.434	22090
852.569	22006
852.703	21991
852.838	21994
852.973	22109
853.107	22158
853.242	21960
853.376	21922
853.511	21747
853.645	21918
853.78	21972
853.914	21857
854.048	21698
854.183	21808
854.317	21876
854.451	22036
854.585	21903
854.72	21846
854.854	21934
854.988	21835
855.122	21941
855.256	21827
855.39	21911
855.524	21941
855.658	22055
855.792	21903
855.926	21945
856.06	21934
856.194	21930
856.327	21956
856.461	21800
856.595	21766
856.729	21838
856.862	21991
856.996	21880
857.13	21926
857.263	21911
857.397	21934
857.53	21831
857.664	21854
857.797	21880
857.931	21884
858.064	21926
858.197	22109
858.331	21873
858.464	21857
858.597	21812
858.731	21812
858.864	21785
858.997	21884
859.13	21778
859.263	21728
859.396	21926
859.529	21842
859.662	21827
859.795	21884
859.928	21781
860.061	22017
860.194	22029
860.327	21854
860.46	21945
860.592	21975
860.725	21975
860.858	21960
860.99	21835
861.123	21781
861.256	21724
861.388	21922
861.521	22656
861.653	21774
861.786	21625
861.918	21587
862.05	21671
862.183	21835
862.315	21861
862.447	21861
862.58	21797
862.712	21580
862.844	21477
862.976	21606
863.108	21633
863.24	22036
863.372	21595
863.504	21568
863.636	21561
863.768	21599
863.9	21549
864.032	21519
864.164	21542
864.296	21694
864.428	21614
864.559	21644
864.691	21568
864.823	21675
864.954	21606
865.086	21515
865.217	21420
865.349	21378
865.48	21389
865.612	21538
865.743	21583
865.875	21500
866.006	21435
866.137	21382
866.269	21393
866.4	21469
866.531	21420
866.662	21313
866.793	21287
866.924	21268
867.055	21367
867.186	21306
867.317	21408
867.448	21363
867.579	21298
867.71	21218
867.841	21275
867.972	21348
868.103	21306
868.233	21313
868.364	21348
868.495	21515
868.625	21511
868.756	21690
868.886	21542
869.017	21530
869.147	21785
869.278	21618
869.408	21603
869.539	21618
869.669	21762
869.799	21637
869.929	21793
870.06	21701
870.19	21842
870.32	21736
870.45	21876
870.58	21930
870.71	22059
870.84	22105
870.97	21956
871.1	22059
871.23	22173
871.36	22173
871.489	21998
871.619	22128
871.749	22158
871.879	22344
872.008	22337
872.138	22215
872.267	22158
872.397	22131
872.526	22086
872.656	22090
872.785	22128
872.915	22223
873.044	22268
873.173	22185
873.303	22291
873.432	22101
873.561	22234
873.69	22177
873.819	22166
873.948	22318
874.077	22097
874.206	22147
874.335	22196
874.464	22223
874.593	22344
874.722	22348
874.851	22504
874.979	22478
875.108	22405
875.237	22474
875.365	22284
875.494	22375
875.623	22538
875.751	22287
875.88	22428
876.008	22489
876.136	22675
876.265	22786
876.393	22889
876.521	22744
876.65	22938
876.778	22835
876.906	22733
877.034	22767
877.162	22694
877.29	22771
877.418	22812
877.546	22900
877.674	22843
877.802	22771
877.93	22710
878.058	22755
878.185	22733
878.313	22752
878.441	22755
878.568	22615
878.696	22653
878.824	22866
878.951	22892
879.079	22942
879.206	23075
879.333	22885
879.461	22881
879.588	22968
879.715	22854
879.842	22995
879.97	22831
880.097	22573
880.224	22580
880.351	22656
880.478	22611
880.605	22523
880.732	22500
880.859	22869
880.986	22668
881.112	22641
881.239	22485
881.366	22337
881.493	22268
881.619	22093
881.746	22207
881.872	22154
881.999	22124
882.125	22120
882.252	22139
882.378	22112
882.505	22299
882.631	22067
882.757	21918
882.883	21979
883.01	21915
883.136	21835
883.262	21869
883.388	21743
883.514	21854
883.64	21819
883.766	21755
883.892	21606
884.018	21553
884.143	21808
884.269	21838
884.395	21603
884.52	21481
884.646	21481
884.772	21367
884.897	21317
885.023	21606
885.148	21534
885.274	21610
885.399	21580
885.524	21538
885.65	21595
885.775	21519
885.9	21424
886.025	21595
886.15	21542
886.275	21492
886.4	21428
886.525	21481
886.65	21405
886.775	21420
886.9	21591
887.025	21679
887.149	21538
887.274	21306
887.399	21283
887.523	21279
887.648	21089
887.773	21184
887.897	21325
888.021	21245
888.146	21233
888.27	21439
888.395	21363
888.519	21218
888.643	21355
888.767	21161
888.891	21150
889.015	21127
889.139	21199
889.263	21104
889.387	21176
889.511	21287
889.635	21112
889.759	20910
889.883	20979
890.006	21135
890.13	21131
890.254	21032
890.377	20994
890.501	20811
890.624	20811
890.748	20937
890.871	20739
890.995	20492
891.118	20590
891.241	20670
891.364	20708
891.488	20971
891.611	20545
891.734	20568
891.857	20686
891.98	20663
892.103	20720
892.226	20625
892.349	20602
892.471	20503
892.594	20511
892.717	20617
892.839	20625
892.962	20484
893.085	20560
893.207	20400
893.33	20324
893.452	20374
893.575	20549
893.697	20552
893.819	20594
893.941	20625
894.064	20678
894.186	20503
894.308	20533
894.43	20609
894.552	20537
894.674	20571
894.796	20412
894.918	20454
895.04	20473
895.161	20568
895.283	20541
895.405	20336
895.526	20434
895.648	20492
895.769	20556
895.891	20549
896.012	20609
896.134	20495
896.255	20530
896.376	20454
896.498	20461
896.619	20655
896.74	20476
896.861	20579
896.982	20765
897.103	20880
897.224	20765
897.345	20796
897.466	20609
897.587	20720
897.708	20777
897.828	20697
897.949	20636
898.07	20495
898.19	20568
898.311	20902
898.431	20590
898.552	20659
898.672	20796
898.792	20743
898.913	20708
899.033	20613
899.153	20469
899.273	20366
899.393	20317
899.513	20469
899.633	20415
899.753	20434
899.873	20351
899.993	20434
900.113	20450
900.232	20366
900.352	20374
900.472	20202
900.591	20130
900.711	20199
900.83	20191
900.95	20286
901.069	20355
901.189	20107
901.308	19818
901.427	19746
901.546	19837
901.665	19719
901.784	19830
901.904	19635
902.023	19529
902.141	19388
902.26	19301
902.379	19327
902.498	19362
902.617	19350
902.735	19392
902.854	19179
902.973	19183
903.091	18981
903.21	18909
903.328	18924
903.446	18897
903.565	18753
903.683	18757
903.801	18730
903.919	18741
904.038	18654
904.156	18612
904.274	18525
904.392	18574
904.51	18426
904.627	18506
904.745	18566
904.863	18525
904.981	18311
905.098	18239
905.216	18167
905.334	18174
905.451	18251
905.569	18053
905.686	18239
905.803	18270
905.921	18053
906.038	18068
906.155	17946
906.272	17802
906.389	17965
906.506	17752
906.623	17680
906.74	17817
906.857	17657
906.974	17596
907.091	17878
907.208	17912
907.324	17802
907.441	17615
907.557	17547
907.674	17501
907.79	17349
907.907	17516
908.023	17402
908.139	17444
908.256	17280
908.372	17330
908.488	17360
908.604	17113
908.72	17246
908.836	17193
908.952	17181
909.068	17162
909.184	17124
909.3	17227
909.415	17204
909.531	17083
909.647	16930
909.762	16949
909.878	16908
909.993	16995
910.108	16831
910.224	16866
910.339	16767
910.454	16816
910.57	16672
910.685	16713
910.8	16847
910.915	16793
911.03	16675
911.145	16497
911.259	16546
911.374	16398
911.489	16402
911.604	16329
911.718	16272
911.833	16219
911.947	16207
912.062	16017
912.176	16272
912.291	16234
912.405	16150
912.519	16352
912.633	16348
912.748	16238
912.862	16200
912.976	16135
913.09	15808
913.204	15972
913.318	15911
913.431	16131
913.545	16071
913.659	16082
913.772	15960
913.886	15934
914	15774
914.113	15861
914.226	15888
914.34	15934
914.453	15739
914.566	15895
914.68	15759
914.793	15663
914.906	15580
915.019	15507
915.132	15363
915.245	15412
915.358	15408
915.47	15431
915.583	15408
915.696	15367
915.809	15557
915.921	15458
916.034	15355
916.146	15302
916.259	15146
916.371	15405
916.483	15348
916.595	15332
916.708	15222
916.82	15241
916.932	15222
917.044	15218
917.156	15081
917.268	14979
917.38	15108
917.491	15093
917.603	15089
917.715	15146
917.826	15123
917.938	15032
918.049	14845
918.161	14910
918.272	15142
918.384	15108
918.495	14937
918.606	14838
918.717	14735
918.828	14868
918.939	14826
919.05	14765
919.161	14804
919.272	14602
919.383	14625
919.494	14880
919.604	15001
919.715	14773
919.826	14727
919.936	14727
920.047	14785
920.157	14773
920.267	14933
920.378	14792
920.488	14651
920.598	14929
920.708	15051
920.818	14857
920.928	14845
921.038	14979
921.148	15058
921.258	14712
921.368	14659
921.477	14469
921.587	14492
921.697	14377
921.806	14431
921.916	14343
922.025	14191
922.134	14145
922.244	14096
922.353	14183
922.462	14092
922.571	13925
922.68	13837
922.789	13738
922.898	13830
923.007	13727
923.116	13830
923.224	13746
923.333	13723
923.442	13578
923.55	13521
923.659	13624
923.767	13674
923.876	13521
923.984	13548
924.092	13506
924.201	13514
924.309	13487
924.417	13411
924.525	13430
924.633	13495
924.741	14305
924.849	13308
924.956	13346
925.064	13202
925.172	13141
925.279	13110
925.387	13213
925.494	13244
925.602	13221
925.709	13206
925.816	13019
925.924	13107
926.031	13278
926.138	13076
926.245	13118
926.352	13034
926.459	13088
926.566	13103
926.673	13027
926.779	12829
926.886	12943
926.993	12741
927.099	12753
927.206	12833
927.312	12673
927.419	12779
927.525	12681
927.631	12776
927.737	12658
927.843	12532
927.95	12338
928.056	12486
928.162	12563
928.267	12620
928.373	13110
928.479	12608
928.585	12361
928.69	12486
928.796	12593
928.901	12407
929.007	12254
929.112	12357
929.218	12327
929.323	12289
929.428	12243
929.533	12441
929.638	12281
929.743	12209
929.848	12243
929.953	12266
930.058	12076
930.163	11980
930.267	11999
930.372	12026
930.477	11961
930.581	12110
930.685	11988
930.79	11878
930.894	11893
930.998	11809
931.103	11882
931.207	11592
931.311	11505
931.415	11376
931.519	11193
931.623	11155
