Data from test_V78500241_3312.txt Node
Date: Fri Mar 25 15:32:55 CST 2022
User: usil
Spectrometer: V785-0024
Trigger mode: 0
Integration Time (sec): 4.000000E-1
Scans to average: 1
Nonlinearity correction enabled: false
Boxcar width: 0
Storing dark spectrum: false
XAxis mode: Wavelengths
Number of Pixels in Spectrum: 1024
>>>>>Begin Spectral Data<<<<<
801.071	27268
801.214	27348
801.356	27032
801.499	26830
801.641	26796
801.783	26769
801.926	26823
802.068	26785
802.211	26773
802.353	26838
802.496	26530
802.638	26606
802.78	26423
802.923	26366
803.065	26526
803.208	26404
803.35	26370
803.492	26602
803.635	26659
803.777	26415
803.919	26689
804.061	26796
804.204	26701
804.346	26678
804.488	26606
804.63	26545
804.773	26480
804.915	26625
805.057	26750
805.199	26518
805.341	26746
805.483	26781
805.626	26792
805.768	26568
805.91	26777
806.052	26811
806.194	26571
806.336	26819
806.478	26727
806.62	26640
806.762	26788
806.904	26864
807.046	27260
807.188	27203
807.33	27047
807.472	27074
807.614	27119
807.756	27024
807.898	26994
808.04	26880
808.182	26929
808.324	27009
808.465	26956
808.607	27207
808.749	27355
808.891	27302
809.033	27348
809.174	27218
809.316	27150
809.458	27355
809.6	27367
809.741	27447
809.883	27481
810.025	27538
810.166	27656
810.308	27500
810.45	27481
810.591	27614
810.733	27355
810.875	27435
811.016	27298
811.158	27032
811.299	27477
811.441	27424
811.582	27496
811.724	27408
811.865	27184
812.007	27397
812.148	27302
812.29	27256
812.431	27424
812.573	27622
812.714	27690
812.855	27789
812.997	27835
813.138	28002
813.279	27827
813.421	27968
813.562	27819
813.703	27606
813.845	27500
813.986	27192
814.127	27127
814.268	27233
814.41	26979
814.551	27066
814.692	27032
814.833	26883
814.974	26895
815.115	26956
815.256	26811
815.397	26842
815.539	26731
815.68	26648
815.821	26659
815.962	26648
816.103	26613
816.244	26526
816.385	26511
816.526	26442
816.666	26294
816.807	26248
816.948	26298
817.089	26271
817.23	26244
817.371	26145
817.512	26278
817.653	26294
817.793	26290
817.934	26138
818.075	26366
818.216	26275
818.356	26157
818.497	26126
818.638	25997
818.778	25883
818.919	25932
819.06	25947
819.2	26134
819.341	26187
819.481	26168
819.622	26381
819.762	26400
819.903	26522
820.043	26317
820.184	26362
820.324	26370
820.465	26434
820.605	26328
820.746	26259
820.886	26157
821.026	26305
821.167	26058
821.307	26317
821.447	26244
821.588	26183
821.728	25986
821.868	25860
822.008	25738
822.149	25563
822.289	25613
822.429	25449
822.569	25316
822.709	25373
822.849	25179
822.99	25179
823.13	25232
823.27	25076
823.41	25088
823.55	25012
823.69	25084
823.83	24966
823.97	24878
824.11	24692
824.25	24757
824.389	24783
824.529	24992
824.669	24886
824.809	24966
824.949	24897
825.089	24852
825.228	24867
825.368	24650
825.508	24646
825.648	24654
825.787	24635
825.927	24681
826.067	24677
826.206	24783
826.346	24867
826.485	24730
826.625	24920
826.765	24791
826.904	24825
827.044	24418
827.183	24490
827.323	24365
827.462	24502
827.601	24475
827.741	24540
827.88	24323
828.02	24262
828.159	24327
828.298	24422
828.437	24445
828.577	24388
828.716	24547
828.855	24319
828.994	24129
829.134	24045
829.273	24197
829.412	24003
829.551	24068
829.69	24022
829.829	24159
829.968	24190
830.107	24117
830.246	24201
830.385	24174
830.524	24076
830.663	23908
830.802	23779
830.941	23783
831.08	23592
831.219	23824
831.357	23722
831.496	23992
831.635	23813
831.774	23672
831.913	23619
832.051	23604
832.19	23547
832.329	23638
832.467	23455
832.606	23280
832.744	23311
832.883	23318
833.022	23398
833.16	23433
833.299	23414
833.437	23478
833.576	23581
833.714	23452
833.852	23535
833.991	23547
834.129	23543
834.267	23554
834.406	23379
834.544	23543
834.682	23474
834.821	23414
834.959	23691
835.097	23379
835.235	23653
835.373	23516
835.511	23516
835.65	23379
835.788	23292
835.926	23265
836.064	23166
836.202	23155
836.34	23258
836.478	23326
836.615	23349
836.753	23311
836.891	23307
837.029	23223
837.167	23410
837.305	23159
837.443	23212
837.58	23162
837.718	23246
837.856	23239
837.993	23102
838.131	23254
838.269	23041
838.406	23121
838.544	23033
838.681	22809
838.819	22843
838.956	22527
839.094	22660
839.231	22675
839.369	22839
839.506	22976
839.643	22900
839.781	22774
839.918	22599
840.055	22634
840.193	22649
840.33	22573
840.467	22653
840.604	22641
840.742	22748
840.879	22466
841.016	22519
841.153	22440
841.29	22683
841.427	22584
841.564	22656
841.701	22641
841.838	22596
841.975	22519
842.112	22516
842.249	22447
842.385	22413
842.522	22675
842.659	22443
842.796	22303
842.933	22322
843.069	22337
843.206	22363
843.343	22459
843.479	22398
843.616	22177
843.752	22093
843.889	22109
844.025	22284
844.162	22105
844.298	22185
844.435	22109
844.571	22124
844.708	22150
844.844	22303
844.98	22147
845.117	22318
845.253	22090
845.389	22097
845.525	22029
845.661	22040
845.798	21888
845.934	21975
846.07	21835
846.206	22029
846.342	21949
846.478	21785
846.614	21618
846.75	21526
846.886	21580
847.022	21720
847.158	21622
847.294	21671
847.429	21793
847.565	21629
847.701	21831
847.837	21378
847.972	21355
848.108	21363
848.244	21454
848.379	21272
848.515	21222
848.65	21192
848.786	21104
848.921	21302
849.057	21336
849.192	21374
849.328	21138
849.463	21154
849.598	21279
849.734	21062
849.869	21142
850.004	21077
850.14	20982
850.275	20891
850.41	21001
850.545	20921
850.68	20849
850.815	21039
850.95	20819
851.085	21176
851.22	21089
851.355	20838
851.49	20979
851.625	20979
851.76	20960
851.895	20921
852.03	20838
852.165	20925
852.299	21043
852.434	21104
852.569	20948
852.703	20906
852.838	21013
852.973	21089
853.107	21024
853.242	20921
853.376	20899
853.511	20636
853.645	20720
853.78	20929
853.914	20807
854.048	20739
854.183	20743
854.317	20830
854.451	20906
854.585	20834
854.72	20811
854.854	20872
854.988	20743
855.122	20697
855.256	20655
855.39	20804
855.524	20849
855.658	20864
855.792	20849
855.926	20849
856.06	20830
856.194	20872
856.327	20629
856.461	20754
856.595	20731
856.729	20800
856.862	20864
856.996	20823
857.13	20826
857.263	20933
857.397	20853
857.53	20758
857.664	20781
857.797	20864
857.931	20937
858.064	20746
858.197	21024
858.331	20838
858.464	20773
858.597	20693
858.731	20735
858.864	20899
858.997	20632
859.13	20689
859.263	20792
859.396	20804
859.529	20746
859.662	20689
859.795	20716
859.928	20845
860.061	20895
860.194	20998
860.327	20823
860.46	20868
860.592	20891
860.725	20963
860.858	20815
860.99	20762
861.123	20693
861.256	20716
861.388	20686
861.521	21485
861.653	20758
861.786	20625
861.918	20712
862.05	20667
862.183	20571
862.315	20765
862.447	20902
862.58	20659
862.712	20454
862.844	20370
862.976	20667
863.108	20480
863.24	21024
863.372	20473
863.504	20499
863.636	20560
863.768	20431
863.9	20522
864.032	20594
864.164	20450
864.296	20549
864.428	20632
864.559	20621
864.691	20663
864.823	20499
864.954	20374
865.086	20533
865.217	20446
865.349	20423
865.48	20450
865.612	20446
865.743	20549
865.875	20461
866.006	20301
866.137	20431
866.269	20332
866.4	20385
866.531	20408
866.662	20324
866.793	20301
866.924	20290
867.055	20271
867.186	20381
867.317	20328
867.448	20343
867.579	20324
867.71	20183
867.841	20282
867.972	20275
868.103	20358
868.233	20362
868.364	20404
868.495	20473
868.625	20579
868.756	20712
868.886	20549
869.017	20587
869.147	20720
869.278	20739
869.408	20598
869.539	20545
869.669	20629
869.799	20708
869.929	20743
870.06	20678
870.19	21039
870.32	20861
870.45	20994
870.58	20952
870.71	21062
870.84	21013
870.97	21024
871.1	21062
871.23	21245
871.36	21180
871.489	21100
871.619	21127
871.749	21199
871.879	21188
872.008	21237
872.138	21180
872.267	21268
872.397	21093
872.526	21058
872.656	21070
872.785	21058
872.915	21207
873.044	21291
873.173	21275
873.303	21192
873.432	21207
873.561	21275
873.69	21252
873.819	21192
873.948	21310
874.077	21150
874.206	21192
874.335	21214
874.464	21351
874.593	21447
874.722	21412
874.851	21507
874.979	21454
875.108	21526
875.237	21408
875.365	21154
875.494	21492
875.623	21561
875.751	21317
875.88	21523
876.008	21587
876.136	21591
876.265	21789
876.393	21964
876.521	21876
876.65	21892
876.778	21823
876.906	21755
877.034	21724
877.162	21880
877.29	21762
877.418	21747
877.546	21842
877.674	21793
877.802	21762
877.93	21880
878.058	21785
878.185	21679
878.313	21876
878.441	21846
878.568	21667
878.696	21895
878.824	21854
878.951	21762
879.079	21880
879.206	22101
879.333	22002
879.461	21888
879.588	21880
879.715	21816
879.842	22067
879.97	21876
880.097	21755
880.224	21682
880.351	21618
880.478	21720
880.605	21500
880.732	21701
880.859	21857
880.986	21762
881.112	21679
881.239	21652
881.366	21313
881.493	21249
881.619	21176
881.746	21176
881.872	21150
881.999	21039
882.125	21154
882.252	21165
882.378	21112
882.505	21325
882.631	21154
882.757	20899
882.883	21032
883.01	20990
883.136	20796
883.262	20705
883.388	20712
883.514	20918
883.64	20887
883.766	20743
883.892	20632
884.018	20701
884.143	20842
884.269	20998
884.395	20621
884.52	20556
884.646	20648
884.772	20526
884.897	20450
885.023	20522
885.148	20644
885.274	20655
885.399	20598
885.524	20533
885.65	20629
885.775	20621
885.9	20598
886.025	20549
886.15	20629
886.275	20522
886.4	20484
886.525	20571
886.65	20476
886.775	20533
886.9	20693
887.025	20921
887.149	20568
887.274	20225
887.399	20191
887.523	20320
887.648	20271
887.773	20282
887.897	20469
888.021	20438
888.146	20259
888.27	20317
888.395	20366
888.519	20415
888.643	20419
888.767	20351
888.891	20187
889.015	20134
889.139	20229
889.263	20122
889.387	20191
889.511	20400
889.635	20233
889.759	20172
889.883	20195
890.006	20119
890.13	20233
890.254	19955
890.377	20031
890.501	19928
890.624	19860
890.748	19921
890.871	19784
890.995	19647
891.118	19647
891.241	19734
891.364	19814
891.488	19894
891.611	19750
891.734	19552
891.857	19708
891.98	19643
892.103	19719
892.226	19666
892.349	19788
892.471	19533
892.594	19567
892.717	19639
892.839	19670
892.962	19586
893.085	19689
893.207	19674
893.33	19628
893.452	19563
893.575	19655
893.697	19613
893.819	19723
893.941	19826
894.064	19890
894.186	19662
894.308	19620
894.43	19689
894.552	19845
894.674	19738
894.796	19491
894.918	19613
895.04	19514
895.161	19639
895.283	19715
895.405	19643
895.526	19635
895.648	19662
895.769	19662
895.891	19677
896.012	19662
896.134	19784
896.255	19715
896.376	19586
896.498	19681
896.619	19655
896.74	19567
896.861	19643
896.982	20012
897.103	20050
897.224	19909
897.345	19894
897.466	19753
897.587	19906
897.708	19982
897.828	19723
897.949	19830
898.07	19628
898.19	19868
898.311	19883
898.431	19818
898.552	19852
898.672	19974
898.792	20016
898.913	19955
899.033	19753
899.153	19746
899.273	19499
899.393	19616
899.513	19643
899.633	19662
899.753	19620
899.873	19556
899.993	19616
900.113	19506
900.232	19529
900.352	19434
900.472	19392
900.591	19384
900.711	19396
900.83	19350
900.95	19480
901.069	19495
901.189	19225
901.308	19057
901.427	18996
901.546	18954
901.665	19038
901.784	19019
901.904	18901
902.023	18821
902.141	18635
902.26	18563
902.379	18650
902.498	18563
902.617	18525
902.735	18532
902.854	18490
902.973	18361
903.091	18254
903.21	18144
903.328	18102
903.446	18098
903.565	18026
903.683	18003
903.801	17885
903.919	17999
904.038	17920
904.156	17687
904.274	17783
904.392	17790
904.51	17707
904.627	17809
904.745	17726
904.863	17904
904.981	17665
905.098	17425
905.216	17436
905.334	17486
905.451	17471
905.569	17395
905.686	17547
905.803	17501
905.921	17212
906.038	17334
906.155	17254
906.272	17151
906.389	17235
906.506	16980
906.623	17006
906.74	16904
906.857	16885
906.974	16961
907.091	17029
907.208	17098
907.324	17056
907.441	16934
907.557	16607
907.674	16733
907.79	16580
907.907	16649
908.023	16790
908.139	16698
908.256	16694
908.372	16611
908.488	16516
908.604	16474
908.72	16436
908.836	16386
908.952	16379
909.068	16470
909.184	16565
909.3	16459
909.415	16493
909.531	16390
909.647	16219
909.762	16249
909.878	16128
909.993	16086
910.108	16128
910.224	16017
910.339	16143
910.454	16010
910.57	16006
910.685	15903
910.8	16128
910.915	16207
911.03	15800
911.145	15785
911.259	15705
911.374	15789
911.489	15641
911.604	15587
911.718	15477
911.833	15538
911.947	15420
912.062	15374
912.176	15538
912.291	15553
912.405	15587
912.519	15648
912.633	15614
912.748	15568
912.862	15431
912.976	15351
913.09	15138
913.204	15294
913.318	15348
913.431	15439
913.545	15348
913.659	15355
913.772	15317
913.886	15135
914	15108
914.113	15123
914.226	15275
914.34	15116
914.453	15081
914.566	15089
914.68	14994
914.793	14986
914.906	14834
915.019	14785
915.132	14644
915.245	14746
915.358	14750
915.47	14796
915.583	14689
915.696	14697
915.809	14853
915.921	14883
916.034	14689
916.146	14613
916.259	14636
916.371	14743
916.483	14632
916.595	14568
916.708	14552
916.82	14587
916.932	14492
917.044	14511
917.156	14480
917.268	14343
917.38	14427
917.491	14336
917.603	14370
917.715	14476
917.826	14434
917.938	14381
918.049	14221
918.161	14328
918.272	14450
918.384	14518
918.495	14221
918.606	14123
918.717	14103
918.828	14229
918.939	14252
919.05	14077
919.161	14153
919.272	13894
919.383	14035
919.494	14142
919.604	14370
919.715	14142
919.826	14088
919.936	14054
920.047	14240
920.157	14187
920.267	14282
920.378	14153
920.488	14168
920.598	14237
920.708	14423
920.818	14210
920.928	14362
921.038	14442
921.148	14400
921.258	14130
921.368	14005
921.477	13947
921.587	13921
921.697	13693
921.806	13955
921.916	13814
922.025	13582
922.134	13499
922.244	13514
922.353	13563
922.462	13434
922.571	13381
922.68	13213
922.789	13213
922.898	13232
923.007	13187
923.116	13156
923.224	13206
923.333	13057
923.442	13019
923.55	12973
923.659	13088
923.767	13129
923.876	12966
923.984	12977
924.092	12962
924.201	12985
924.309	12962
924.417	12817
924.525	12806
924.633	12920
924.741	13772
924.849	12654
924.956	12730
925.064	12684
925.172	12509
925.279	12498
925.387	12635
925.494	12585
925.602	12730
925.709	12673
925.816	12445
925.924	12585
926.031	12631
926.138	12540
926.245	12639
926.352	12437
926.459	12608
926.566	12604
926.673	12490
926.779	12395
926.886	12403
926.993	12270
927.099	12266
927.206	12102
927.312	12098
927.419	12258
927.525	12220
927.631	12304
927.737	12144
927.843	12003
927.95	11984
928.056	12087
928.162	12106
928.267	12022
928.373	12513
928.479	12091
928.585	11851
928.69	11992
928.796	12015
928.901	11931
929.007	11745
929.112	11935
929.218	11764
929.323	11866
929.428	11722
929.533	11893
929.638	11665
929.743	11672
929.848	11756
929.953	11691
930.058	11585
930.163	11471
930.267	11429
930.372	11642
930.477	11368
930.581	11573
930.685	11573
930.79	11280
930.894	11334
930.998	11334
931.103	11471
931.207	11105
931.311	10987
931.415	11006
931.519	10725
931.623	10763
