Data from test_V78500241_592.txt Node
Date: Fri Mar 25 15:13:58 CST 2022
User: usil
Spectrometer: V785-0024
Trigger mode: 0
Integration Time (sec): 4.000000E-1
Scans to average: 1
Nonlinearity correction enabled: false
Boxcar width: 0
Storing dark spectrum: false
XAxis mode: Wavelengths
Number of Pixels in Spectrum: 1024
>>>>>Begin Spectral Data<<<<<
801.071	27526
801.214	27507
801.356	27241
801.499	27268
801.641	27116
801.783	27009
801.926	27127
802.068	27032
802.211	26948
802.353	26887
802.496	26796
802.638	26663
802.78	26762
802.923	26674
803.065	26651
803.208	26674
803.35	26663
803.492	26731
803.635	26746
803.777	26739
803.919	26872
804.061	27135
804.204	26739
804.346	26838
804.488	26743
804.63	26758
804.773	26727
804.915	26899
805.057	26944
805.199	26857
805.341	26960
805.483	26963
805.626	26925
805.768	26937
805.91	26895
806.052	26910
806.194	26982
806.336	27214
806.478	27081
806.62	26906
806.762	27070
806.904	27275
807.046	27469
807.188	27538
807.33	27477
807.472	27481
807.614	27401
807.756	27458
807.898	27249
808.04	27116
808.182	27260
808.324	27146
808.465	27252
808.607	27408
808.749	27614
808.891	27686
809.033	27656
809.174	27884
809.316	27587
809.458	27629
809.6	27580
809.741	27774
809.883	27736
810.025	27987
810.166	27781
810.308	27899
810.45	27816
810.591	27854
810.733	27808
810.875	27553
811.016	27454
811.158	27564
811.299	27633
811.441	27831
811.582	27717
811.724	27644
811.865	27610
812.007	27530
812.148	27481
812.29	27599
812.431	27842
812.573	28021
812.714	28059
812.855	28223
812.997	28303
813.138	28295
813.279	28462
813.421	28207
813.562	28105
813.703	27918
813.845	27941
813.986	27454
814.127	27340
814.268	27283
814.41	27443
814.551	27279
814.692	27275
814.833	27317
814.974	27169
815.115	27233
815.256	27138
815.397	27093
815.539	27214
815.68	27032
815.821	27047
815.962	27066
816.103	26982
816.244	27032
816.385	26853
816.526	26849
816.666	26857
816.807	26587
816.948	26644
817.089	26815
817.23	26746
817.371	26655
817.512	26568
817.653	26545
817.793	26434
817.934	26571
818.075	26663
818.216	26552
818.356	26609
818.497	26495
818.638	26324
818.778	26374
818.919	26393
819.06	26381
819.2	26412
819.341	26556
819.481	26434
819.622	26636
819.762	26925
819.903	26636
820.043	26800
820.184	26727
820.324	26689
820.465	26667
820.605	26621
820.746	26644
820.886	26636
821.026	26632
821.167	26655
821.307	26693
821.447	26549
821.588	26480
821.728	26370
821.868	26153
822.008	26103
822.149	26142
822.289	25963
822.429	25875
822.569	25761
822.709	25765
822.849	25529
822.99	25586
823.13	25521
823.27	25468
823.41	25464
823.55	25232
823.69	25388
823.83	25434
823.97	25266
824.11	25137
824.25	25152
824.389	25175
824.529	25354
824.669	25179
824.809	25304
824.949	25168
825.089	25304
825.228	25381
825.368	25008
825.508	25046
825.648	25110
825.787	25107
825.927	25141
826.067	25080
826.206	25270
826.346	25122
826.485	25156
826.625	25133
826.765	25164
826.904	25137
827.044	24852
827.183	24977
827.323	24783
827.462	24798
827.601	24738
827.741	24787
827.88	24894
828.02	24707
828.159	24734
828.298	24852
828.437	24901
828.577	24688
828.716	24890
828.855	24829
828.994	24448
829.134	24513
829.273	24582
829.412	24631
829.551	24407
829.69	24483
829.829	24578
829.968	24582
830.107	24585
830.246	24486
830.385	24395
830.524	24445
830.663	24471
830.802	24388
830.941	24155
831.08	24083
831.219	24171
831.357	24350
831.496	24441
831.635	24064
831.774	24068
831.913	24068
832.051	24057
832.19	23961
832.329	23863
832.467	23847
832.606	23794
832.744	23767
832.883	23980
833.022	23832
833.16	23904
833.299	23920
833.437	23931
833.576	23946
833.714	23912
833.852	23889
833.991	23988
834.129	23954
834.267	23946
834.406	23855
834.544	23893
834.682	23863
834.821	23798
834.959	24117
835.097	23885
835.235	23855
835.373	23805
835.511	23737
835.65	23642
835.788	23748
835.926	23558
836.064	23410
836.202	23486
836.34	23756
836.478	23783
836.615	23786
836.753	23646
836.891	23756
837.029	23680
837.167	23646
837.305	23623
837.443	23627
837.58	23726
837.718	23699
837.856	23634
837.993	23493
838.131	23459
838.269	23345
838.406	23402
838.544	23414
838.681	23239
838.819	23113
838.956	23094
839.094	23189
839.231	23033
839.369	23200
839.506	23512
839.643	23318
839.781	23025
839.918	23014
840.055	23003
840.193	22854
840.33	22976
840.467	22957
840.604	22930
840.742	23124
840.879	22896
841.016	22885
841.153	22869
841.29	22972
841.427	22873
841.564	23094
841.701	22968
841.838	22881
841.975	22858
842.112	22911
842.249	22748
842.385	22748
842.522	22778
842.659	22729
842.796	22721
842.933	22736
843.069	22679
843.206	22626
843.343	22816
843.479	22694
843.616	22615
843.752	22512
843.889	22554
844.025	22645
844.162	22500
844.298	22508
844.435	22447
844.571	22516
844.708	22440
844.844	22641
844.98	22577
845.117	22550
845.253	22493
845.389	22462
845.525	22402
845.661	22348
845.798	22257
845.934	22265
846.07	22150
846.206	22124
846.342	22375
846.478	22112
846.614	22135
846.75	21869
846.886	21960
847.022	21941
847.158	21922
847.294	21854
847.429	22002
847.565	21968
847.701	22215
847.837	21652
847.972	21667
848.108	21671
848.244	21732
848.379	21606
848.515	21595
848.65	21572
848.786	21469
848.921	21572
849.057	21564
849.192	21671
849.328	21534
849.463	21603
849.598	21408
849.734	21523
849.869	21367
850.004	21302
850.14	21374
850.275	21386
850.41	21119
850.545	21218
850.68	21237
850.815	21355
850.95	21275
851.085	21458
851.22	21405
851.355	21233
851.49	21237
851.625	21329
851.76	21264
851.895	21146
852.03	21192
852.165	21230
852.299	21260
852.434	21420
852.569	21367
852.703	21313
852.838	21355
852.973	21389
853.107	21386
853.242	21325
853.376	21195
853.511	21032
853.645	21043
853.78	21207
853.914	21161
854.048	21176
854.183	21161
854.317	21150
854.451	21420
854.585	21161
854.72	21127
854.854	21302
854.988	20948
855.122	21043
855.256	21154
855.39	21005
855.524	21043
855.658	21142
855.792	21218
855.926	21184
856.06	21188
856.194	21226
856.327	21070
856.461	21123
856.595	21135
856.729	21123
856.862	21268
856.996	21173
857.13	21176
857.263	21291
857.397	21135
857.53	21062
857.664	21104
857.797	21218
857.931	21165
858.064	21188
858.197	21291
858.331	21085
858.464	20979
858.597	20937
858.731	21112
858.864	21142
858.997	21108
859.13	21009
859.263	21146
859.396	21241
859.529	21058
859.662	21108
859.795	21074
859.928	21119
860.061	21393
860.194	21275
860.327	21169
860.46	21085
860.592	21344
860.725	21233
860.858	21401
860.99	21173
861.123	21096
861.256	21081
861.388	21237
861.521	21922
861.653	21043
861.786	20868
861.918	20902
862.05	20990
862.183	21055
862.315	21017
862.447	21081
862.58	21005
862.712	20910
862.844	20807
862.976	20982
863.108	20937
863.24	21348
863.372	20739
863.504	20781
863.636	20815
863.768	20891
863.9	20849
864.032	20853
864.164	20830
864.296	20804
864.428	21020
864.559	20944
864.691	20929
864.823	20861
864.954	20880
865.086	20765
865.217	20796
865.349	20758
865.48	20636
865.612	20792
865.743	20914
865.875	20758
866.006	20644
866.137	20712
866.269	20629
866.4	20792
866.531	20693
866.662	20629
866.793	20537
866.924	20697
867.055	20720
867.186	20743
867.317	20678
867.448	20564
867.579	20511
867.71	20648
867.841	20617
867.972	20743
868.103	20625
868.233	20739
868.364	20689
868.495	20735
868.625	20952
868.756	20956
868.886	20807
869.017	20906
869.147	21055
869.278	21001
869.408	20975
869.539	21020
869.669	20963
869.799	20963
869.929	20941
870.06	20975
870.19	21214
870.32	21294
870.45	21195
870.58	21325
870.71	21450
870.84	21424
870.97	21329
871.1	21363
871.23	21568
871.36	21492
871.489	21321
871.619	21370
871.749	21488
871.879	21557
872.008	21671
872.138	21462
872.267	21439
872.397	21424
872.526	21401
872.656	21355
872.785	21359
872.915	21549
873.044	21610
873.173	21428
873.303	21496
873.432	21682
873.561	21671
873.69	21458
873.819	21526
873.948	21580
874.077	21568
874.206	21534
874.335	21420
874.464	21637
874.593	21812
874.722	21663
874.851	21739
874.979	21846
875.108	21800
875.237	21618
875.365	21641
875.494	21846
875.623	21838
875.751	21759
875.88	21781
876.008	21918
876.136	21865
876.265	22143
876.393	22337
876.521	22268
876.65	22166
876.778	22017
876.906	22143
877.034	22093
877.162	22082
877.29	22086
877.418	22204
877.546	22131
877.674	21941
877.802	22120
877.93	22185
878.058	22048
878.185	22032
878.313	22109
878.441	22055
878.568	21892
878.696	21998
878.824	22169
878.951	22139
879.079	22215
879.206	22417
879.333	22268
879.461	22090
879.588	22147
879.715	22226
879.842	22280
879.97	22169
880.097	21804
880.224	21922
880.351	21975
880.478	22025
880.605	21934
880.732	21937
880.859	22192
880.986	22021
881.112	21918
881.239	21857
881.366	21751
881.493	21538
881.619	21458
881.746	21530
881.872	21454
881.999	21504
882.125	21504
882.252	21629
882.378	21603
882.505	21462
882.631	21401
882.757	21214
882.883	21237
883.01	21260
883.136	21108
883.262	21131
883.388	21017
883.514	21195
883.64	21249
883.766	21188
883.892	20982
884.018	21055
884.143	21157
884.269	21195
884.395	20876
884.52	20933
884.646	20823
884.772	20758
884.897	20636
885.023	21043
885.148	20864
885.274	21032
885.399	21020
885.524	20872
885.65	20838
885.775	20777
885.9	20895
886.025	20906
886.15	20876
886.275	20815
886.4	20765
886.525	20708
886.65	20804
886.775	20724
886.9	20918
887.025	20990
887.149	20796
887.274	20663
887.399	20545
887.523	20530
887.648	20556
887.773	20617
887.897	20686
888.021	20674
888.146	20579
888.27	20682
888.395	20769
888.519	20552
888.643	20594
888.767	20583
888.891	20514
889.015	20446
889.139	20507
889.263	20389
889.387	20514
889.511	20655
889.635	20514
889.759	20431
889.883	20419
890.006	20347
890.13	20613
890.254	20366
890.377	20400
890.501	20298
890.624	20248
890.748	20275
890.871	20103
890.995	19970
891.118	20031
891.241	20027
891.364	19928
891.488	20149
891.611	19932
891.734	19856
891.857	20027
891.98	19989
892.103	19993
892.226	19970
892.349	19959
892.471	19776
892.594	19890
892.717	19928
892.839	19928
892.962	19925
893.085	19875
893.207	19925
893.33	19864
893.452	19833
893.575	19799
893.697	19906
893.819	20210
893.941	20065
894.064	20039
894.186	19879
894.308	19883
894.43	20008
894.552	19974
894.674	19921
894.796	19883
894.918	19772
895.04	19841
895.161	20001
895.283	20020
895.405	19822
895.526	19932
895.648	19917
895.769	19887
895.891	19791
896.012	20039
896.134	19936
896.255	19928
896.376	19814
896.498	19932
896.619	19849
896.74	19879
896.861	19955
896.982	20347
897.103	20396
897.224	20195
897.345	20290
897.466	20046
897.587	20195
897.708	20298
897.828	20122
897.949	19951
898.07	19928
898.19	20035
898.311	20225
898.431	20016
898.552	20077
898.672	20195
898.792	20103
898.913	20157
899.033	20035
899.153	19944
899.273	19757
899.393	19974
899.513	19898
899.633	19909
899.753	19951
899.873	19761
899.993	19906
900.113	19769
900.232	19799
900.352	19746
900.472	19807
900.591	19597
900.711	19761
900.83	19643
900.95	19856
901.069	19738
901.189	19544
901.308	19377
901.427	19312
901.546	19331
901.665	19358
901.784	19301
901.904	19080
902.023	19023
902.141	18924
902.26	18722
902.379	18928
902.498	18669
902.617	18719
902.735	18760
902.854	18677
902.973	18604
903.091	18384
903.21	18437
903.328	18475
903.446	18346
903.565	18254
903.683	18266
903.801	18114
903.919	18167
904.038	18133
904.156	18148
904.274	18079
904.392	18038
904.51	17885
904.627	18019
904.745	18015
904.863	18182
904.981	17794
905.098	17729
905.216	17600
905.334	17756
905.451	17581
905.569	17703
905.686	17726
905.803	17745
905.921	17478
906.038	17604
906.155	17509
906.272	17391
906.389	17353
906.506	17216
906.623	17254
906.74	17330
906.857	17033
906.974	17162
907.091	17273
907.208	17223
907.324	17265
907.441	17132
907.557	17052
907.674	17029
907.79	16900
907.907	16900
908.023	16930
908.139	16866
908.256	16835
908.372	16919
908.488	16736
908.604	16649
908.72	16588
908.836	16561
908.952	16550
909.068	16774
909.184	16748
909.3	16607
909.415	16691
909.531	16618
909.647	16519
909.762	16284
909.878	16363
909.993	16421
910.108	16371
910.224	16337
910.339	16306
910.454	16265
910.57	16188
910.685	16169
910.8	16424
910.915	16276
911.03	16139
911.145	15960
911.259	15972
911.374	15873
911.489	15888
911.604	15785
911.718	15720
911.833	15755
911.947	15652
912.062	15576
912.176	15747
912.291	15732
912.405	15641
912.519	15827
912.633	15911
912.748	15686
912.862	15614
912.976	15606
913.09	15363
913.204	15477
913.318	15568
913.431	15663
913.545	15584
913.659	15572
913.772	15485
913.886	15359
914	15302
914.113	15363
914.226	15485
914.34	15363
914.453	15291
914.566	15405
914.68	15207
914.793	15207
914.906	15001
915.019	14948
915.132	14853
915.245	14918
915.358	15013
915.47	14899
915.583	15005
915.696	14960
915.809	14971
915.921	15066
916.034	14929
916.146	14769
916.259	14788
916.371	14883
916.483	14815
916.595	14765
916.708	14746
916.82	14826
916.932	14754
917.044	14823
917.156	14606
917.268	14632
917.38	14522
917.491	14613
917.603	14568
917.715	14682
917.826	14648
917.938	14587
918.049	14499
918.161	14632
918.272	14564
918.384	14674
918.495	14617
918.606	14396
918.717	14294
918.828	14404
918.939	14362
919.05	14195
919.161	14191
919.272	14187
919.383	14229
919.494	14408
919.604	14533
919.715	14324
919.826	14256
919.936	14393
920.047	14419
920.157	14259
920.267	14545
920.378	14370
920.488	14328
920.598	14457
920.708	14606
920.818	14450
920.928	14488
921.038	14590
921.148	14545
921.258	14278
921.368	14138
921.477	14092
921.587	14039
921.697	13959
921.806	14134
921.916	14001
922.025	13879
922.134	13632
922.244	13670
922.353	13727
922.462	13594
922.571	13499
922.68	13460
922.789	13362
922.898	13350
923.007	13304
923.116	13369
923.224	13301
923.333	13384
923.442	13190
923.55	13194
923.659	13183
923.767	13316
923.876	13152
923.984	13228
924.092	13080
924.201	13152
924.309	13046
924.417	13255
924.525	13023
924.633	13050
924.741	13772
924.849	12871
924.956	12993
925.064	12848
925.172	12833
925.279	12768
925.387	12795
925.494	12707
925.602	12890
925.709	12783
925.816	12795
925.924	12745
926.031	12848
926.138	12601
926.245	12711
926.352	12616
926.459	12760
926.566	12764
926.673	12604
926.779	12391
926.886	12517
926.993	12445
927.099	12422
927.206	12308
927.312	12292
927.419	12391
927.525	12330
927.631	12369
927.737	12228
927.843	12273
927.95	12167
928.056	12201
928.162	12197
928.267	12194
928.373	12905
928.479	12296
928.585	12049
928.69	12148
928.796	12117
928.901	12064
929.007	11889
929.112	12076
929.218	12068
929.323	11958
929.428	11897
929.533	12049
929.638	11843
929.743	11901
929.848	11904
929.953	11843
930.058	11767
930.163	11619
930.267	11726
930.372	11748
930.477	11558
930.581	11745
930.685	11615
930.79	11493
930.894	11528
930.998	11444
931.103	11585
931.207	11250
931.311	11258
931.415	11151
931.519	10892
931.623	10869
