Data from test_V78500241_509.txt Node
Date: Fri Mar 25 15:13:24 CST 2022
User: usil
Spectrometer: V785-0024
Trigger mode: 0
Integration Time (sec): 4.000000E-1
Scans to average: 1
Nonlinearity correction enabled: false
Boxcar width: 0
Storing dark spectrum: false
XAxis mode: Wavelengths
Number of Pixels in Spectrum: 1024
>>>>>Begin Spectral Data<<<<<
801.071	27420
801.214	27313
801.356	27123
801.499	27127
801.641	26929
801.783	26940
801.926	26921
802.068	26880
802.211	26735
802.353	26868
802.496	26568
802.638	26606
802.78	26598
802.923	26480
803.065	26461
803.208	26560
803.35	26590
803.492	26678
803.635	26781
803.777	26743
803.919	26868
804.061	27013
804.204	26880
804.346	26613
804.488	26689
804.63	26762
804.773	26613
804.915	26750
805.057	26819
805.199	26807
805.341	26960
805.483	26944
805.626	26963
805.768	26815
805.91	26716
806.052	26785
806.194	26758
806.336	26967
806.478	26940
806.62	26853
806.762	27055
806.904	26982
807.046	27268
807.188	27275
807.33	27427
807.472	27431
807.614	27096
807.756	27184
807.898	27036
808.04	27055
808.182	27013
808.324	27013
808.465	27131
808.607	27245
808.749	27599
808.891	27549
809.033	27561
809.174	27412
809.316	27675
809.458	27485
809.6	27427
809.741	27511
809.883	27743
810.025	27808
810.166	27732
810.308	27880
810.45	27812
810.591	27766
810.733	27545
810.875	27412
811.016	27317
811.158	27329
811.299	27564
811.441	27686
811.582	27663
811.724	27447
811.865	27462
812.007	27443
812.148	27313
812.29	27572
812.431	27599
812.573	27641
812.714	27827
812.855	27994
812.997	28143
813.138	28226
813.279	28147
813.421	28044
813.562	28017
813.703	27934
813.845	27797
813.986	27439
814.127	27412
814.268	27195
814.41	27074
814.551	27032
814.692	27135
814.833	27089
814.974	26975
815.115	27043
815.256	27066
815.397	27013
815.539	27123
815.68	26982
815.821	26880
815.962	26971
816.103	26853
816.244	26667
816.385	26811
816.526	26644
816.666	26552
816.807	26381
816.948	26469
817.089	26526
817.23	26564
817.371	26571
817.512	26370
817.653	26336
817.793	26362
817.934	26415
818.075	26366
818.216	26351
818.356	26374
818.497	26282
818.638	26183
818.778	26126
818.919	26362
819.06	26202
819.2	26229
819.341	26412
819.481	26442
819.622	26648
819.762	26724
819.903	26625
820.043	26606
820.184	26495
820.324	26552
820.465	26583
820.605	26503
820.746	26434
820.886	26362
821.026	26629
821.167	26412
821.307	26609
821.447	26461
821.588	26263
821.728	26317
821.868	26138
822.008	25955
822.149	25795
822.289	25833
822.429	25605
822.569	25590
822.709	25647
822.849	25430
822.99	25540
823.13	25373
823.27	25396
823.41	25202
823.55	25095
823.69	25202
823.83	25038
823.97	25202
824.11	25019
824.25	24966
824.389	24996
824.529	24989
824.669	25004
824.809	25122
824.949	24924
825.089	25164
825.228	25038
825.368	24779
825.508	25023
825.648	24909
825.787	24958
825.927	24970
826.067	24996
826.206	24939
826.346	24901
826.485	24920
826.625	24875
826.765	25019
826.904	24726
827.044	24555
827.183	24642
827.323	24719
827.462	24661
827.601	24631
827.741	24696
827.88	24692
828.02	24570
828.159	24589
828.298	24623
828.437	24578
828.577	24608
828.716	24665
828.855	24528
828.994	24289
829.134	24342
829.273	24315
829.412	24247
829.551	24182
829.69	24346
829.829	24258
829.968	24391
830.107	24277
830.246	24273
830.385	24308
830.524	24311
830.663	24182
830.802	24163
830.941	23973
831.08	23912
831.219	23988
831.357	23988
831.496	24216
831.635	23931
831.774	23794
831.913	23783
832.051	23741
832.19	23741
832.329	23794
832.467	23695
832.606	23486
832.744	23585
832.883	23714
833.022	23516
833.16	23870
833.299	23729
833.437	23695
833.576	23642
833.714	23592
833.852	23783
833.991	23821
834.129	23783
834.267	23817
834.406	23729
834.544	23779
834.682	23684
834.821	23524
834.959	23889
835.097	23539
835.235	23737
835.373	23589
835.511	23695
835.65	23596
835.788	23630
835.926	23433
836.064	23425
836.202	23474
836.34	23539
836.478	23634
836.615	23467
836.753	23490
836.891	23623
837.029	23501
837.167	23509
837.305	23509
837.443	23452
837.58	23334
837.718	23387
837.856	23349
837.993	23345
838.131	23364
838.269	23174
838.406	23124
838.544	23143
838.681	23166
838.819	22991
838.956	22816
839.094	22923
839.231	22862
839.369	23006
839.506	23170
839.643	23159
839.781	22843
839.918	22866
840.055	22843
840.193	22835
840.33	22805
840.467	22733
840.604	22854
840.742	23003
840.879	22752
841.016	22634
841.153	22645
841.29	22790
841.427	22717
841.564	22805
841.701	22809
841.838	22927
841.975	22748
842.112	22668
842.249	22634
842.385	22500
842.522	22782
842.659	22580
842.796	22485
842.933	22557
843.069	22580
843.206	22474
843.343	22668
843.479	22409
843.616	22535
843.752	22268
843.889	22246
844.025	22489
844.162	22295
844.298	22478
844.435	22386
844.571	22253
844.708	22390
844.844	22508
844.98	22519
845.117	22360
845.253	22371
845.389	22230
845.525	22169
845.661	22215
845.798	22090
845.934	22124
846.07	21960
846.206	22109
846.342	22268
846.478	21991
846.614	21880
846.75	21755
846.886	21808
847.022	21880
847.158	21743
847.294	21808
847.429	21842
847.565	21663
847.701	22032
847.837	21538
847.972	21534
848.108	21671
848.244	21576
848.379	21614
848.515	21260
848.65	21344
848.786	21412
848.921	21416
849.057	21450
849.192	21492
849.328	21530
849.463	21291
849.598	21367
849.734	21302
849.869	21237
850.004	21157
850.14	21264
850.275	21192
850.41	21142
850.545	20975
850.68	21123
850.815	21321
850.95	21108
851.085	21389
851.22	21336
851.355	21085
851.49	21142
851.625	21135
851.76	21241
851.895	21074
852.03	21039
852.165	21142
852.299	21195
852.434	21150
852.569	21165
852.703	21116
852.838	21203
852.973	21112
853.107	21211
853.242	21062
853.376	21043
853.511	20765
853.645	21001
853.78	21108
853.914	20998
854.048	20941
854.183	20937
854.317	20971
854.451	21089
854.585	20956
854.72	21020
854.854	21051
854.988	20883
855.122	21013
855.256	20876
855.39	21096
855.524	21081
855.658	20910
855.792	20994
855.926	20895
856.06	20895
856.194	21138
856.327	20925
856.461	20834
856.595	20937
856.729	20937
856.862	21013
856.996	20994
857.13	20960
857.263	21070
857.397	21093
857.53	21028
857.664	20929
857.797	21047
857.931	21116
858.064	20998
858.197	21093
858.331	20963
858.464	20868
858.597	20807
858.731	21001
858.864	20967
858.997	20899
859.13	20956
859.263	21013
859.396	21119
859.529	20929
859.662	20861
859.795	20918
859.928	20842
860.061	20990
860.194	21214
860.327	20876
860.46	20845
860.592	21081
860.725	21108
860.858	21119
860.99	20872
861.123	20948
861.256	21005
861.388	21043
861.521	21732
861.653	20819
861.786	20750
861.918	20781
862.05	20849
862.183	20925
862.315	20887
862.447	20838
862.58	20982
862.712	20632
862.844	20583
862.976	20739
863.108	20804
863.24	20914
863.372	20583
863.504	20674
863.636	20659
863.768	20743
863.9	20689
864.032	20560
864.164	20621
864.296	20689
864.428	20785
864.559	20716
864.691	20777
864.823	20758
864.954	20697
865.086	20819
865.217	20575
865.349	20434
865.48	20640
865.612	20507
865.743	20705
865.875	20606
866.006	20587
866.137	20541
866.269	20575
866.4	20537
866.531	20609
866.662	20495
866.793	20503
866.924	20492
867.055	20492
867.186	20549
867.317	20499
867.448	20374
867.579	20423
867.71	20541
867.841	20492
867.972	20514
868.103	20385
868.233	20473
868.364	20511
868.495	20583
868.625	20686
868.756	20876
868.886	20689
869.017	20708
869.147	20899
869.278	20861
869.408	20811
869.539	20769
869.669	20891
869.799	20781
869.929	20857
870.06	20948
870.19	21154
870.32	21104
870.45	21085
870.58	21138
870.71	21173
870.84	21287
870.97	21146
871.1	21165
871.23	21252
871.36	21519
871.489	21214
871.619	21260
871.749	21359
871.879	21302
872.008	21500
872.138	21424
872.267	21393
872.397	21237
872.526	21199
872.656	21154
872.785	21207
872.915	21405
873.044	21389
873.173	21450
873.303	21405
873.432	21473
873.561	21496
873.69	21351
873.819	21340
873.948	21462
874.077	21492
874.206	21329
874.335	21439
874.464	21576
874.593	21629
874.722	21629
874.851	21644
874.979	21618
875.108	21625
875.237	21538
875.365	21576
875.494	21519
875.623	21675
875.751	21538
875.88	21637
876.008	21633
876.136	21819
876.265	22051
876.393	22173
876.521	22002
876.65	22093
876.778	21991
876.906	21953
877.034	21983
877.162	21915
877.29	21937
877.418	22032
877.546	22032
877.674	22044
877.802	22040
877.93	22032
878.058	21934
878.185	21915
878.313	22029
878.441	21846
878.568	21816
878.696	21972
878.824	21865
878.951	22158
879.079	22166
879.206	22367
879.333	22158
879.461	21899
879.588	22059
879.715	22109
879.842	22226
879.97	22055
880.097	21766
880.224	21823
880.351	21838
880.478	21846
880.605	21770
880.732	21854
880.859	22154
880.986	21793
881.112	21941
881.239	21713
881.366	21492
881.493	21458
881.619	21408
881.746	21393
881.872	21351
881.999	21291
882.125	21351
882.252	21344
882.378	21351
882.505	21378
882.631	21214
882.757	21199
882.883	21161
883.01	21100
883.136	21089
883.262	20998
883.388	20864
883.514	21116
883.64	21062
883.766	20979
883.892	20834
884.018	20845
884.143	21066
884.269	21089
884.395	20864
884.52	20705
884.646	20804
884.772	20617
884.897	20625
885.023	20754
885.148	20670
885.274	20925
885.399	20792
885.524	20651
885.65	20720
885.775	20777
885.9	20632
886.025	20739
886.15	20910
886.275	20667
886.4	20629
886.525	20754
886.65	20682
886.775	20765
886.9	20887
887.025	20952
887.149	20667
887.274	20526
887.399	20492
887.523	20434
887.648	20636
887.773	20495
887.897	20556
888.021	20644
888.146	20419
888.27	20663
888.395	20693
888.519	20549
888.643	20530
888.767	20583
888.891	20473
889.015	20294
889.139	20324
889.263	20153
889.387	20488
889.511	20537
889.635	20423
889.759	20358
889.883	20282
890.006	20343
890.13	20347
890.254	20298
890.377	20278
890.501	20016
890.624	20077
890.748	20046
890.871	19890
890.995	19852
891.118	19993
891.241	19879
891.364	19890
891.488	20024
891.611	19871
891.734	20035
891.857	19947
891.98	19814
892.103	19906
892.226	19833
892.349	19852
892.471	19586
892.594	19788
892.717	19803
892.839	19845
892.962	19803
893.085	19822
893.207	19822
893.33	19757
893.452	19757
893.575	19921
893.697	19814
893.819	19894
893.941	20043
894.064	20001
894.186	19761
894.308	19578
894.43	19841
894.552	19974
894.674	19856
894.796	19780
894.918	19727
895.04	19723
895.161	19868
895.283	19883
895.405	19723
895.526	19761
895.648	19852
895.769	19852
895.891	19898
896.012	19750
896.134	19826
896.255	19803
896.376	19723
896.498	19871
896.619	19845
896.74	19818
896.861	19852
896.982	20111
897.103	20229
897.224	20145
897.345	20005
897.466	19932
897.587	19978
897.708	20122
897.828	20092
897.949	19932
898.07	19849
898.19	19864
898.311	20206
898.431	20020
898.552	20058
898.672	20107
898.792	20111
898.913	20046
899.033	19902
899.153	19788
899.273	19655
899.393	19791
899.513	19753
899.633	19723
899.753	19826
899.873	19715
899.993	19693
900.113	19719
900.232	19769
900.352	19696
900.472	19594
900.591	19506
900.711	19643
900.83	19468
900.95	19746
901.069	19605
901.189	19453
901.308	19293
901.427	19187
901.546	19137
901.665	19179
901.784	19160
901.904	19015
902.023	18913
902.141	18711
902.26	18772
902.379	18779
902.498	18650
902.617	18517
902.735	18806
902.854	18631
902.973	18620
903.091	18410
903.21	18292
903.328	18281
903.446	18258
903.565	18129
903.683	18144
903.801	17988
903.919	18155
904.038	18091
904.156	17946
904.274	17992
904.392	17851
904.51	17779
904.627	17855
904.745	18003
904.863	17999
904.981	17657
905.098	17577
905.216	17520
905.334	17695
905.451	17634
905.569	17649
905.686	17627
905.803	17642
905.921	17379
906.038	17509
906.155	17497
906.272	17337
906.389	17284
906.506	17254
906.623	17208
906.74	17140
906.857	17159
906.974	17033
907.091	17200
907.208	17265
907.324	17121
907.441	16968
907.557	16915
907.674	16900
907.79	16790
907.907	16805
908.023	16930
908.139	16862
908.256	16858
908.372	16668
908.488	16713
908.604	16653
908.72	16538
908.836	16637
908.952	16519
909.068	16611
909.184	16733
909.3	16596
909.415	16573
909.531	16565
909.647	16314
909.762	16257
909.878	16280
909.993	16363
910.108	16280
910.224	16219
910.339	16329
910.454	16162
910.57	16169
910.685	16029
910.8	16246
910.915	16226
911.03	16185
911.145	15850
911.259	15953
911.374	15876
911.489	15781
911.604	15850
911.718	15686
911.833	15625
911.947	15568
912.062	15443
912.176	15686
912.291	15663
912.405	15633
912.519	15785
912.633	15747
912.748	15633
912.862	15606
912.976	15443
913.09	15222
913.204	15313
913.318	15466
913.431	15488
913.545	15545
913.659	15454
913.772	15428
913.886	15249
914	15218
914.113	15401
914.226	15302
914.34	15302
914.453	15028
914.566	15230
914.68	15116
914.793	15036
914.906	15024
915.019	14842
915.132	14861
915.245	14883
915.358	14933
915.47	14834
915.583	14910
915.696	14895
915.809	14895
915.921	14952
916.034	14842
916.146	14788
916.259	14777
916.371	14804
916.483	14785
916.595	14724
916.708	14655
916.82	14674
916.932	14712
917.044	14617
917.156	14606
917.268	14511
917.38	14625
917.491	14526
917.603	14545
917.715	14613
917.826	14564
917.938	14469
918.049	14275
918.161	14556
918.272	14549
918.384	14590
918.495	14461
918.606	14298
918.717	14180
918.828	14351
918.939	14351
919.05	14214
919.161	14324
919.272	14039
919.383	14142
919.494	14336
919.604	14492
919.715	14267
919.826	14069
919.936	14244
920.047	14408
920.157	14202
920.267	14457
920.378	14301
920.488	14225
920.598	14473
920.708	14598
920.818	14385
920.928	14366
921.038	14461
921.148	14480
921.258	14149
921.368	14142
921.477	14081
921.587	14065
921.697	13856
921.806	14024
921.916	13978
922.025	13723
922.134	13712
922.244	13651
922.353	13601
922.462	13468
922.571	13518
922.68	13316
922.789	13266
922.898	13392
923.007	13236
923.116	13331
923.224	13316
923.333	13206
923.442	13107
923.55	13160
923.659	13232
923.767	13225
923.876	13107
923.984	13183
924.092	13012
924.201	13065
924.309	13069
924.417	13057
924.525	12954
924.633	12897
924.741	13784
924.849	12760
924.956	12875
925.064	12825
925.172	12589
925.279	12654
925.387	12825
925.494	12700
925.602	12783
925.709	12894
925.816	12620
925.924	12654
926.031	12696
926.138	12700
926.245	12779
926.352	12551
926.459	12719
926.566	12791
926.673	12547
926.779	12506
926.886	12494
926.993	12285
927.099	12330
927.206	12258
927.312	12281
927.419	12380
927.525	12350
927.631	12281
927.737	12239
927.843	12155
927.95	12049
928.056	12186
928.162	12106
928.267	12163
928.373	12684
928.479	12311
928.585	11950
928.69	12034
928.796	12087
928.901	11992
929.007	11779
929.112	11969
929.218	11988
929.323	11836
929.428	11863
929.533	11954
929.638	11786
929.743	11836
929.848	11798
929.953	11836
930.058	11729
930.163	11608
930.267	11547
930.372	11672
930.477	11501
930.581	11745
930.685	11604
930.79	11436
930.894	11486
930.998	11455
931.103	11589
931.207	11216
931.311	11075
931.415	11010
931.519	10858
931.623	10816
