Data from test_V78500241_489.txt Node
Date: Fri Mar 25 15:13:15 CST 2022
User: usil
Spectrometer: V785-0024
Trigger mode: 0
Integration Time (sec): 4.000000E-1
Scans to average: 1
Nonlinearity correction enabled: false
Boxcar width: 0
Storing dark spectrum: false
XAxis mode: Wavelengths
Number of Pixels in Spectrum: 1024
>>>>>Begin Spectral Data<<<<<
801.071	27549
801.214	27435
801.356	27230
801.499	27119
801.641	27051
801.783	26975
801.926	27165
802.068	27043
802.211	26963
802.353	26811
802.496	26655
802.638	26686
802.78	26887
802.923	26598
803.065	26640
803.208	26667
803.35	26629
803.492	26686
803.635	26746
803.777	26800
803.919	26853
804.061	27085
804.204	26861
804.346	26758
804.488	26724
804.63	26895
804.773	26773
804.915	26785
805.057	27009
805.199	26845
805.341	27001
805.483	27028
805.626	26864
805.768	27020
805.91	27024
806.052	27020
806.194	26853
806.336	27192
806.478	27154
806.62	27013
806.762	27108
806.904	27214
807.046	27450
807.188	27473
807.33	27485
807.472	27606
807.614	27256
807.756	27294
807.898	27306
808.04	27081
808.182	27214
808.324	27386
808.465	27260
808.607	27511
808.749	27401
808.891	27690
809.033	27846
809.174	27667
809.316	27530
809.458	27542
809.6	27709
809.741	27739
809.883	27762
810.025	27857
810.166	27876
810.308	28006
810.45	27827
810.591	27922
810.733	27648
810.875	27610
811.016	27564
811.158	27500
811.299	27728
811.441	27736
811.582	27816
811.724	27447
811.865	27530
812.007	27587
812.148	27534
812.29	27606
812.431	27698
812.573	28013
812.714	28154
812.855	28097
812.997	28211
813.138	28325
813.279	28188
813.421	28185
813.562	28173
813.703	27895
813.845	27819
813.986	27523
814.127	27389
814.268	27214
814.41	27207
814.551	27233
814.692	27397
814.833	27283
814.974	27249
815.115	27332
815.256	27214
815.397	27131
815.539	27218
815.68	26906
815.821	26986
815.962	27043
816.103	27055
816.244	26861
816.385	26929
816.526	26842
816.666	26727
816.807	26526
816.948	26564
817.089	26678
817.23	26621
817.371	26678
817.512	26564
817.653	26511
817.793	26465
817.934	26670
818.075	26541
818.216	26575
818.356	26571
818.497	26431
818.638	26240
818.778	26343
818.919	26267
819.06	26339
819.2	26549
819.341	26492
819.481	26549
819.622	26678
819.762	26910
819.903	26735
820.043	26678
820.184	26727
820.324	26670
820.465	26655
820.605	26655
820.746	26674
820.886	26495
821.026	26644
821.167	26549
821.307	26701
821.447	26476
821.588	26419
821.728	26248
821.868	26092
822.008	26088
822.149	25906
822.289	26035
822.429	25761
822.569	25658
822.709	25677
822.849	25510
822.99	25479
823.13	25514
823.27	25453
823.41	25358
823.55	25282
823.69	25343
823.83	25282
823.97	25293
824.11	25145
824.25	25065
824.389	25175
824.529	25251
824.669	25141
824.809	25346
824.949	25278
825.089	25324
825.228	25255
825.368	24970
825.508	24958
825.648	24894
825.787	25053
825.927	25042
826.067	24981
826.206	24848
826.346	25133
826.485	25141
826.625	24913
826.765	25065
826.904	25008
827.044	24852
827.183	24806
827.323	24757
827.462	24829
827.601	24871
827.741	24677
827.88	24779
828.02	24601
828.159	24528
828.298	24939
828.437	24833
828.577	24559
828.716	24840
828.855	24627
828.994	24365
829.134	24521
829.273	24696
829.412	24429
829.551	24418
829.69	24380
829.829	24578
829.968	24403
830.107	24551
830.246	24426
830.385	24323
830.524	24292
830.663	24163
830.802	24114
830.941	24034
831.08	24068
831.219	24167
831.357	24041
831.496	24292
831.635	24018
831.774	23988
831.913	23904
832.051	23798
832.19	23942
832.329	23874
832.467	23855
832.606	23783
832.744	23783
832.883	23885
833.022	23676
833.16	23764
833.299	23851
833.437	23729
833.576	23817
833.714	23821
833.852	23855
833.991	23885
834.129	23893
834.267	23901
834.406	23908
834.544	23737
834.682	23802
834.821	23920
834.959	23977
835.097	23737
835.235	23863
835.373	23866
835.511	23847
835.65	23775
835.788	23729
835.926	23585
836.064	23535
836.202	23512
836.34	23722
836.478	23718
836.615	23771
836.753	23676
836.891	23870
837.029	23703
837.167	23501
837.305	23596
837.443	23570
837.58	23512
837.718	23649
837.856	23596
837.993	23463
838.131	23528
838.269	23337
838.406	23429
838.544	23398
838.681	23288
838.819	23231
838.956	23014
839.094	23098
839.231	23014
839.369	23128
839.506	23429
839.643	23246
839.781	22923
839.918	22953
840.055	22896
840.193	22904
840.33	22892
840.467	22976
840.604	23105
840.742	23136
840.879	22866
841.016	22858
841.153	22767
841.29	23060
841.427	22972
841.564	23010
841.701	22976
841.838	22869
841.975	22755
842.112	22972
842.249	22763
842.385	22664
842.522	22809
842.659	22774
842.796	22713
842.933	22687
843.069	22694
843.206	22713
843.343	22702
843.479	22713
843.616	22630
843.752	22523
843.889	22405
844.025	22634
844.162	22356
844.298	22607
844.435	22535
844.571	22527
844.708	22523
844.844	22577
844.98	22596
845.117	22596
845.253	22455
845.389	22417
845.525	22451
845.661	22310
845.798	22188
845.934	22181
846.07	22169
846.206	22356
846.342	22344
846.478	22192
846.614	22097
846.75	21876
846.886	21869
847.022	21991
847.158	21915
847.294	22017
847.429	22010
847.565	21918
847.701	22124
847.837	21785
847.972	21568
848.108	21736
848.244	21701
848.379	21595
848.515	21519
848.65	21477
848.786	21507
848.921	21519
849.057	21736
849.192	21671
849.328	21458
849.463	21610
849.598	21412
849.734	21359
849.869	21355
850.004	21237
850.14	21336
850.275	21214
850.41	21230
850.545	21081
850.68	21298
850.815	21405
850.95	21340
851.085	21511
851.22	21439
851.355	21370
851.49	21386
851.625	21233
851.76	21195
851.895	21119
852.03	21165
852.165	21241
852.299	21317
852.434	21344
852.569	21275
852.703	21241
852.838	21397
852.973	21500
853.107	21515
853.242	21329
853.376	21142
853.511	21020
853.645	21036
853.78	21176
853.914	21157
854.048	20967
854.183	21009
854.317	21123
854.451	21310
854.585	21138
854.72	21116
854.854	21237
854.988	21028
855.122	21066
855.256	20986
855.39	21043
855.524	21157
855.658	21157
855.792	20967
855.926	21108
856.06	21036
856.194	21165
856.327	21131
856.461	21096
856.595	21005
856.729	21089
856.862	21203
856.996	21127
857.13	21237
857.263	21230
857.397	21256
857.53	21039
857.664	21142
857.797	21351
857.931	21317
858.064	21100
858.197	21306
858.331	21157
858.464	21116
858.597	21055
858.731	21093
858.864	21005
858.997	21005
859.13	21066
859.263	21150
859.396	21116
859.529	21138
859.662	21100
859.795	21116
859.928	21070
860.061	21283
860.194	21424
860.327	21207
860.46	21199
860.592	21268
860.725	21207
860.858	21176
860.99	21180
861.123	21150
861.256	21062
861.388	21127
861.521	21755
861.653	20975
861.786	20941
861.918	20921
862.05	20918
862.183	21085
862.315	21066
862.447	21062
862.58	21116
862.712	20777
862.844	20762
862.976	20910
863.108	20933
863.24	21100
863.372	20765
863.504	20849
863.636	20933
863.768	20861
863.9	20792
864.032	20724
864.164	20800
864.296	20853
864.428	20937
864.559	20842
864.691	20910
864.823	20902
864.954	20868
865.086	20758
865.217	20708
865.349	20568
865.48	20636
865.612	20880
865.743	20883
865.875	20758
866.006	20644
866.137	20819
866.269	20651
866.4	20659
866.531	20636
866.662	20609
866.793	20587
866.924	20686
867.055	20598
867.186	20724
867.317	20537
867.448	20712
867.579	20530
867.71	20507
867.841	20560
867.972	20678
868.103	20644
868.233	20682
868.364	20731
868.495	20644
868.625	20906
868.756	21051
868.886	20731
869.017	20861
869.147	20990
869.278	20899
869.408	20929
869.539	20929
869.669	20967
869.799	20899
869.929	21116
870.06	21096
870.19	21241
870.32	21233
870.45	21157
870.58	21245
870.71	21336
870.84	21408
870.97	21317
871.1	21279
871.23	21526
871.36	21473
871.489	21329
871.619	21507
871.749	21447
871.879	21542
872.008	21481
872.138	21519
872.267	21542
872.397	21252
872.526	21336
872.656	21355
872.785	21412
872.915	21610
873.044	21583
873.173	21507
873.303	21568
873.432	21599
873.561	21576
873.69	21534
873.819	21561
873.948	21618
874.077	21485
874.206	21332
874.335	21583
874.464	21644
874.593	21793
874.722	21732
874.851	21633
874.979	21819
875.108	21751
875.237	21641
875.365	21633
875.494	21705
875.623	21766
875.751	21633
875.88	21850
876.008	21861
876.136	21983
876.265	22029
876.393	22223
876.521	22238
876.65	22238
876.778	22105
876.906	22032
877.034	22013
877.162	22093
877.29	22006
877.418	21922
877.546	22070
877.674	22131
877.802	22150
877.93	21991
878.058	22112
878.185	22055
878.313	21960
878.441	22101
878.568	21884
878.696	22002
878.824	22192
878.951	22090
879.079	22318
879.206	22360
879.333	22268
879.461	22169
879.588	22246
879.715	22291
879.842	22398
879.97	22120
880.097	21827
880.224	21778
880.351	21994
880.478	21899
880.605	21838
880.732	21922
880.859	22128
880.986	21884
881.112	21873
881.239	21854
881.366	21663
881.493	21564
881.619	21469
881.746	21504
881.872	21504
881.999	21523
882.125	21462
882.252	21507
882.378	21473
882.505	21564
882.631	21336
882.757	21214
882.883	21370
883.01	21264
883.136	21081
883.262	21020
883.388	21112
883.514	21245
883.64	21302
883.766	21173
883.892	20910
884.018	21093
884.143	21165
884.269	21252
884.395	20956
884.52	20826
884.646	20891
884.772	20754
884.897	20746
885.023	20804
885.148	21055
885.274	20902
885.399	20868
885.524	20670
885.65	20853
885.775	20838
885.9	20773
886.025	20880
886.15	20754
886.275	20762
886.4	20739
886.525	20705
886.65	20777
886.775	20762
886.9	20887
887.025	21017
887.149	20842
887.274	20674
887.399	20583
887.523	20644
887.648	20617
887.773	20606
887.897	20724
888.021	20640
888.146	20518
888.27	20625
888.395	20682
888.519	20583
888.643	20568
888.767	20648
888.891	20549
889.015	20476
889.139	20469
889.263	20358
889.387	20514
889.511	20686
889.635	20533
889.759	20374
889.883	20423
890.006	20396
890.13	20442
890.254	20339
890.377	20275
890.501	20122
890.624	20054
890.748	20164
890.871	20020
890.995	19963
891.118	19986
891.241	19887
891.364	20016
891.488	20191
891.611	19963
891.734	19951
891.857	20100
891.98	19925
892.103	20115
892.226	19978
892.349	19959
892.471	19765
892.594	19947
892.717	20081
892.839	19928
892.962	19898
893.085	19986
893.207	19970
893.33	19693
893.452	19811
893.575	19837
893.697	19837
893.819	20138
893.941	20024
894.064	19909
894.186	19833
894.308	19856
894.43	19906
894.552	20073
894.674	19982
894.796	19723
894.918	19807
895.04	19807
895.161	19928
895.283	19837
895.405	19788
895.526	19936
895.648	19883
895.769	19913
895.891	19818
896.012	19951
896.134	19868
896.255	19849
896.376	19982
896.498	19959
896.619	19944
896.74	19982
896.861	19982
896.982	20282
897.103	20259
897.224	20142
897.345	20195
897.466	20008
897.587	20122
897.708	20164
897.828	20225
897.949	20119
898.07	19871
898.19	20008
898.311	20229
898.431	20046
898.552	20168
898.672	20199
898.792	20221
898.913	20043
899.033	20092
899.153	19970
899.273	19765
899.393	19822
899.513	19883
899.633	19788
899.753	19841
899.873	19868
899.993	19894
900.113	19753
900.232	19738
900.352	19818
900.472	19734
900.591	19620
900.711	19658
900.83	19658
900.95	19757
901.069	19742
901.189	19537
901.308	19175
901.427	19236
901.546	19335
901.665	19209
901.784	19282
901.904	19118
902.023	19034
902.141	18734
902.26	18806
902.379	18795
902.498	18745
902.617	18719
902.735	18791
902.854	18745
902.973	18791
903.091	18467
903.21	18426
903.328	18410
903.446	18327
903.565	18186
903.683	18228
903.801	18163
903.919	18323
904.038	18049
904.156	17973
904.274	18034
904.392	17961
904.51	17954
904.627	17920
904.745	18064
904.863	17969
904.981	17843
905.098	17646
905.216	17657
905.334	17661
905.451	17687
905.569	17684
905.686	17676
905.803	17585
905.921	17459
906.038	17505
906.155	17486
906.272	17436
906.389	17379
906.506	17121
906.623	17242
906.74	17223
906.857	17022
906.974	17067
907.091	17311
907.208	17296
907.324	17242
907.441	17136
907.557	16976
907.674	16957
907.79	16980
907.907	16934
908.023	16923
908.139	16946
908.256	16862
908.372	16843
908.488	16740
908.604	16558
908.72	16622
908.836	16767
908.952	16599
909.068	16592
909.184	16748
909.3	16691
909.415	16645
909.531	16569
909.647	16443
909.762	16382
909.878	16337
909.993	16409
910.108	16280
910.224	16329
910.339	16295
910.454	16196
910.57	16268
910.685	16196
910.8	16382
910.915	16341
911.03	16082
911.145	15934
911.259	15956
911.374	15987
911.489	15873
911.604	15823
911.718	15675
911.833	15736
911.947	15576
912.062	15500
912.176	15694
912.291	15648
912.405	15671
912.519	15823
912.633	15895
912.748	15762
912.862	15599
912.976	15481
913.09	15412
913.204	15477
913.318	15530
913.431	15561
913.545	15698
913.659	15557
913.772	15458
913.886	15294
914	15245
914.113	15283
914.226	15336
914.34	15424
914.453	15268
914.566	15332
914.68	15237
914.793	15146
914.906	14971
915.019	14963
915.132	14853
915.245	14941
915.358	15024
915.47	14887
915.583	14929
915.696	15005
915.809	15017
915.921	15089
916.034	14929
916.146	14872
916.259	14800
916.371	14853
916.483	14895
916.595	14708
916.708	14804
916.82	14743
916.932	14765
917.044	14682
917.156	14640
917.268	14606
917.38	14663
917.491	14594
917.603	14518
917.715	14689
917.826	14701
917.938	14503
918.049	14419
918.161	14503
918.272	14640
918.384	14629
918.495	14431
918.606	14385
918.717	14244
918.828	14339
918.939	14423
919.05	14278
919.161	14358
919.272	14145
919.383	14126
919.494	14450
919.604	14583
919.715	14336
919.826	14294
919.936	14191
920.047	14343
920.157	14355
920.267	14465
920.378	14336
920.488	14290
920.598	14457
920.708	14663
920.818	14438
920.928	14381
921.038	14556
921.148	14568
921.258	14237
921.368	14180
921.477	14035
921.587	14027
921.697	13936
921.806	14027
921.916	13860
922.025	13780
922.134	13632
922.244	13632
922.353	13723
922.462	13586
922.571	13529
922.68	13377
922.789	13304
922.898	13324
923.007	13316
923.116	13304
923.224	13297
923.333	13320
923.442	13194
923.55	13194
923.659	13160
923.767	13206
923.876	13091
923.984	13320
924.092	13069
924.201	13209
924.309	13103
924.417	13114
924.525	13000
924.633	12977
924.741	13913
924.849	12753
924.956	12996
925.064	12817
925.172	12814
925.279	12757
925.387	12863
925.494	12681
925.602	12932
925.709	12810
925.816	12734
925.924	12764
926.031	12825
926.138	12749
926.245	12745
926.352	12589
926.459	12787
926.566	12791
926.673	12601
926.779	12555
926.886	12509
926.993	12388
927.099	12369
927.206	12334
927.312	12369
927.419	12410
927.525	12346
927.631	12395
927.737	12216
927.843	12163
927.95	12110
928.056	12148
928.162	12254
928.267	12216
928.373	12741
928.479	12205
928.585	12003
928.69	12098
928.796	12155
928.901	12041
929.007	11859
929.112	12053
929.218	11942
929.323	11980
929.428	11931
929.533	12064
929.638	11847
929.743	11847
929.848	11916
929.953	11863
930.058	11680
930.163	11573
930.267	11634
930.372	11809
930.477	11581
930.581	11843
930.685	11608
930.79	11581
930.894	11493
930.998	11410
931.103	11524
931.207	11322
931.311	11117
931.415	11117
931.519	10816
931.623	10892
