Data from test_V78500241_769.txt Node
Date: Fri Mar 25 15:15:12 CST 2022
User: usil
Spectrometer: V785-0024
Trigger mode: 0
Integration Time (sec): 4.000000E-1
Scans to average: 1
Nonlinearity correction enabled: false
Boxcar width: 0
Storing dark spectrum: false
XAxis mode: Wavelengths
Number of Pixels in Spectrum: 1024
>>>>>Begin Spectral Data<<<<<
801.071	27983
801.214	28040
801.356	27800
801.499	27736
801.641	27679
801.783	27530
801.926	27652
802.068	27583
802.211	27488
802.353	27424
802.496	27260
802.638	27081
802.78	27306
802.923	27233
803.065	27256
803.208	27329
803.35	27310
803.492	27351
803.635	27427
803.777	27348
803.919	27542
804.061	27698
804.204	27488
804.346	27454
804.488	27370
804.63	27492
804.773	27355
804.915	27488
805.057	27530
805.199	27424
805.341	27542
805.483	27747
805.626	27618
805.768	27500
805.91	27561
806.052	27542
806.194	27450
806.336	27895
806.478	27709
806.62	27724
806.762	27804
806.904	27964
807.046	28196
807.188	28097
807.33	28051
807.472	28154
807.614	27937
807.756	28082
807.898	27975
808.04	27876
808.182	27949
808.324	27922
808.465	27907
808.607	28048
808.749	28238
808.891	28341
809.033	28405
809.174	28440
809.316	28325
809.458	28181
809.6	28242
809.741	28451
809.883	28421
810.025	28531
810.166	28653
810.308	28546
810.45	28580
810.591	28470
810.733	28314
810.875	28192
811.016	28162
811.158	28147
811.299	28135
811.441	28466
811.582	28478
811.724	28295
811.865	28234
812.007	28253
812.148	28314
812.29	28337
812.431	28382
812.573	28634
812.714	28683
812.855	28786
812.997	29064
813.138	29006
813.279	28961
813.421	28877
813.562	28869
813.703	28763
813.845	28653
813.986	28356
814.127	28093
814.268	27987
814.41	27975
814.551	27903
814.692	28109
814.833	27960
814.974	28070
815.115	28090
815.256	27785
815.397	27823
815.539	27975
815.68	27835
815.821	27850
815.962	27823
816.103	27911
816.244	27785
816.385	27610
816.526	27420
816.666	27393
816.807	27256
816.948	27287
817.089	27401
817.23	27374
817.371	27287
817.512	27329
817.653	27389
817.793	27188
817.934	27325
818.075	27370
818.216	27462
818.356	27367
818.497	27378
818.638	27070
818.778	27055
818.919	27085
819.06	27135
819.2	27154
819.341	27287
819.481	27161
819.622	27481
819.762	27625
819.903	27603
820.043	27507
820.184	27397
820.324	27313
820.465	27401
820.605	27450
820.746	27572
820.886	27351
821.026	27363
821.167	27294
821.307	27420
821.447	27431
821.588	27283
821.728	26948
821.868	26872
822.008	26849
822.149	26663
822.289	26811
822.429	26545
822.569	26530
822.709	26507
822.849	26244
822.99	26282
823.13	26107
823.27	26233
823.41	26221
823.55	26027
823.69	26122
823.83	26214
823.97	26069
824.11	25864
824.25	25856
824.389	25849
824.529	26130
824.669	25959
824.809	25928
824.949	26077
825.089	26092
825.228	25982
825.368	25860
825.508	25776
825.648	25788
825.787	25868
825.927	25860
826.067	25719
826.206	25753
826.346	25902
826.485	25940
826.625	25822
826.765	25856
826.904	25959
827.044	25571
827.183	25590
827.323	25533
827.462	25620
827.601	25696
827.741	25419
827.88	25556
828.02	25472
828.159	25582
828.298	25578
828.437	25563
828.577	25373
828.716	25833
828.855	25586
828.994	25221
829.134	25266
829.273	25377
829.412	25343
829.551	25088
829.69	25202
829.829	25282
829.968	25339
830.107	25282
830.246	25221
830.385	25183
830.524	25118
830.663	25145
830.802	25107
830.941	24863
831.08	24783
831.219	24924
831.357	24996
831.496	25019
831.635	24970
831.774	24810
831.913	24715
832.051	24673
832.19	24681
832.329	24627
832.467	24642
832.606	24574
832.744	24399
832.883	24719
833.022	24536
833.16	24498
833.299	24620
833.437	24726
833.576	24574
833.714	24768
833.852	24684
833.991	24703
834.129	24730
834.267	24711
834.406	24494
834.544	24490
834.682	24700
834.821	24665
834.959	24829
835.097	24665
835.235	24635
835.373	24566
835.511	24483
835.65	24521
835.788	24410
835.926	24254
836.064	24220
836.202	24372
836.34	24361
836.478	24631
836.615	24418
836.753	24399
836.891	24517
837.029	24388
837.167	24380
837.305	24266
837.443	24304
837.58	24239
837.718	24270
837.856	24262
837.993	24372
838.131	24220
838.269	24117
838.406	24087
838.544	24167
838.681	23912
838.819	23958
838.956	23802
839.094	23649
839.231	23703
839.369	23786
839.506	24178
839.643	23908
839.781	23703
839.918	23539
840.055	23710
840.193	23623
840.33	23764
840.467	23649
840.604	23748
840.742	23965
840.879	23524
841.016	23531
841.153	23482
841.29	23623
841.427	23741
841.564	23729
841.701	23729
841.838	23596
841.975	23608
842.112	23474
842.249	23433
842.385	23410
842.522	23440
842.659	23414
842.796	23356
842.933	23280
843.069	23258
843.206	23334
843.343	23402
843.479	23235
843.616	23303
843.752	23140
843.889	23181
844.025	23277
844.162	23147
844.298	23280
844.435	23109
844.571	23136
844.708	23105
844.844	23406
844.98	23246
845.117	23280
845.253	23109
845.389	23010
845.525	23105
845.661	23022
845.798	22987
845.934	22911
846.07	22976
846.206	22930
846.342	22976
846.478	22942
846.614	22752
846.75	22573
846.886	22656
847.022	22733
847.158	22615
847.294	22535
847.429	22664
847.565	22759
847.701	22782
847.837	22257
847.972	22303
848.108	22519
848.244	22257
848.379	22211
848.515	22295
848.65	22181
848.786	22166
848.921	22329
849.057	22280
849.192	22375
849.328	22322
849.463	22230
849.598	22147
849.734	22207
849.869	21956
850.004	22040
850.14	21975
850.275	22013
850.41	21945
850.545	21854
850.68	21975
850.815	21956
850.95	21975
851.085	22025
851.22	22093
851.355	22029
851.49	21975
851.625	21907
851.76	21922
851.895	21972
852.03	21903
852.165	22067
852.299	21998
852.434	22086
852.569	21945
852.703	21994
852.838	22105
852.973	22021
853.107	21964
853.242	21873
853.376	21861
853.511	21751
853.645	21739
853.78	21850
853.914	21915
854.048	21819
854.183	21895
854.317	21873
854.451	22044
854.585	21732
854.72	21641
854.854	21732
854.988	21736
855.122	21838
855.256	21717
855.39	21838
855.524	21831
855.658	21728
855.792	21793
855.926	21816
856.06	21922
856.194	21930
856.327	21800
856.461	21762
856.595	21660
856.729	21770
856.862	21759
856.996	21930
857.13	21736
857.263	21953
857.397	21888
857.53	21865
857.664	21717
857.797	21918
857.931	21934
858.064	21854
858.197	21823
858.331	21793
858.464	21808
858.597	21606
858.731	21759
858.864	21739
858.997	21637
859.13	21709
859.263	21854
859.396	21899
859.529	21720
859.662	21755
859.795	21850
859.928	21846
860.061	21892
860.194	22013
860.327	21793
860.46	21857
860.592	21968
860.725	21915
860.858	21934
860.99	21747
861.123	21679
861.256	21701
861.388	21698
861.521	22443
861.653	21663
861.786	21564
861.918	21580
862.05	21660
862.183	21698
862.315	21648
862.447	21747
862.58	21709
862.712	21625
862.844	21462
862.976	21538
863.108	21515
863.24	21979
863.372	21389
863.504	21424
863.636	21405
863.768	21534
863.9	21610
864.032	21431
864.164	21568
864.296	21466
864.428	21637
864.559	21610
864.691	21614
864.823	21587
864.954	21389
865.086	21408
865.217	21401
865.349	21447
865.48	21408
865.612	21389
865.743	21420
865.875	21382
866.006	21458
866.137	21386
866.269	21428
866.4	21386
866.531	21389
866.662	21268
866.793	21268
866.924	21298
867.055	21241
867.186	21325
867.317	21176
867.448	21184
867.579	21310
867.71	21260
867.841	21264
867.972	21188
868.103	21325
868.233	21313
868.364	21241
868.495	21344
868.625	21469
868.756	21583
868.886	21443
869.017	21485
869.147	21724
869.278	21793
869.408	21641
869.539	21454
869.669	21587
869.799	21587
869.929	21743
870.06	21629
870.19	21880
870.32	21816
870.45	21808
870.58	21934
870.71	21964
870.84	21972
870.97	21937
871.1	22017
871.23	22002
871.36	22139
871.489	22040
871.619	22044
871.749	22150
871.879	22128
872.008	22379
872.138	22196
872.267	22162
872.397	21975
872.526	21755
872.656	22135
872.785	22029
872.915	22120
873.044	22181
873.173	22238
873.303	22188
873.432	22276
873.561	22234
873.69	22143
873.819	22173
873.948	22249
874.077	22219
874.206	22059
874.335	22093
874.464	22272
874.593	22382
874.722	22261
874.851	22455
874.979	22512
875.108	22508
875.237	22325
875.365	22223
875.494	22436
875.623	22299
875.751	22363
875.88	22398
876.008	22451
876.136	22516
876.265	22713
876.393	22949
876.521	22839
876.65	22854
876.778	22748
876.906	22691
877.034	22637
877.162	22843
877.29	22596
877.418	22752
877.546	22786
877.674	22721
877.802	22698
877.93	22687
878.058	22675
878.185	22485
878.313	22630
878.441	22687
878.568	22493
878.696	22683
878.824	22812
878.951	22809
879.079	22831
879.206	22965
879.333	22900
879.461	22786
879.588	22816
879.715	22896
879.842	23075
879.97	22725
880.097	22615
880.224	22622
880.351	22573
880.478	22512
880.605	22478
880.732	22443
880.859	22812
880.986	22611
881.112	22527
881.239	22405
881.366	22219
881.493	22207
881.619	22067
881.746	22090
881.872	22010
881.999	22093
882.125	21979
882.252	22158
882.378	22078
882.505	22139
882.631	21960
882.757	21789
882.883	21842
883.01	21819
883.136	21671
883.262	21739
883.388	21583
883.514	21854
883.64	21975
883.766	21793
883.892	21515
884.018	21595
884.143	21728
884.269	21705
884.395	21492
884.52	21488
884.646	21469
884.772	21412
884.897	21336
885.023	21306
885.148	21496
885.274	21523
885.399	21591
885.524	21408
885.65	21435
885.775	21447
885.9	21317
886.025	21526
886.15	21485
886.275	21351
886.4	21359
886.525	21386
886.65	21374
886.775	21294
886.9	21466
887.025	21534
887.149	21412
887.274	21275
887.399	21302
887.523	21214
887.648	21154
887.773	21112
887.897	21363
888.021	21291
888.146	21184
888.27	21317
888.395	21199
888.519	21264
888.643	21260
888.767	21268
888.891	21093
889.015	21005
889.139	21108
889.263	20895
889.387	21127
889.511	21188
889.635	21165
889.759	21028
889.883	21024
890.006	21024
890.13	21062
890.254	20880
890.377	20849
890.501	20644
890.624	20705
890.748	20746
890.871	20549
890.995	20545
891.118	20503
891.241	20594
891.364	20514
891.488	20807
891.611	20499
891.734	20594
891.857	20473
891.98	20568
892.103	20587
892.226	20560
892.349	20609
892.471	20286
892.594	20351
892.717	20454
892.839	20431
892.962	20492
893.085	20621
893.207	20457
893.33	20294
893.452	20400
893.575	20636
893.697	20434
893.819	20518
893.941	20568
894.064	20598
894.186	20385
894.308	20415
894.43	20434
894.552	20507
894.674	20495
894.796	20336
894.918	20419
895.04	20511
895.161	20499
895.283	20446
895.405	20309
895.526	20404
895.648	20343
895.769	20381
895.891	20427
896.012	20503
896.134	20469
896.255	20385
896.376	20381
896.498	20400
896.619	20351
896.74	20400
896.861	20537
896.982	20705
897.103	20941
897.224	20765
897.345	20670
897.466	20469
897.587	20724
897.708	20663
897.828	20632
897.949	20511
898.07	20568
898.19	20564
898.311	20739
898.431	20549
898.552	20621
898.672	20697
898.792	20617
898.913	20667
899.033	20545
899.153	20492
899.273	20267
899.393	20351
899.513	20465
899.633	20454
899.753	20442
899.873	20237
899.993	20324
900.113	20377
900.232	20278
900.352	20328
900.472	20202
900.591	20088
900.711	20233
900.83	20100
900.95	20168
901.069	20176
901.189	20142
901.308	19738
901.427	19750
901.546	19712
901.665	19845
901.784	19738
901.904	19681
902.023	19525
902.141	19403
902.26	19320
902.379	19438
902.498	19247
902.617	19137
902.735	19316
902.854	19362
902.973	19217
903.091	18985
903.21	18905
903.328	18989
903.446	18829
903.565	18859
903.683	18757
903.801	18544
903.919	18677
904.038	18711
904.156	18483
904.274	18578
904.392	18471
904.51	18403
904.627	18532
904.745	18589
904.863	18604
904.981	18346
905.098	18174
905.216	18232
905.334	18235
905.451	18155
905.569	18102
905.686	18228
905.803	18114
905.921	17923
906.038	18102
906.155	18068
906.272	17748
906.389	17889
906.506	17691
906.623	17828
906.74	17676
906.857	17554
906.974	17520
907.091	17695
907.208	17771
907.324	17737
907.441	17490
907.557	17414
907.674	17448
907.79	17292
907.907	17368
908.023	17402
908.139	17429
908.256	17421
908.372	17330
908.488	17284
908.604	17170
908.72	17136
908.836	17155
908.952	17094
909.068	17136
909.184	17212
909.3	17162
909.415	17174
909.531	17029
909.647	16858
909.762	16793
909.878	16877
909.993	16881
910.108	16892
910.224	16694
910.339	16790
910.454	16740
910.57	16668
910.685	16577
910.8	16839
910.915	16733
911.03	16561
911.145	16390
911.259	16379
911.374	16360
911.489	16280
911.604	16272
911.718	16166
911.833	16139
911.947	15949
912.062	15930
912.176	16143
912.291	16177
912.405	16204
912.519	16341
912.633	16329
912.748	16067
912.862	16025
912.976	15937
913.09	15808
913.204	15888
913.318	16040
913.431	16055
913.545	16074
913.659	16029
913.772	15865
913.886	15816
914	15736
914.113	15816
914.226	15941
914.34	15739
914.453	15717
914.566	15876
914.68	15831
914.793	15641
914.906	15515
915.019	15408
915.132	15199
915.245	15370
915.358	15397
915.47	15450
915.583	15405
915.696	15329
915.809	15511
915.921	15504
916.034	15374
916.146	15344
916.259	15214
916.371	15332
916.483	15313
916.595	15233
916.708	15154
916.82	15165
916.932	15047
917.044	15233
917.156	15154
917.268	14963
917.38	14952
917.491	14979
917.603	15036
917.715	15047
917.826	15161
917.938	14925
918.049	14952
918.161	14895
918.272	14986
918.384	15020
918.495	15020
918.606	14705
918.717	14617
918.828	14838
918.939	14762
919.05	14769
919.161	14750
919.272	14560
919.383	14689
919.494	14739
919.604	14895
919.715	14743
919.826	14590
919.936	14655
920.047	14727
920.157	14750
920.267	14880
920.378	14743
920.488	14743
920.598	14948
920.708	15017
920.818	14861
920.928	14842
921.038	15036
921.148	14986
921.258	14625
921.368	14575
921.477	14400
921.587	14522
921.697	14336
921.806	14431
921.916	14259
922.025	14103
922.134	14252
922.244	14073
922.353	14088
922.462	14008
922.571	13898
922.68	13708
922.789	13757
922.898	13826
923.007	13727
923.116	13784
923.224	13712
923.333	13738
923.442	13601
923.55	13559
923.659	13601
923.767	13624
923.876	13510
923.984	13677
924.092	13426
924.201	13502
924.309	13441
924.417	13468
924.525	13373
924.633	13308
924.741	14168
924.849	13232
924.956	13327
925.064	13266
925.172	13080
925.279	13091
925.387	13225
925.494	13133
925.602	13171
925.709	13156
925.816	12973
925.924	13107
926.031	13190
926.138	13061
926.245	13129
926.352	13019
926.459	13050
926.566	13126
926.673	13019
926.779	12913
926.886	12844
926.993	12703
927.099	12715
927.206	12753
927.312	12730
927.419	12722
927.525	12654
927.631	12768
927.737	12536
927.843	12509
927.95	12494
928.056	12555
928.162	12490
928.267	12506
928.373	13179
928.479	12604
928.585	12365
928.69	12429
928.796	12513
928.901	12376
929.007	12197
929.112	12388
929.218	12395
929.323	12224
929.428	12304
929.533	12388
929.638	12209
929.743	12216
929.848	12163
929.953	12163
930.058	12114
930.163	11927
930.267	12038
930.372	12079
930.477	11897
930.581	12144
930.685	11988
930.79	11840
930.894	11874
930.998	11790
931.103	11870
931.207	11585
931.311	11474
931.415	11337
931.519	11193
931.623	11201
