Data from test_V78500241_2978.txt Node
Date: Fri Mar 25 15:30:35 CST 2022
User: usil
Spectrometer: V785-0024
Trigger mode: 0
Integration Time (sec): 4.000000E-1
Scans to average: 1
Nonlinearity correction enabled: false
Boxcar width: 0
Storing dark spectrum: false
XAxis mode: Wavelengths
Number of Pixels in Spectrum: 1024
>>>>>Begin Spectral Data<<<<<
801.071	27214
801.214	26967
801.356	26994
801.499	26868
801.641	26674
801.783	26678
801.926	26762
802.068	26663
802.211	26720
802.353	26659
802.496	26374
802.638	26511
802.78	26381
802.923	26355
803.065	26240
803.208	26278
803.35	26412
803.492	26469
803.635	26537
803.777	26484
803.919	26503
804.061	26842
804.204	26606
804.346	26473
804.488	26408
804.63	26522
804.773	26381
804.915	26446
805.057	26564
805.199	26492
805.341	26727
805.483	26678
805.626	26644
805.768	26347
805.91	26727
806.052	26731
806.194	26503
806.336	26792
806.478	26663
806.62	26625
806.762	26830
806.904	26921
807.046	27024
807.188	26975
807.33	27039
807.472	27150
807.614	27028
807.756	27085
807.898	26823
808.04	26693
808.182	26739
808.324	26937
808.465	26982
808.607	27039
808.749	27306
808.891	27386
809.033	27386
809.174	27313
809.316	27226
809.458	27222
809.6	27188
809.741	27252
809.883	27389
810.025	27641
810.166	27580
810.308	27458
810.45	27538
810.591	27332
810.733	27268
810.875	27241
811.016	27169
811.158	27051
811.299	27344
811.441	27389
811.582	27447
811.724	27108
811.865	27131
812.007	27173
812.148	27264
812.29	27249
812.431	27332
812.573	27576
812.714	27561
812.855	27606
812.997	27804
813.138	27861
813.279	27835
813.421	27857
813.562	27652
813.703	27622
813.845	27431
813.986	27195
814.127	27017
814.268	26838
814.41	26956
814.551	26937
814.692	26895
814.833	26777
814.974	26891
815.115	27001
815.256	26663
815.397	26940
815.539	26686
815.68	26682
815.821	26648
815.962	26686
816.103	26659
816.244	26579
816.385	26412
816.526	26457
816.666	26313
816.807	26138
816.948	26153
817.089	26183
817.23	26138
817.371	26187
817.512	26183
817.653	26313
817.793	26016
817.934	26237
818.075	26233
818.216	26115
818.356	26107
818.497	26084
818.638	25807
818.778	25841
818.919	25890
819.06	25826
819.2	26058
819.341	26058
819.481	26145
819.622	26358
819.762	26537
819.903	26389
820.043	26271
820.184	26347
820.324	26138
820.465	26362
820.605	26199
820.746	26111
820.886	26134
821.026	26130
821.167	26180
821.307	26259
821.447	26183
821.588	26005
821.728	25864
821.868	25795
822.008	25696
822.149	25655
822.289	25476
822.429	25289
822.569	25228
822.709	25247
822.849	25118
822.99	25145
823.13	25042
823.27	25076
823.41	24943
823.55	24757
823.69	24939
823.83	24913
823.97	24745
824.11	24677
824.25	24616
824.389	24791
824.529	24810
824.669	24722
824.809	24848
824.949	24772
825.089	24882
825.228	24715
825.368	24578
825.508	24483
825.648	24642
825.787	24559
825.927	24616
826.067	24566
826.206	24650
826.346	24700
826.485	24589
826.625	24623
826.765	24616
826.904	24582
827.044	24315
827.183	24357
827.323	24243
827.462	24342
827.601	24311
827.741	24285
827.88	24433
828.02	24133
828.159	24258
828.298	24346
828.437	24346
828.577	24216
828.716	24429
828.855	24174
828.994	24121
829.134	23996
829.273	24038
829.412	24003
829.551	23901
829.69	23859
829.829	24003
829.968	24076
830.107	24018
830.246	24015
830.385	24041
830.524	23958
830.663	23714
830.802	23665
830.941	23589
831.08	23573
831.219	23741
831.357	23611
831.496	23805
831.635	23699
831.774	23471
831.913	23436
832.051	23406
832.19	23364
832.329	23398
832.467	23360
832.606	23136
832.744	23174
832.883	23216
833.022	23280
833.16	23395
833.299	23364
833.437	23326
833.576	23273
833.714	23402
833.852	23326
833.991	23410
834.129	23387
834.267	23440
834.406	23265
834.544	23311
834.682	23337
834.821	23227
834.959	23452
835.097	23296
835.235	23280
835.373	23284
835.511	23372
835.65	23128
835.788	23181
835.926	22965
836.064	22942
836.202	22908
836.34	23189
836.478	23246
836.615	23136
836.753	23044
836.891	23239
837.029	23128
837.167	23121
837.305	23037
837.443	23064
837.58	23067
837.718	23064
837.856	22869
837.993	22942
838.131	23121
838.269	22862
838.406	22831
838.544	22946
838.681	22679
838.819	22675
838.956	22561
839.094	22451
839.231	22443
839.369	22763
839.506	22793
839.643	22801
839.781	22447
839.918	22394
840.055	22504
840.193	22523
840.33	22318
840.467	22375
840.604	22451
840.742	22744
840.879	22341
841.016	22394
841.153	22299
841.29	22447
841.427	22394
841.564	22379
841.701	22310
841.838	22329
841.975	22363
842.112	22424
842.249	22287
842.385	22219
842.522	22485
842.659	22306
842.796	22249
842.933	22124
843.069	22101
843.206	22131
843.343	22242
843.479	22196
843.616	22162
843.752	22021
843.889	21911
844.025	22063
844.162	22006
844.298	21926
844.435	21945
844.571	21892
844.708	22029
844.844	22063
844.98	22128
845.117	22082
845.253	21846
845.389	21838
845.525	21876
845.661	21667
845.798	21682
845.934	21618
846.07	21603
846.206	21717
846.342	21827
846.478	21614
846.614	21504
846.75	21435
846.886	21458
847.022	21420
847.158	21416
847.294	21344
847.429	21526
847.565	21439
847.701	21599
847.837	21195
847.972	21116
848.108	21161
848.244	21268
848.379	21150
848.515	20986
848.65	21024
848.786	20990
848.921	20967
849.057	21032
849.192	21047
849.328	21013
849.463	20956
849.598	20868
849.734	20811
849.869	20887
850.004	20689
850.14	20834
850.275	20811
850.41	20606
850.545	20689
850.68	20746
850.815	20739
850.95	20655
851.085	21032
851.22	20857
851.355	20777
851.49	20788
851.625	20712
851.76	20670
851.895	20659
852.03	20682
852.165	20895
852.299	20876
852.434	20887
852.569	20743
852.703	20758
852.838	20891
852.973	20876
853.107	20781
853.242	20765
853.376	20583
853.511	20415
853.645	20526
853.78	20594
853.914	20625
854.048	20590
854.183	20617
854.317	20522
854.451	20731
854.585	20678
854.72	20552
854.854	20743
854.988	20503
855.122	20617
855.256	20370
855.39	20533
855.524	20629
855.658	20648
855.792	20571
855.926	20674
856.06	20735
856.194	20705
856.327	20590
856.461	20503
856.595	20507
856.729	20522
856.862	20708
856.996	20583
857.13	20571
857.263	20788
857.397	20716
857.53	20533
857.664	20602
857.797	20629
857.931	20670
858.064	20678
858.197	20667
858.331	20587
858.464	20526
858.597	20556
858.731	20571
858.864	20507
858.997	20507
859.13	20537
859.263	20602
859.396	20739
859.529	20575
859.662	20488
859.795	20530
859.928	20678
860.061	20712
860.194	20739
860.327	20629
860.46	20609
860.592	20689
860.725	20644
860.858	20727
860.99	20549
861.123	20533
861.256	20507
861.388	20587
861.521	21283
861.653	20434
861.786	20339
861.918	20400
862.05	20446
862.183	20560
862.315	20571
862.447	20526
862.58	20450
862.712	20324
862.844	20248
862.976	20301
863.108	20396
863.24	20800
863.372	20248
863.504	20332
863.636	20370
863.768	20324
863.9	20294
864.032	20259
864.164	20355
864.296	20313
864.428	20404
864.559	20362
864.691	20461
864.823	20324
864.954	20259
865.086	20263
865.217	20309
865.349	20122
865.48	20275
865.612	20206
865.743	20317
865.875	20210
866.006	20107
866.137	20221
866.269	20164
866.4	20161
866.531	20134
866.662	20088
866.793	20161
866.924	20275
867.055	20317
867.186	20081
867.317	20206
867.448	20008
867.579	20176
867.71	20012
867.841	20145
867.972	20138
868.103	20180
868.233	20176
868.364	20180
868.495	20210
868.625	20427
868.756	20476
868.886	20412
869.017	20252
869.147	20571
869.278	20484
869.408	20495
869.539	20438
869.669	20442
869.799	20412
869.929	20336
870.06	20503
870.19	20712
870.32	20655
870.45	20788
870.58	20861
870.71	20933
870.84	20895
870.97	20758
871.1	20720
871.23	21104
871.36	21024
871.489	20826
871.619	20895
871.749	20967
871.879	21039
872.008	21039
872.138	20986
872.267	21066
872.397	20891
872.526	20800
872.656	20815
872.785	20712
872.915	21039
873.044	21127
873.173	21013
873.303	21051
873.432	21001
873.561	21017
873.69	21096
873.819	21047
873.948	21074
874.077	20906
874.206	20979
874.335	21100
874.464	21142
874.593	21249
874.722	21127
874.851	21325
874.979	21226
875.108	21264
875.237	21093
875.365	21157
875.494	21146
875.623	21310
875.751	21192
875.88	21279
876.008	21397
876.136	21496
876.265	21660
876.393	21800
876.521	21747
876.65	21705
876.778	21819
876.906	21557
877.034	21545
877.162	21694
877.29	21542
877.418	21583
877.546	21583
877.674	21568
877.802	21663
877.93	21625
878.058	21526
878.185	21473
878.313	21553
878.441	21549
878.568	21401
878.696	21603
878.824	21587
878.951	21637
879.079	21713
879.206	21895
879.333	21812
879.461	21606
879.588	21633
879.715	21747
879.842	21831
879.97	21652
880.097	21500
880.224	21401
880.351	21507
880.478	21466
880.605	21325
880.732	21447
880.859	21774
880.986	21496
881.112	21405
881.239	21294
881.366	21298
881.493	21100
881.619	20906
881.746	20998
881.872	21066
881.999	20998
882.125	20891
882.252	20971
882.378	21017
882.505	21127
882.631	20872
882.757	20830
882.883	20739
883.01	20807
883.136	20571
883.262	20503
883.388	20556
883.514	20746
883.64	20693
883.766	20636
883.892	20511
884.018	20545
884.143	20712
884.269	20792
884.395	20415
884.52	20385
884.646	20507
884.772	20298
884.897	20343
885.023	20358
885.148	20438
885.274	20545
885.399	20389
885.524	20370
885.65	20317
885.775	20442
885.9	20294
886.025	20480
886.15	20533
886.275	20259
886.4	20275
886.525	20366
886.65	20355
886.775	20339
886.9	20400
887.025	20583
887.149	20389
887.274	20183
887.399	20107
887.523	20157
887.648	20161
887.773	20096
887.897	20275
888.021	20210
888.146	20073
888.27	20161
888.395	20237
888.519	20221
888.643	20168
888.767	20088
888.891	20092
889.015	20001
889.139	20024
889.263	19978
889.387	20016
889.511	20168
889.635	20077
889.759	20016
889.883	19906
890.006	19909
890.13	20050
890.254	19875
890.377	19868
890.501	19757
890.624	19563
890.748	19776
890.871	19685
890.995	19407
891.118	19453
891.241	19567
891.364	19491
891.488	19620
891.611	19624
891.734	19495
891.857	19533
891.98	19556
892.103	19605
892.226	19620
892.349	19476
892.471	19365
892.594	19544
892.717	19384
892.839	19422
892.962	19537
893.085	19537
893.207	19441
893.33	19400
893.452	19339
893.575	19567
893.697	19381
893.819	19674
893.941	19727
894.064	19556
894.186	19449
894.308	19384
894.43	19552
894.552	19616
894.674	19499
894.796	19304
894.918	19529
895.04	19400
895.161	19514
895.283	19476
895.405	19472
895.526	19384
895.648	19430
895.769	19540
895.891	19533
896.012	19472
896.134	19571
896.255	19571
896.376	19377
896.498	19556
896.619	19502
896.74	19499
896.861	19556
896.982	19871
897.103	19902
897.224	19700
897.345	19731
897.466	19655
897.587	19643
897.708	19818
897.828	19685
897.949	19552
898.07	19571
898.19	19594
898.311	19795
898.431	19624
898.552	19666
898.672	19894
898.792	19799
898.913	19700
899.033	19662
899.153	19655
899.273	19346
899.393	19445
899.513	19525
899.633	19609
899.753	19468
899.873	19316
899.993	19499
900.113	19468
900.232	19388
900.352	19346
900.472	19320
900.591	19202
900.711	19259
900.83	19168
900.95	19312
901.069	19430
901.189	19152
901.308	18943
901.427	18852
901.546	18844
901.665	18962
901.784	18924
901.904	18719
902.023	18692
902.141	18391
902.26	18403
902.379	18426
902.498	18422
902.617	18380
902.735	18448
902.854	18414
902.973	18243
903.091	18079
903.21	17954
903.328	18091
903.446	18007
903.565	17767
903.683	17874
903.801	17733
903.919	17809
904.038	17836
904.156	17634
904.274	17707
904.392	17615
904.51	17630
904.627	17592
904.745	17649
904.863	17592
904.981	17524
905.098	17326
905.216	17280
905.334	17315
905.451	17265
905.569	17322
905.686	17288
905.803	17292
905.921	17235
906.038	17109
906.155	17056
906.272	16984
906.389	17067
906.506	16896
906.623	16896
906.74	16850
906.857	16729
906.974	16733
907.091	16889
907.208	16915
907.324	16896
907.441	16820
907.557	16565
907.674	16641
907.79	16588
907.907	16447
908.023	16691
908.139	16542
908.256	16516
908.372	16489
908.488	16413
908.604	16405
908.72	16322
908.836	16341
908.952	16291
909.068	16238
909.184	16432
909.3	16242
909.415	16276
909.531	16261
909.647	16048
909.762	16010
909.878	16006
909.993	15983
910.108	15983
910.224	16010
910.339	15922
910.454	15880
910.57	15789
910.685	15778
910.8	16017
910.915	15945
911.03	15774
911.145	15690
911.259	15606
911.374	15545
911.489	15473
911.604	15492
911.718	15325
911.833	15367
911.947	15355
912.062	15207
912.176	15401
912.291	15416
912.405	15378
912.519	15466
912.633	15553
912.748	15408
912.862	15348
912.976	15108
913.09	15005
913.204	15097
913.318	15127
913.431	15214
913.545	15241
913.659	15260
913.772	15089
913.886	14967
914	15051
914.113	15138
914.226	15070
914.34	15062
914.453	14941
914.566	14963
914.68	14857
914.793	14826
914.906	14712
915.019	14655
915.132	14556
915.245	14602
915.358	14568
915.47	14560
915.583	14625
915.696	14670
915.809	14712
915.921	14743
916.034	14568
916.146	14431
916.259	14518
916.371	14629
916.483	14530
916.595	14465
916.708	14484
916.82	14454
916.932	14480
917.044	14423
917.156	14415
917.268	14271
917.38	14278
917.491	14301
917.603	14324
917.715	14282
917.826	14370
917.938	14225
918.049	14191
918.161	14202
918.272	14339
918.384	14400
918.495	14164
918.606	14016
918.717	14012
918.828	14035
918.939	14062
919.05	13921
919.161	13989
919.272	13875
919.383	13868
919.494	14073
919.604	14145
919.715	14035
919.826	13883
919.936	13959
920.047	13997
920.157	14039
920.267	14256
920.378	14046
920.488	13970
920.598	14126
920.708	14343
920.818	14130
920.928	14218
921.038	14328
921.148	14233
921.258	14039
921.368	13894
921.477	13757
921.587	13753
921.697	13708
921.806	13765
921.916	13681
922.025	13476
922.134	13430
922.244	13362
922.353	13411
922.462	13282
922.571	13320
922.68	13027
922.789	13141
922.898	13152
923.007	13046
923.116	13046
923.224	13065
923.333	13069
923.442	12852
923.55	12958
923.659	12837
923.767	12993
923.876	12894
923.984	12878
924.092	12745
924.201	12810
924.309	12886
924.417	12711
924.525	12802
924.633	12810
924.741	13556
924.849	12654
924.956	12658
925.064	12570
925.172	12426
925.279	12566
925.387	12582
925.494	12490
925.602	12654
925.709	12631
925.816	12467
925.924	12475
926.031	12532
926.138	12464
926.245	12407
926.352	12384
926.459	12532
926.566	12532
926.673	12471
926.779	12311
926.886	12254
926.993	12098
927.099	12079
927.206	12148
927.312	12072
927.419	12106
927.525	12083
927.631	12091
927.737	11961
927.843	11988
927.95	11870
928.056	11973
928.162	11954
928.267	11931
928.373	12506
928.479	11984
928.585	11805
928.69	11882
928.796	11783
928.901	11767
929.007	11649
929.112	11771
929.218	11729
929.323	11695
929.428	11657
929.533	11741
929.638	11558
929.743	11627
929.848	11741
929.953	11604
930.058	11414
930.163	11360
930.267	11387
930.372	11452
930.477	11330
930.581	11585
930.685	11425
930.79	11212
930.894	11303
930.998	11269
931.103	11345
931.207	11022
931.311	10934
931.415	10862
931.519	10691
931.623	10565
