Data from test_V78500241_3240.txt Node
Date: Fri Mar 25 15:32:25 CST 2022
User: usil
Spectrometer: V785-0024
Trigger mode: 0
Integration Time (sec): 4.000000E-1
Scans to average: 1
Nonlinearity correction enabled: false
Boxcar width: 0
Storing dark spectrum: false
XAxis mode: Wavelengths
Number of Pixels in Spectrum: 1024
>>>>>Begin Spectral Data<<<<<
801.071	27275
801.214	27245
801.356	26948
801.499	26963
801.641	26899
801.783	26842
801.926	26743
802.068	26750
802.211	26716
802.353	26705
802.496	26598
802.638	26530
802.78	26423
802.923	26294
803.065	26377
803.208	26317
803.35	26385
803.492	26450
803.635	26655
803.777	26507
803.919	26594
804.061	26864
804.204	26629
804.346	26571
804.488	26370
804.63	26457
804.773	26434
804.915	26419
805.057	26708
805.199	26503
805.341	26393
805.483	26727
805.626	26678
805.768	26598
805.91	26697
806.052	26644
806.194	26640
806.336	26762
806.478	26697
806.62	26667
806.762	26777
806.904	26868
807.046	27176
807.188	27195
807.33	27112
807.472	27169
807.614	27222
807.756	27005
807.898	26796
808.04	26887
808.182	26895
808.324	26838
808.465	26963
808.607	27279
808.749	27241
808.891	27458
809.033	27473
809.174	27294
809.316	27093
809.458	27108
809.6	27237
809.741	27363
809.883	27427
810.025	27614
810.166	27545
810.308	27610
810.45	27534
810.591	27473
810.733	27264
810.875	27176
811.016	27211
811.158	27230
811.299	27367
811.441	27576
811.582	27519
811.724	27245
811.865	27176
812.007	27195
812.148	27302
812.29	27397
812.431	27382
812.573	27576
812.714	27705
812.855	27717
812.997	27762
813.138	27838
813.279	27865
813.421	27717
813.562	27652
813.703	27595
813.845	27420
813.986	27081
814.127	27077
814.268	26979
814.41	26925
814.551	26963
814.692	26933
814.833	26746
814.974	26705
815.115	26895
815.256	26861
815.397	26716
815.539	26765
815.68	26792
815.821	26807
815.962	26746
816.103	26648
816.244	26552
816.385	26465
816.526	26358
816.666	26294
816.807	26195
816.948	26248
817.089	26313
817.23	26286
817.371	26134
817.512	26100
817.653	26172
817.793	26240
817.934	26138
818.075	26145
818.216	26210
818.356	26180
818.497	26149
818.638	25906
818.778	25822
818.919	25871
819.06	25986
819.2	26035
819.341	26081
819.481	26214
819.622	26199
819.762	26507
819.903	26484
820.043	26275
820.184	26362
820.324	26271
820.465	26278
820.605	26263
820.746	26206
820.886	26317
821.026	26294
821.167	26180
821.307	26313
821.447	26168
821.588	25917
821.728	25978
821.868	25753
822.008	25651
822.149	25715
822.289	25594
822.429	25327
822.569	25274
822.709	25350
822.849	25247
822.99	25129
823.13	25122
823.27	25000
823.41	25031
823.55	24871
823.69	25004
823.83	25107
823.97	24947
824.11	24757
824.25	24692
824.389	24753
824.529	24966
824.669	24749
824.809	24848
824.949	24875
825.089	24700
825.228	24886
825.368	24707
825.508	24597
825.648	24760
825.787	24715
825.927	24715
826.067	24684
826.206	24540
826.346	24776
826.485	24665
826.625	24703
826.765	24833
826.904	24601
827.044	24452
827.183	24464
827.323	24251
827.462	24369
827.601	24346
827.741	24369
827.88	24441
828.02	24235
828.159	24270
828.298	24311
828.437	24445
828.577	24194
828.716	24490
828.855	24304
828.994	24194
829.134	24247
829.273	24018
829.412	24083
829.551	24026
829.69	24087
829.829	24060
829.968	24110
830.107	24152
830.246	23999
830.385	24095
830.524	24038
830.663	23859
830.802	23832
830.941	23737
831.08	23729
831.219	23699
831.357	23764
831.496	23916
831.635	23729
831.774	23665
831.913	23611
832.051	23486
832.19	23497
832.329	23433
832.467	23250
832.606	23436
832.744	23288
832.883	23345
833.022	23402
833.16	23326
833.299	23436
833.437	23436
833.576	23433
833.714	23444
833.852	23398
833.991	23554
834.129	23512
834.267	23573
834.406	23535
834.544	23535
834.682	23406
834.821	23414
834.959	23661
835.097	23372
835.235	23627
835.373	23421
835.511	23452
835.65	23315
835.788	23368
835.926	23151
836.064	23254
836.202	23189
836.34	23334
836.478	23315
836.615	23341
836.753	23254
836.891	23490
837.029	23353
837.167	23197
837.305	23277
837.443	23117
837.58	23124
837.718	23239
837.856	23204
837.993	23143
838.131	23098
838.269	23037
838.406	23132
838.544	23018
838.681	22721
838.819	22736
838.956	22778
839.094	22611
839.231	22755
839.369	22850
839.506	23071
839.643	22984
839.781	22531
839.918	22603
840.055	22710
840.193	22550
840.33	22519
840.467	22531
840.604	22569
840.742	22801
840.879	22565
841.016	22485
841.153	22379
841.29	22603
841.427	22535
841.564	22679
841.701	22535
841.838	22554
841.975	22519
842.112	22500
842.249	22333
842.385	22428
842.522	22599
842.659	22542
842.796	22371
842.933	22287
843.069	22265
843.206	22341
843.343	22333
843.479	22367
843.616	22367
843.752	22116
843.889	22181
844.025	22196
844.162	22032
844.298	22044
844.435	22074
844.571	22143
844.708	22109
844.844	22185
844.98	22147
845.117	22158
845.253	22090
845.389	22032
845.525	21888
845.661	21918
845.798	21755
845.934	21778
846.07	21762
846.206	21884
846.342	21937
846.478	21835
846.614	21717
846.75	21564
846.886	21439
847.022	21561
847.158	21622
847.294	21618
847.429	21629
847.565	21519
847.701	21759
847.837	21294
847.972	21382
848.108	21340
848.244	21408
848.379	21302
848.515	21176
848.65	21077
848.786	21241
848.921	21195
849.057	21310
849.192	21283
849.328	21218
849.463	21127
849.598	21161
849.734	21055
849.869	21062
850.004	20891
850.14	20952
850.275	20963
850.41	20876
850.545	20971
850.68	20910
850.815	20887
850.95	20998
851.085	21173
851.22	21085
851.355	20994
851.49	20944
851.625	20823
851.76	20891
851.895	20891
852.03	20819
852.165	20910
852.299	20971
852.434	21093
852.569	20998
852.703	20925
852.838	20868
852.973	21127
853.107	21077
853.242	20804
853.376	20826
853.511	20613
853.645	20682
853.78	20982
853.914	20781
854.048	20629
854.183	20720
854.317	20773
854.451	20883
854.585	20758
854.72	20739
854.854	20899
854.988	20674
855.122	20708
855.256	20640
855.39	20705
855.524	20845
855.658	20887
855.792	20743
855.926	20800
856.06	20864
856.194	20891
856.327	20727
856.461	20743
856.595	20705
856.729	20762
856.862	20883
856.996	20712
857.13	20838
857.263	20914
857.397	20979
857.53	20788
857.664	20838
857.797	20765
857.931	20830
858.064	20743
858.197	20682
858.331	20804
858.464	20811
858.597	20686
858.731	20845
858.864	20765
858.997	20788
859.13	20739
859.263	20762
859.396	20876
859.529	20902
859.662	20701
859.795	20769
859.928	20670
860.061	20925
860.194	20967
860.327	20743
860.46	20606
860.592	20929
860.725	20986
860.858	20925
860.99	20746
861.123	20606
861.256	20663
861.388	20674
861.521	21435
861.653	20583
861.786	20518
861.918	20644
862.05	20701
862.183	20644
862.315	20727
862.447	20864
862.58	20655
862.712	20461
862.844	20457
862.976	20568
863.108	20488
863.24	20819
863.372	20343
863.504	20412
863.636	20530
863.768	20545
863.9	20507
864.032	20480
864.164	20404
864.296	20499
864.428	20632
864.559	20549
864.691	20663
864.823	20366
864.954	20461
865.086	20533
865.217	20404
865.349	20374
865.48	20362
865.612	20423
865.743	20511
865.875	20431
866.006	20362
866.137	20393
866.269	20343
866.4	20298
866.531	20290
866.662	20336
866.793	20252
866.924	20393
867.055	20393
867.186	20412
867.317	20206
867.448	20202
867.579	20092
867.71	20301
867.841	20084
867.972	20461
868.103	20332
868.233	20370
868.364	20343
868.495	20419
868.625	20598
868.756	20590
868.886	20469
869.017	20579
869.147	20602
869.278	20682
869.408	20575
869.539	20492
869.669	20697
869.799	20541
869.929	20644
870.06	20613
870.19	20872
870.32	20849
870.45	20861
870.58	20838
870.71	21138
870.84	21070
870.97	20933
871.1	20910
871.23	21154
871.36	21119
871.489	21268
871.619	21093
871.749	21214
871.879	21138
872.008	21344
872.138	21093
872.267	21249
872.397	21001
872.526	20998
872.656	21001
872.785	21058
872.915	21154
873.044	21264
873.173	21272
873.303	21370
873.432	21233
873.561	21283
873.69	21180
873.819	21226
873.948	21268
874.077	21203
874.206	21112
874.335	21203
874.464	21325
874.593	21363
874.722	21245
874.851	21515
874.979	21473
875.108	21538
875.237	21405
875.365	21389
875.494	21443
875.623	21458
875.751	21355
875.88	21405
876.008	21557
876.136	21603
876.265	21842
876.393	21895
876.521	21778
876.65	21934
876.778	21797
876.906	21964
877.034	21728
877.162	21861
877.29	21652
877.418	21656
877.546	21652
877.674	21869
877.802	21838
877.93	21861
878.058	21701
878.185	21545
878.313	21614
878.441	21724
878.568	21648
878.696	21648
878.824	21835
878.951	21850
879.079	21915
879.206	21987
879.333	21903
879.461	21865
879.588	21964
879.715	21892
879.842	21983
879.97	21774
880.097	21641
880.224	21561
880.351	21679
880.478	21648
880.605	21625
880.732	21557
880.859	21770
880.986	21538
881.112	21641
881.239	21439
881.366	21332
881.493	21287
881.619	21218
881.746	21188
881.872	21180
881.999	21180
882.125	21154
882.252	21302
882.378	21146
882.505	21233
882.631	21131
882.757	20864
882.883	20876
883.01	20975
883.136	20823
883.262	20800
883.388	20659
883.514	20937
883.64	21013
883.766	20765
883.892	20655
884.018	20663
884.143	20910
884.269	20880
884.395	20670
884.52	20484
884.646	20552
884.772	20495
884.897	20590
885.023	20678
885.148	20541
885.274	20609
885.399	20663
885.524	20583
885.65	20571
885.775	20556
885.9	20568
886.025	20583
886.15	20541
886.275	20556
886.4	20442
886.525	20484
886.65	20465
886.775	20427
886.9	20682
887.025	20769
887.149	20495
887.274	20434
887.399	20282
887.523	20385
887.648	20286
887.773	20214
887.897	20366
888.021	20278
888.146	20180
888.27	20438
888.395	20374
888.519	20343
888.643	20275
888.767	20393
888.891	20301
889.015	20172
889.139	20240
889.263	20172
889.387	20298
889.511	20298
889.635	20275
889.759	20187
889.883	20115
890.006	20069
890.13	20218
890.254	20027
890.377	20081
890.501	19917
890.624	19860
890.748	19879
890.871	19776
890.995	19742
891.118	19613
891.241	19780
891.364	19704
891.488	19860
891.611	19788
891.734	19833
891.857	19799
891.98	19731
892.103	19761
892.226	19750
892.349	19769
892.471	19487
892.594	19552
892.717	19655
892.839	19647
892.962	19624
893.085	19635
893.207	19674
893.33	19460
893.452	19540
893.575	19635
893.697	19510
893.819	19689
893.941	19841
894.064	19761
894.186	19571
894.308	19514
894.43	19746
894.552	19681
894.674	19727
894.796	19476
894.918	19628
895.04	19533
895.161	19746
895.283	19616
895.405	19529
895.526	19575
895.648	19502
895.769	19632
895.891	19616
896.012	19662
896.134	19643
896.255	19624
896.376	19605
896.498	19605
896.619	19647
896.74	19552
896.861	19635
896.982	19967
897.103	20115
897.224	19890
897.345	19849
897.466	19830
897.587	19780
897.708	20008
897.828	19906
897.949	19799
898.07	19559
898.19	19871
898.311	19883
898.431	19742
898.552	19811
898.672	19898
898.792	19890
898.913	19902
899.033	19807
899.153	19559
899.273	19655
899.393	19643
899.513	19651
899.633	19658
899.753	19628
899.873	19620
899.993	19696
900.113	19567
900.232	19571
900.352	19472
900.472	19457
900.591	19331
900.711	19365
900.83	19285
900.95	19491
901.069	19510
901.189	19304
901.308	19107
901.427	18989
901.546	18924
901.665	18882
901.784	18947
901.904	18829
902.023	18734
902.141	18589
902.26	18566
902.379	18532
902.498	18582
902.617	18460
902.735	18525
902.854	18464
902.973	18437
903.091	18228
903.21	18159
903.328	18121
903.446	18068
903.565	17977
903.683	17942
903.801	17973
903.919	17878
904.038	17821
904.156	17760
904.274	17775
904.392	17771
904.51	17653
904.627	17722
904.745	17828
904.863	17665
904.981	17585
905.098	17455
905.216	17383
905.334	17490
905.451	17349
905.569	17334
905.686	17433
905.803	17512
905.921	17147
906.038	17223
906.155	17151
906.272	17071
906.389	17159
906.506	16934
906.623	16984
906.74	16987
906.857	16866
906.974	16850
907.091	17098
907.208	17079
907.324	16965
907.441	16809
907.557	16630
907.674	16733
907.79	16706
907.907	16637
908.023	16679
908.139	16694
908.256	16660
908.372	16596
908.488	16691
908.604	16489
908.72	16310
908.836	16440
908.952	16348
909.068	16466
909.184	16615
909.3	16367
909.415	16363
909.531	16333
909.647	16211
909.762	16128
909.878	16124
909.993	16086
910.108	16097
910.224	16010
910.339	16078
910.454	15994
910.57	15907
910.685	15930
910.8	16139
910.915	16173
911.03	15987
911.145	15789
911.259	15747
911.374	15789
911.489	15610
911.604	15633
911.718	15488
911.833	15443
911.947	15321
912.062	15348
912.176	15515
912.291	15424
912.405	15370
912.519	15728
912.633	15629
912.748	15545
912.862	15538
912.976	15287
913.09	15142
913.204	15275
913.318	15294
913.431	15405
913.545	15408
913.659	15355
913.772	15203
913.886	15161
914	15138
914.113	15214
914.226	15161
914.34	15119
914.453	14975
914.566	15142
914.68	14994
914.793	14941
914.906	14769
915.019	14659
915.132	14594
915.245	14689
915.358	14743
915.47	14727
915.583	14712
915.696	14739
915.809	14830
915.921	14785
916.034	14644
916.146	14651
916.259	14556
916.371	14697
916.483	14811
916.595	14522
916.708	14568
916.82	14606
916.932	14571
917.044	14465
917.156	14389
917.268	14476
917.38	14431
917.491	14294
917.603	14400
917.715	14328
917.826	14419
917.938	14305
918.049	14336
918.161	14381
918.272	14507
918.384	14412
918.495	14442
918.606	14278
918.717	14050
918.828	14237
918.939	14149
919.05	14142
919.161	14092
919.272	13974
919.383	13936
919.494	14134
919.604	14381
919.715	14107
919.826	14005
919.936	14096
920.047	14100
920.157	14077
920.267	14275
920.378	14081
920.488	14115
920.598	14206
920.708	14434
920.818	14305
920.928	14286
921.038	14454
921.148	14358
921.258	14123
921.368	13967
921.477	13890
921.587	13898
921.697	13791
921.806	13852
921.916	13742
922.025	13514
922.134	13468
922.244	13457
922.353	13578
922.462	13464
922.571	13346
922.68	13183
922.789	13103
922.898	13114
923.007	13046
923.116	13122
923.224	13221
923.333	13149
923.442	13057
923.55	12973
923.659	12993
923.767	13012
923.876	13038
923.984	12996
924.092	12878
924.201	12981
924.309	12909
924.417	12920
924.525	12840
924.633	12806
924.741	13696
924.849	12673
924.956	12875
925.064	12604
925.172	12563
925.279	12547
925.387	12597
925.494	12669
925.602	12639
925.709	12601
925.816	12490
925.924	12456
926.031	12654
926.138	12589
926.245	12654
926.352	12486
926.459	12639
926.566	12623
926.673	12483
926.779	12395
926.886	12361
926.993	12140
927.099	12171
927.206	12133
927.312	12110
927.419	12266
927.525	12209
927.631	12243
927.737	12087
927.843	11954
927.95	11863
928.056	12068
928.162	12034
928.267	12049
928.373	12692
928.479	12068
928.585	11840
928.69	11961
928.796	11969
928.901	11878
929.007	11691
929.112	11813
929.218	11901
929.323	11813
929.428	11726
929.533	11870
929.638	11642
929.743	11722
929.848	11775
929.953	11638
930.058	11577
930.163	11421
930.267	11486
930.372	11665
930.477	11414
930.581	11623
930.685	11604
930.79	11330
930.894	11288
930.998	11356
931.103	11493
931.207	11105
931.311	11010
931.415	10881
931.519	10725
931.623	10790
