Data from test_V78500241_810.txt Node
Date: Fri Mar 25 15:15:29 CST 2022
User: usil
Spectrometer: V785-0024
Trigger mode: 0
Integration Time (sec): 4.000000E-1
Scans to average: 1
Nonlinearity correction enabled: false
Boxcar width: 0
Storing dark spectrum: false
XAxis mode: Wavelengths
Number of Pixels in Spectrum: 1024
>>>>>Begin Spectral Data<<<<<
801.071	28223
801.214	28215
801.356	27975
801.499	27975
801.641	27880
801.783	27903
801.926	27873
802.068	27876
802.211	27739
802.353	27694
802.496	27580
802.638	27504
802.78	27447
802.923	27397
803.065	27549
803.208	27382
803.35	27553
803.492	27580
803.635	27755
803.777	27553
803.919	27701
804.061	28010
804.204	27770
804.346	27534
804.488	27469
804.63	27622
804.773	27561
804.915	27732
805.057	27903
805.199	27720
805.341	27816
805.483	27956
805.626	27873
805.768	27751
805.91	27800
806.052	27739
806.194	27793
806.336	28101
806.478	28055
806.62	27994
806.762	27987
806.904	28109
807.046	28295
807.188	28207
807.33	28344
807.472	28280
807.614	28314
807.756	28284
807.898	28173
808.04	28272
808.182	28131
808.324	28139
808.465	28067
808.607	28466
808.749	28432
808.891	28713
809.033	28733
809.174	28546
809.316	28607
809.458	28554
809.6	28519
809.741	28691
809.883	28573
810.025	28786
810.166	28816
810.308	28820
810.45	28786
810.591	28790
810.733	28550
810.875	28573
811.016	28432
811.158	28440
811.299	28622
811.441	28664
811.582	28702
811.724	28447
811.865	28603
812.007	28542
812.148	28626
812.29	28596
812.431	28729
812.573	28919
812.714	29083
812.855	29090
812.997	29246
813.138	29341
813.279	29102
813.421	29197
813.562	29022
813.703	29044
813.845	28839
813.986	28527
814.127	28379
814.268	28276
814.41	28394
814.551	28253
814.692	28428
814.833	28158
814.974	28169
815.115	28401
815.256	28261
815.397	28150
815.539	28093
815.68	28185
815.821	27953
815.962	27983
816.103	28116
816.244	27994
816.385	27926
816.526	27911
816.666	27679
816.807	27557
816.948	27511
817.089	27747
817.23	27663
817.371	27614
817.512	27663
817.653	27561
817.793	27382
817.934	27599
818.075	27389
818.216	27534
818.356	27534
818.497	27401
818.638	27424
818.778	27302
818.919	27336
819.06	27523
819.2	27466
819.341	27561
819.481	27526
819.622	27743
819.762	27926
819.903	27857
820.043	27739
820.184	27808
820.324	27675
820.465	27937
820.605	27717
820.746	27614
820.886	27549
821.026	27629
821.167	27610
821.307	27671
821.447	27557
821.588	27576
821.728	27481
821.868	27233
822.008	27104
822.149	27077
822.289	27039
822.429	26697
822.569	26640
822.709	26629
822.849	26587
822.99	26670
823.13	26427
823.27	26442
823.41	26480
823.55	26324
823.69	26453
823.83	26347
823.97	26370
824.11	26168
824.25	26062
824.389	26393
824.529	26191
824.669	26271
824.809	26336
824.949	26332
825.089	26244
825.228	26214
825.368	25974
825.508	26172
825.648	26115
825.787	26168
825.927	26317
826.067	26107
826.206	26062
826.346	26199
826.485	26229
826.625	26103
826.765	26153
826.904	26081
827.044	25864
827.183	25803
827.323	25799
827.462	25898
827.601	25772
827.741	25837
827.88	25879
828.02	25525
828.159	25738
828.298	25670
828.437	25955
828.577	25860
828.716	25887
828.855	25769
828.994	25445
829.134	25426
829.273	25727
829.412	25422
829.551	25407
829.69	25544
829.829	25651
829.968	25677
830.107	25578
830.246	25426
830.385	25567
830.524	25324
830.663	25369
830.802	25263
830.941	25099
831.08	25107
831.219	25084
831.357	25213
831.496	25285
831.635	25145
831.774	25050
831.913	24916
832.051	24932
832.19	24852
832.329	24985
832.467	24684
832.606	24764
832.744	24802
832.883	24719
833.022	24844
833.16	24772
833.299	24749
833.437	24814
833.576	24821
833.714	24821
833.852	24837
833.991	24821
834.129	24859
834.267	24981
834.406	24878
834.544	24920
834.682	25004
834.821	24814
834.959	25019
835.097	24840
835.235	24814
835.373	24856
835.511	24757
835.65	24673
835.788	24692
835.926	24582
836.064	24494
836.202	24582
836.34	24719
836.478	24798
836.615	24878
836.753	24810
836.891	24722
837.029	24715
837.167	24532
837.305	24601
837.443	24513
837.58	24456
837.718	24681
837.856	24528
837.993	24399
838.131	24437
838.269	24357
838.406	24483
838.544	24486
838.681	24091
838.819	24083
838.956	23859
839.094	24045
839.231	23931
839.369	24102
839.506	24346
839.643	24213
839.781	24049
839.918	23809
840.055	23958
840.193	23908
840.33	23942
840.467	23893
840.604	23882
840.742	24258
840.879	23752
841.016	23832
841.153	23863
841.29	24022
841.427	23923
841.564	23973
841.701	23802
841.838	23836
841.975	23771
842.112	23722
842.249	23558
842.385	23676
842.522	23760
842.659	23748
842.796	23687
842.933	23611
843.069	23604
843.206	23562
843.343	23627
843.479	23562
843.616	23611
843.752	23395
843.889	23433
844.025	23554
844.162	23471
844.298	23444
844.435	23326
844.571	23360
844.708	23330
844.844	23687
844.98	23505
845.117	23387
845.253	23204
845.389	23265
845.525	23360
845.661	23402
845.798	23117
845.934	23200
846.07	23121
846.206	23098
846.342	23277
846.478	23052
846.614	22896
846.75	22885
846.886	22892
847.022	22831
847.158	22976
847.294	22923
847.429	22790
847.565	22942
847.701	23079
847.837	22584
847.972	22637
848.108	22584
848.244	22767
848.379	22512
848.515	22474
848.65	22489
848.786	22523
848.921	22390
849.057	22565
849.192	22577
849.328	22508
849.463	22462
849.598	22348
849.734	22440
849.869	22314
850.004	22238
850.14	22261
850.275	22234
850.41	22234
850.545	22173
850.68	22154
850.815	22207
850.95	22352
851.085	22341
851.22	22337
851.355	22215
851.49	22265
851.625	22284
851.76	22173
851.895	22086
852.03	22303
852.165	22166
852.299	22215
852.434	22234
852.569	22257
852.703	22158
852.838	22337
852.973	22432
853.107	22398
853.242	22276
853.376	22017
853.511	21937
853.645	22036
853.78	22196
853.914	21945
854.048	22021
854.183	22143
854.317	22070
854.451	22280
854.585	22055
854.72	22185
854.854	22032
854.988	21930
855.122	22070
855.256	21922
855.39	22055
855.524	22097
855.658	22021
855.792	22090
855.926	22006
856.06	22101
856.194	22116
856.327	22112
856.461	22055
856.595	22177
856.729	21937
856.862	22158
856.996	22051
857.13	22055
857.263	22158
857.397	22093
857.53	21907
857.664	22063
857.797	22051
857.931	22173
858.064	22070
858.197	22207
858.331	22025
858.464	21964
858.597	21838
858.731	22025
858.864	21930
858.997	21972
859.13	22200
859.263	22010
859.396	22063
859.529	22044
859.662	21994
859.795	22032
859.928	22078
860.061	22040
860.194	22280
860.327	21960
860.46	22059
860.592	22204
860.725	22177
860.858	22166
860.99	22059
861.123	21991
861.256	21956
861.388	22032
861.521	22805
861.653	21960
861.786	21785
861.918	21968
862.05	21854
862.183	21987
862.315	21983
862.447	22074
862.58	21953
862.712	21667
862.844	21755
862.976	21751
863.108	21842
863.24	22238
863.372	21644
863.504	21846
863.636	21827
863.768	21755
863.9	21827
864.032	21625
864.164	21736
864.296	21633
864.428	21975
864.559	21747
864.691	21755
864.823	21724
864.954	21701
865.086	21705
865.217	21709
865.349	21614
865.48	21679
865.612	21606
865.743	21698
865.875	21682
866.006	21671
866.137	21698
866.269	21641
866.4	21705
866.531	21572
866.662	21450
866.793	21564
866.924	21469
867.055	21576
867.186	21542
867.317	21500
867.448	21504
867.579	21481
867.71	21534
867.841	21580
867.972	21393
868.103	21564
868.233	21625
868.364	21545
868.495	21660
868.625	21747
868.756	21876
868.886	21629
869.017	21728
869.147	21789
869.278	21835
869.408	21797
869.539	21812
869.669	21915
869.799	21827
869.929	21865
870.06	21785
870.19	22090
870.32	21945
870.45	22173
870.58	22226
870.71	22242
870.84	22318
870.97	22204
871.1	22268
871.23	22481
871.36	22333
871.489	22219
871.619	22322
871.749	22341
871.879	22474
872.008	22478
872.138	22344
872.267	22363
872.397	22211
872.526	22246
872.656	22261
872.785	22230
872.915	22371
873.044	22443
873.173	22337
873.303	22592
873.432	22455
873.561	22523
873.69	22538
873.819	22405
873.948	22523
874.077	22451
874.206	22459
874.335	22341
874.464	22573
874.593	22729
874.722	22664
874.851	22672
874.979	22630
875.108	22733
875.237	22584
875.365	22615
875.494	22641
875.623	22736
875.751	22565
875.88	22725
876.008	22805
876.136	22919
876.265	23124
876.393	23052
876.521	23094
876.65	23060
876.778	23166
876.906	23003
877.034	22934
877.162	23029
877.29	22965
877.418	23056
877.546	23006
877.674	23010
877.802	22965
877.93	23067
878.058	22949
878.185	22881
878.313	23029
878.441	22911
878.568	22771
878.696	22831
878.824	22972
878.951	23060
879.079	23246
879.206	23258
879.333	23174
879.461	22991
879.588	23003
879.715	23117
879.842	23147
879.97	23029
880.097	22752
880.224	22797
880.351	22984
880.478	22881
880.605	22706
880.732	22873
880.859	22934
880.986	22812
881.112	22748
881.239	22577
881.366	22542
881.493	22386
881.619	22333
881.746	22409
881.872	22398
881.999	22440
882.125	22337
882.252	22474
882.378	22322
882.505	22386
882.631	22291
882.757	22051
882.883	22207
883.01	22074
883.136	21983
883.262	21850
883.388	21785
883.514	22051
883.64	22082
883.766	22063
883.892	21903
884.018	21816
884.143	22010
884.269	22067
884.395	21679
884.52	21633
884.646	21717
884.772	21679
884.897	21576
885.023	21705
885.148	21686
885.274	21922
885.399	21873
885.524	21724
885.65	21778
885.775	21690
885.9	21568
886.025	21873
886.15	21827
886.275	21671
886.4	21564
886.525	21561
886.65	21458
886.775	21507
886.9	21876
887.025	21869
887.149	21701
887.274	21447
887.399	21447
887.523	21454
887.648	21287
887.773	21325
887.897	21447
888.021	21561
888.146	21587
888.27	21538
888.395	21564
888.519	21492
888.643	21462
888.767	21462
888.891	21408
889.015	21161
889.139	21203
889.263	21249
889.387	21351
889.511	21488
889.635	21310
889.759	21211
889.883	21245
890.006	21268
890.13	21332
890.254	21268
890.377	21180
890.501	21051
890.624	20929
890.748	21032
890.871	20807
890.995	20765
891.118	20762
891.241	20781
891.364	20739
891.488	20921
891.611	20834
891.734	20838
891.857	20891
891.98	20838
892.103	20948
892.226	20834
892.349	20659
892.471	20617
892.594	20697
892.717	20670
892.839	20648
892.962	20625
893.085	20842
893.207	20743
893.33	20556
893.452	20629
893.575	20659
893.697	20568
893.819	20769
893.941	20842
894.064	20743
894.186	20613
894.308	20735
894.43	20758
894.552	20788
894.674	20887
894.796	20579
894.918	20674
895.04	20644
895.161	20621
895.283	20651
895.405	20689
895.526	20648
895.648	20731
895.769	20758
895.891	20659
896.012	20701
896.134	20727
896.255	20682
896.376	20754
896.498	20693
896.619	20629
896.74	20693
896.861	20648
896.982	21005
897.103	21131
897.224	20857
897.345	20819
897.466	20727
897.587	20891
897.708	21013
897.828	20834
897.949	20891
898.07	20670
898.19	20781
898.311	20971
898.431	20754
898.552	20872
898.672	20929
898.792	20857
898.913	20933
899.033	20807
899.153	20659
899.273	20613
899.393	20499
899.513	20613
899.633	20609
899.753	20598
899.873	20587
899.993	20636
900.113	20594
900.232	20667
900.352	20461
900.472	20450
900.591	20347
900.711	20374
900.83	20320
900.95	20480
901.069	20400
901.189	20263
901.308	20027
901.427	19986
901.546	20031
901.665	20065
901.784	20096
901.904	19845
902.023	19715
902.141	19510
902.26	19480
902.379	19533
902.498	19502
902.617	19518
902.735	19514
902.854	19453
902.973	19407
903.091	19110
903.21	19031
903.328	19069
903.446	19069
903.565	19019
903.683	19004
903.801	18772
903.919	18897
904.038	18848
904.156	18700
904.274	18753
904.392	18760
904.51	18722
904.627	18817
904.745	18738
904.863	18642
904.981	18536
905.098	18380
905.216	18452
905.334	18407
905.451	18334
905.569	18338
905.686	18338
905.803	18369
905.921	18239
906.038	18243
906.155	18216
906.272	18019
906.389	18072
906.506	17980
906.623	17897
906.74	17878
906.857	17760
906.974	17775
907.091	17885
907.208	17901
907.324	18015
907.441	17748
907.557	17623
907.674	17615
907.79	17551
907.907	17543
908.023	17672
908.139	17600
908.256	17551
908.372	17486
908.488	17528
908.604	17376
908.72	17307
908.836	17414
908.952	17143
909.068	17356
909.184	17444
909.3	17318
909.415	17387
909.531	17334
909.647	17041
909.762	16995
909.878	17060
909.993	17128
910.108	17037
910.224	17136
910.339	17010
910.454	16873
910.57	16923
910.685	16774
910.8	17010
910.915	16995
911.03	16839
911.145	16675
911.259	16694
911.374	16637
911.489	16554
911.604	16474
911.718	16474
911.833	16371
911.947	16261
912.062	16181
912.176	16314
912.291	16337
912.405	16276
912.519	16447
912.633	16561
912.748	16337
912.862	16398
912.976	16200
913.09	16051
913.204	16067
913.318	16139
913.431	16238
913.545	16226
913.659	16215
913.772	16207
913.886	16010
914	16074
914.113	16036
914.226	15918
914.34	15979
914.453	15816
914.566	16036
914.68	15751
914.793	15724
914.906	15633
915.019	15629
915.132	15469
915.245	15568
915.358	15568
915.47	15576
915.583	15682
915.696	15530
915.809	15618
915.921	15701
916.034	15488
916.146	15488
916.259	15351
916.371	15511
916.483	15492
916.595	15378
916.708	15340
916.82	15344
916.932	15291
917.044	15321
917.156	15264
917.268	15116
917.38	15260
917.491	15150
917.603	15184
917.715	15226
917.826	15294
917.938	15013
918.049	14960
918.161	15176
918.272	15260
918.384	15264
918.495	15135
918.606	15104
918.717	14830
918.828	14918
918.939	14929
919.05	14796
919.161	14849
919.272	14712
919.383	14811
919.494	14944
919.604	15089
919.715	14876
919.826	14785
919.936	14914
920.047	14921
920.157	14929
920.267	15055
920.378	14861
920.488	14883
920.598	15043
920.708	15169
920.818	15047
920.928	15100
921.038	15188
921.148	15108
921.258	14823
921.368	14667
921.477	14621
921.587	14625
921.697	14473
921.806	14556
921.916	14503
922.025	14278
922.134	14229
922.244	14278
922.353	14267
922.462	14187
922.571	14077
922.68	13947
922.789	13883
922.898	13898
923.007	13928
923.116	13936
923.224	13879
923.333	13864
923.442	13799
923.55	13674
923.659	13765
923.767	13780
923.876	13655
923.984	13677
924.092	13514
924.201	13738
924.309	13662
924.417	13670
924.525	13487
924.633	13567
924.741	14244
924.849	13434
924.956	13514
925.064	13411
925.172	13304
925.279	13362
925.387	13289
925.494	13369
925.602	13445
925.709	13381
925.816	13247
925.924	13278
926.031	13316
926.138	13228
926.245	13274
926.352	13213
926.459	13270
926.566	13316
926.673	13179
926.779	13019
926.886	13012
926.993	12958
927.099	12844
927.206	12837
927.312	12859
927.419	12837
927.525	12844
927.631	12848
927.737	12779
927.843	12658
927.95	12570
928.056	12673
928.162	12715
928.267	12646
928.373	13388
928.479	12722
928.585	12498
928.69	12620
928.796	12662
928.901	12528
929.007	12418
929.112	12502
929.218	12456
929.323	12372
929.428	12304
929.533	12506
929.638	12350
929.743	12353
929.848	12353
929.953	12338
930.058	12106
930.163	12098
930.267	12060
930.372	12136
930.477	11950
930.581	12289
930.685	12129
930.79	11980
930.894	11977
930.998	11847
931.103	11961
931.207	11688
931.311	11596
931.415	11505
931.519	11379
931.623	11220
