Data from test_V78500241_919.txt Node
Date: Fri Mar 25 15:16:15 CST 2022
User: usil
Spectrometer: V785-0024
Trigger mode: 0
Integration Time (sec): 4.000000E-1
Scans to average: 1
Nonlinearity correction enabled: false
Boxcar width: 0
Storing dark spectrum: false
XAxis mode: Wavelengths
Number of Pixels in Spectrum: 1024
>>>>>Begin Spectral Data<<<<<
801.071	28105
801.214	28116
801.356	27914
801.499	27781
801.641	27686
801.783	27762
801.926	27823
802.068	27808
802.211	27789
802.353	27538
802.496	27355
802.638	27302
802.78	27351
802.923	27264
803.065	27272
803.208	27405
803.35	27443
803.492	27466
803.635	27534
803.777	27450
803.919	27572
804.061	27812
804.204	27572
804.346	27435
804.488	27553
804.63	27591
804.773	27500
804.915	27564
805.057	27781
805.199	27466
805.341	27766
805.483	27816
805.626	27747
805.768	27637
805.91	27610
806.052	27770
806.194	27660
806.336	27743
806.478	27759
806.62	27831
806.762	27873
806.904	27899
807.046	28219
807.188	28097
807.33	28029
807.472	28158
807.614	28128
807.756	28150
807.898	27949
808.04	27922
808.182	28021
808.324	28048
808.465	27926
808.607	28234
808.749	28344
808.891	28447
809.033	28538
809.174	28333
809.316	28337
809.458	28360
809.6	28299
809.741	28360
809.883	28565
810.025	28755
810.166	28603
810.308	28588
810.45	28660
810.591	28660
810.733	28341
810.875	28367
811.016	28185
811.158	28459
811.299	28424
811.441	28447
811.582	28645
811.724	28314
811.865	28447
812.007	28428
812.148	28440
812.29	28394
812.431	28462
812.573	28755
812.714	28930
812.855	28881
812.997	28995
813.138	29273
813.279	29113
813.421	29056
813.562	28782
813.703	28771
813.845	28675
813.986	28394
814.127	28303
814.268	28082
814.41	27994
814.551	28070
814.692	28215
814.833	28044
814.974	28013
815.115	28067
815.256	27979
815.397	27953
815.539	27964
815.68	27819
815.821	27755
815.962	27842
816.103	27899
816.244	27956
816.385	27736
816.526	27736
816.666	27458
816.807	27511
816.948	27511
817.089	27462
817.23	27545
817.371	27416
817.512	27534
817.653	27450
817.793	27367
817.934	27313
818.075	27420
818.216	27355
818.356	27382
818.497	27218
818.638	27275
818.778	27131
818.919	27230
819.06	27100
819.2	27214
819.341	27462
819.481	27367
819.622	27492
819.762	27603
819.903	27625
820.043	27644
820.184	27679
820.324	27526
820.465	27443
820.605	27587
820.746	27447
820.886	27416
821.026	27359
821.167	27439
821.307	27515
821.447	27439
821.588	27340
821.728	27203
821.868	27100
822.008	26975
822.149	26895
822.289	26785
822.429	26670
822.569	26587
822.709	26530
822.849	26377
822.99	26381
823.13	26366
823.27	26309
823.41	26225
823.55	26221
823.69	26267
823.83	26233
823.97	26157
824.11	26046
824.25	26062
824.389	25978
824.529	26111
824.669	26180
824.809	26233
824.949	26240
825.089	26221
825.228	26103
825.368	25966
825.508	25997
825.648	25890
825.787	25978
825.927	25947
826.067	25841
826.206	25719
826.346	26073
826.485	25849
826.625	25875
826.765	25883
826.904	25906
827.044	25746
827.183	25887
827.323	25708
827.462	25753
827.601	25750
827.741	25662
827.88	25658
828.02	25578
828.159	25635
828.298	25590
828.437	25689
828.577	25552
828.716	25708
828.855	25571
828.994	25407
829.134	25316
829.273	25422
829.412	25354
829.551	25308
829.69	25373
829.829	25346
829.968	25247
830.107	25343
830.246	25396
830.385	25190
830.524	25217
830.663	25263
830.802	25236
830.941	24852
831.08	24913
831.219	25183
831.357	25000
831.496	25304
831.635	24992
831.774	24951
831.913	24882
832.051	24745
832.19	24757
832.329	24852
832.467	24559
832.606	24753
832.744	24601
832.883	24627
833.022	24658
833.16	24703
833.299	24677
833.437	24612
833.576	24783
833.714	24798
833.852	24802
833.991	24738
834.129	24768
834.267	24810
834.406	24722
834.544	24791
834.682	24711
834.821	24673
834.959	24920
835.097	24623
835.235	24734
835.373	24646
835.511	24661
835.65	24551
835.788	24566
835.926	24498
836.064	24342
836.202	24437
836.34	24502
836.478	24585
836.615	24452
836.753	24502
836.891	24601
837.029	24661
837.167	24608
837.305	24494
837.443	24486
837.58	24327
837.718	24513
837.856	24475
837.993	24353
838.131	24361
838.269	24197
838.406	24266
838.544	24273
838.681	24022
838.819	24026
838.956	23752
839.094	23775
839.231	23893
839.369	23984
839.506	24323
839.643	24148
839.781	23988
839.918	23764
840.055	23836
840.193	23775
840.33	23680
840.467	23714
840.604	23870
840.742	24041
840.879	23699
841.016	23687
841.153	23653
841.29	23904
841.427	23733
841.564	23623
841.701	23904
841.838	23676
841.975	23855
842.112	23726
842.249	23535
842.385	23410
842.522	23680
842.659	23539
842.796	23528
842.933	23455
843.069	23539
843.206	23543
843.343	23581
843.479	23520
843.616	23551
843.752	23421
843.889	23235
844.025	23417
844.162	23250
844.298	23372
844.435	23269
844.571	23307
844.708	23379
844.844	23334
844.98	23421
845.117	23531
845.253	23364
845.389	23155
845.525	23181
845.661	23132
845.798	23147
845.934	23010
846.07	23029
846.206	23052
846.342	23075
846.478	22980
846.614	22900
846.75	22786
846.886	22763
847.022	22889
847.158	22843
847.294	22702
847.429	22790
847.565	22843
847.701	23037
847.837	22455
847.972	22538
848.108	22626
848.244	22493
848.379	22303
848.515	22306
848.65	22375
848.786	22428
848.921	22413
849.057	22367
849.192	22333
849.328	22402
849.463	22367
849.598	22333
849.734	22242
849.869	22177
850.004	22025
850.14	22097
850.275	22116
850.41	22032
850.545	22109
850.68	22006
850.815	22082
850.95	22135
851.085	22310
851.22	22196
851.355	22101
851.49	22120
851.625	22070
851.76	22063
851.895	22025
852.03	21922
852.165	22150
852.299	22116
852.434	22219
852.569	22200
852.703	22036
852.838	22215
852.973	22223
853.107	22314
853.242	22131
853.376	21918
853.511	21846
853.645	21895
853.78	22021
853.914	21930
854.048	21865
854.183	21873
854.317	21941
854.451	22154
854.585	21934
854.72	21926
854.854	21956
854.988	21880
855.122	21892
855.256	21857
855.39	21816
855.524	21979
855.658	22067
855.792	21895
855.926	21903
856.06	21956
856.194	22128
856.327	21816
856.461	21846
856.595	21797
856.729	21899
856.862	22013
856.996	21937
857.13	22055
857.263	21972
857.397	22055
857.53	21812
857.664	22010
857.797	21968
857.931	21975
858.064	21991
858.197	22029
858.331	21911
858.464	21876
858.597	21736
858.731	21888
858.864	21941
858.997	21861
859.13	21983
859.263	21876
859.396	21960
859.529	21972
859.662	21770
859.795	21823
859.928	21926
860.061	22128
860.194	22082
860.327	22029
860.46	22002
860.592	22010
860.725	22124
860.858	22101
860.99	21907
861.123	21899
861.256	21789
861.388	21915
861.521	22740
861.653	21850
861.786	21614
861.918	21755
862.05	21880
862.183	21857
862.315	21819
862.447	21869
862.58	21876
862.712	21637
862.844	21538
862.976	21580
863.108	21747
863.24	21960
863.372	21492
863.504	21572
863.636	21622
863.768	21694
863.9	21530
864.032	21549
864.164	21500
864.296	21644
864.428	21774
864.559	21717
864.691	21663
864.823	21606
864.954	21564
865.086	21549
865.217	21614
865.349	21553
865.48	21526
865.612	21462
865.743	21534
865.875	21553
866.006	21511
866.137	21511
866.269	21622
866.4	21405
866.531	21386
866.662	21302
866.793	21439
866.924	21477
867.055	21568
867.186	21439
867.317	21511
867.448	21412
867.579	21435
867.71	21325
867.841	21355
867.972	21401
868.103	21332
868.233	21500
868.364	21401
868.495	21488
868.625	21587
868.756	21739
868.886	21583
869.017	21625
869.147	21751
869.278	21850
869.408	21671
869.539	21534
869.669	21751
869.799	21774
869.929	21736
870.06	21781
870.19	22063
870.32	21888
870.45	22006
870.58	22173
870.71	22215
870.84	22200
870.97	22120
871.1	22017
871.23	22097
871.36	22124
871.489	22226
871.619	22268
871.749	22329
871.879	22234
872.008	22322
872.138	22265
872.267	22211
872.397	22272
872.526	22112
872.656	22135
872.785	22048
872.915	22280
873.044	22421
873.173	22234
873.303	22291
873.432	22291
873.561	22451
873.69	22344
873.819	22284
873.948	22257
874.077	22341
874.206	22211
874.335	22204
874.464	22371
874.593	22535
874.722	22451
874.851	22573
874.979	22512
875.108	22535
875.237	22417
875.365	22459
875.494	22478
875.623	22653
875.751	22409
875.88	22470
876.008	22607
876.136	22706
876.265	22972
876.393	22942
876.521	22991
876.65	22995
876.778	22828
876.906	22812
877.034	22691
877.162	22828
877.29	22790
877.418	22767
877.546	22767
877.674	22885
877.802	22809
877.93	22812
878.058	22683
878.185	22786
878.313	22858
878.441	22771
878.568	22588
878.696	22752
878.824	22881
878.951	22976
879.079	23010
879.206	23094
879.333	23037
879.461	22847
879.588	22923
879.715	23067
879.842	23159
879.97	22843
880.097	22740
880.224	22603
880.351	22649
880.478	22596
880.605	22710
880.732	22717
880.859	22896
880.986	22698
881.112	22672
881.239	22500
881.366	22314
881.493	22322
881.619	22295
881.746	22333
881.872	22154
881.999	22268
882.125	22272
882.252	22367
882.378	22223
882.505	22325
882.631	22090
882.757	21994
882.883	21937
883.01	22010
883.136	21861
883.262	21705
883.388	21717
883.514	21941
883.64	21930
883.766	21895
883.892	21656
884.018	21766
884.143	21835
884.269	21873
884.395	21698
884.52	21591
884.646	21519
884.772	21583
884.897	21507
885.023	21477
885.148	21553
885.274	21751
885.399	21679
885.524	21500
885.65	21500
885.775	21507
885.9	21466
886.025	21690
886.15	21667
886.275	21580
886.4	21447
886.525	21568
886.65	21431
886.775	21473
886.9	21759
887.025	21595
887.149	21545
887.274	21329
887.399	21188
887.523	21302
887.648	21252
887.773	21336
887.897	21389
888.021	21325
888.146	21294
888.27	21355
888.395	21439
888.519	21389
888.643	21188
888.767	21249
888.891	21123
889.015	21165
889.139	21131
889.263	21112
889.387	21184
889.511	21408
889.635	21287
889.759	21180
889.883	21203
890.006	21233
890.13	21230
890.254	21116
890.377	21135
890.501	20804
890.624	20815
890.748	20826
890.871	20800
890.995	20617
891.118	20648
891.241	20727
891.364	20716
891.488	20781
891.611	20667
891.734	20727
891.857	20796
891.98	20629
892.103	20613
892.226	20773
892.349	20568
892.471	20404
892.594	20587
892.717	20708
892.839	20473
892.962	20640
893.085	20632
893.207	20431
893.33	20495
893.452	20438
893.575	20651
893.697	20465
893.819	20796
893.941	20743
894.064	20686
894.186	20499
894.308	20454
894.43	20678
894.552	20667
894.674	20621
894.796	20473
894.918	20461
895.04	20530
895.161	20705
895.283	20511
895.405	20377
895.526	20587
895.648	20606
895.769	20568
895.891	20609
896.012	20655
896.134	20594
896.255	20587
896.376	20503
896.498	20495
896.619	20579
896.74	20530
896.861	20583
896.982	20804
897.103	21055
897.224	20842
897.345	20693
897.466	20712
897.587	20678
897.708	20929
897.828	20716
897.949	20667
898.07	20541
898.19	20716
898.311	20876
898.431	20834
898.552	20682
898.672	20872
898.792	20815
898.913	20773
899.033	20640
899.153	20484
899.273	20442
899.393	20492
899.513	20396
899.633	20442
899.753	20552
899.873	20438
899.993	20716
900.113	20381
900.232	20511
900.352	20381
900.472	20339
900.591	20298
900.711	20229
900.83	20187
900.95	20278
901.069	20271
901.189	20161
901.308	19955
901.427	19951
901.546	19887
901.665	19959
901.784	19883
901.904	19765
902.023	19704
902.141	19468
902.26	19331
902.379	19426
902.498	19339
902.617	19304
902.735	19362
902.854	19346
902.973	19194
903.091	19019
903.21	19057
903.328	18958
903.446	19015
903.565	18837
903.683	18829
903.801	18795
903.919	18757
904.038	18837
904.156	18669
904.274	18646
904.392	18525
904.51	18494
904.627	18509
904.745	18616
904.863	18570
904.981	18384
905.098	18319
905.216	18190
905.334	18353
905.451	18289
905.569	18319
905.686	18300
905.803	18258
905.921	18007
906.038	18285
906.155	18076
906.272	17996
906.389	18034
906.506	17832
906.623	17786
906.74	17699
906.857	17733
906.974	17733
907.091	17821
907.208	17927
907.324	17764
907.441	17714
907.557	17604
907.674	17474
907.79	17482
907.907	17520
908.023	17395
908.139	17543
908.256	17505
908.372	17391
908.488	17505
908.604	17311
908.72	17265
908.836	17349
908.952	17162
909.068	17128
909.184	17364
909.3	17258
909.415	17311
909.531	17242
909.647	16942
909.762	17025
909.878	16850
909.993	16980
910.108	16953
910.224	16839
910.339	16915
910.454	16717
910.57	16866
910.685	16694
910.8	16934
910.915	16824
911.03	16687
911.145	16584
911.259	16504
911.374	16516
911.489	16443
911.604	16409
911.718	16238
911.833	16200
911.947	16135
912.062	16082
912.176	16192
912.291	16185
912.405	16246
912.519	16443
912.633	16443
912.748	16329
912.862	16177
912.976	16116
913.09	16040
913.204	16017
913.318	16006
913.431	16192
913.545	16219
913.659	16166
913.772	16074
913.886	15907
914	15736
914.113	15884
914.226	15994
914.34	15930
914.453	15690
914.566	15869
914.68	15755
914.793	15793
914.906	15500
915.019	15538
915.132	15389
915.245	15504
915.358	15462
915.47	15511
915.583	15530
915.696	15473
915.809	15488
915.921	15515
916.034	15496
916.146	15348
916.259	15252
916.371	15538
916.483	15317
916.595	15260
916.708	15211
916.82	15218
916.932	15203
917.044	15192
917.156	15211
917.268	15020
917.38	15093
917.491	15093
917.603	15097
917.715	15195
917.826	15298
917.938	15001
918.049	15013
918.161	14994
918.272	15074
918.384	15135
918.495	14982
918.606	14899
918.717	14796
918.828	14899
918.939	14925
919.05	14739
919.161	14743
919.272	14636
919.383	14720
919.494	14891
919.604	14994
919.715	14785
919.826	14727
919.936	14739
920.047	14815
920.157	14720
920.267	15028
920.378	14769
920.488	14800
920.598	14982
920.708	15150
920.818	14914
920.928	14883
921.038	15062
921.148	15024
921.258	14823
921.368	14552
921.477	14511
921.587	14480
921.697	14400
921.806	14564
921.916	14324
922.025	14240
922.134	14191
922.244	14069
922.353	14206
922.462	14046
922.571	13989
922.68	13849
922.789	13788
922.898	13849
923.007	13769
923.116	13769
923.224	13750
923.333	13780
923.442	13624
923.55	13620
923.659	13639
923.767	13662
923.876	13480
923.984	13696
924.092	13586
924.201	13662
924.309	13518
924.417	13685
924.525	13472
924.633	13457
924.741	14404
924.849	13312
924.956	13403
925.064	13350
925.172	13194
925.279	13259
925.387	13266
925.494	13274
925.602	13331
925.709	13324
925.816	13088
925.924	13190
926.031	13244
926.138	13137
926.245	13114
926.352	13072
926.459	13206
926.566	13251
926.673	13004
926.779	13038
926.886	12962
926.993	12825
927.099	12787
927.206	12734
927.312	12681
927.419	12817
927.525	12684
927.631	12741
927.737	12604
927.843	12585
927.95	12532
928.056	12563
928.162	12578
928.267	12559
928.373	13304
928.479	12700
928.585	12422
928.69	12494
928.796	12563
928.901	12361
929.007	12266
929.112	12467
929.218	12486
929.323	12353
929.428	12273
929.533	12407
929.638	12239
929.743	12308
929.848	12311
929.953	12262
930.058	12175
930.163	11969
930.267	12049
930.372	12079
930.477	11923
930.581	12182
930.685	12110
930.79	11885
930.894	11866
930.998	11843
931.103	11954
931.207	11627
931.311	11452
931.415	11535
931.519	11326
931.623	11204
