Data from test_V78500241_1709.txt Node
Date: Fri Mar 25 15:21:45 CST 2022
User: usil
Spectrometer: V785-0024
Trigger mode: 0
Integration Time (sec): 4.000000E-1
Scans to average: 1
Nonlinearity correction enabled: false
Boxcar width: 0
Storing dark spectrum: false
XAxis mode: Wavelengths
Number of Pixels in Spectrum: 1024
>>>>>Begin Spectral Data<<<<<
801.071	27713
801.214	27530
801.356	27306
801.499	27317
801.641	27252
801.783	27157
801.926	27272
802.068	27123
802.211	27062
802.353	27096
802.496	26815
802.638	26785
802.78	26895
802.923	26682
803.065	26788
803.208	26731
803.35	26712
803.492	27001
803.635	26960
803.777	26830
803.919	26960
804.061	27332
804.204	27017
804.346	27028
804.488	26902
804.63	27009
804.773	26731
804.915	26929
805.057	27317
805.199	26967
805.341	27074
805.483	27135
805.626	27127
805.768	27036
805.91	27199
806.052	27157
806.194	26902
806.336	27336
806.478	27131
806.62	27154
806.762	27222
806.904	27355
807.046	27534
807.188	27603
807.33	27473
807.472	27492
807.614	27492
807.756	27538
807.898	27348
808.04	27317
808.182	27393
808.324	27378
808.465	27370
808.607	27576
808.749	27679
808.891	27766
809.033	27873
809.174	27732
809.316	27728
809.458	27629
809.6	27694
809.741	27739
809.883	27850
810.025	28097
810.166	27991
810.308	27991
810.45	27895
810.591	27880
810.733	27705
810.875	27599
811.016	27606
811.158	27652
811.299	27709
811.441	27838
811.582	27800
811.724	27652
811.865	27675
812.007	27785
812.148	27789
812.29	27854
812.431	27747
812.573	28082
812.714	28150
812.855	28112
812.997	28223
813.138	28344
813.279	28356
813.421	28204
813.562	28120
813.703	28051
813.845	27899
813.986	27766
814.127	27439
814.268	27306
814.41	27519
814.551	27237
814.692	27534
814.833	27408
814.974	27408
815.115	27431
815.256	27180
815.397	27374
815.539	27176
815.68	27058
815.821	27157
815.962	27237
816.103	27165
816.244	27032
816.385	27001
816.526	26948
816.666	26788
816.807	26697
816.948	26735
817.089	26864
817.23	26674
817.371	26724
817.512	26590
817.653	26594
817.793	26590
817.934	26598
818.075	26689
818.216	26655
818.356	26575
818.497	26518
818.638	26404
818.778	26366
818.919	26389
819.06	26465
819.2	26507
819.341	26613
819.481	26667
819.622	26773
819.762	26925
819.903	26952
820.043	26857
820.184	26800
820.324	26845
820.465	26891
820.605	26746
820.746	26750
820.886	26606
821.026	26804
821.167	26739
821.307	26750
821.447	26678
821.588	26651
821.728	26408
821.868	26214
822.008	26069
822.149	25986
822.289	26058
822.429	25776
822.569	25841
822.709	25753
822.849	25719
822.99	25666
823.13	25613
823.27	25567
823.41	25518
823.55	25384
823.69	25460
823.83	25396
823.97	25460
824.11	25388
824.25	25251
824.389	25343
824.529	25293
824.669	25335
824.809	25422
824.949	25434
825.089	25392
825.228	25331
825.368	25194
825.508	25312
825.648	25343
825.787	25042
825.927	25259
826.067	25156
826.206	25095
826.346	25232
826.485	25247
826.625	25198
826.765	25335
826.904	25160
827.044	24916
827.183	24958
827.323	24844
827.462	24875
827.601	25061
827.741	24882
827.88	24764
828.02	24745
828.159	24905
828.298	24810
828.437	24856
828.577	24703
828.716	24958
828.855	24745
828.994	24563
829.134	24616
829.273	24608
829.412	24471
829.551	24471
829.69	24517
829.829	24665
829.968	24661
830.107	24688
830.246	24505
830.385	24544
830.524	24410
830.663	24311
830.802	24258
830.941	24072
831.08	24330
831.219	24334
831.357	24300
831.496	24483
831.635	24041
831.774	24091
831.913	24018
832.051	24076
832.19	23969
832.329	24007
832.467	23866
832.606	23813
832.744	23802
832.883	23809
833.022	23805
833.16	23771
833.299	23939
833.437	23984
833.576	24015
833.714	23901
833.852	23954
833.991	24152
834.129	23923
834.267	24026
834.406	23889
834.544	24026
834.682	23939
834.821	23893
834.959	24167
835.097	23859
835.235	23935
835.373	23901
835.511	23969
835.65	23790
835.788	23798
835.926	23748
836.064	23600
836.202	23668
836.34	23699
836.478	23805
836.615	23885
836.753	23767
836.891	23889
837.029	23707
837.167	23756
837.305	23699
837.443	23623
837.58	23581
837.718	23596
837.856	23649
837.993	23630
838.131	23608
838.269	23535
838.406	23372
838.544	23406
838.681	23326
838.819	23277
838.956	23159
839.094	23094
839.231	23147
839.369	23204
839.506	23592
839.643	23250
839.781	23090
839.918	23037
840.055	23143
840.193	23033
840.33	22991
840.467	22965
840.604	22976
840.742	23280
840.879	22984
841.016	22999
841.153	22889
841.29	23132
841.427	23010
841.564	23048
841.701	22991
841.838	22942
841.975	22778
842.112	22900
842.249	22790
842.385	22740
842.522	22892
842.659	22702
842.796	22721
842.933	22831
843.069	22679
843.206	22702
843.343	22881
843.479	22782
843.616	22782
843.752	22554
843.889	22512
844.025	22637
844.162	22607
844.298	22603
844.435	22527
844.571	22447
844.708	22584
844.844	22694
844.98	22713
845.117	22660
845.253	22489
845.389	22352
845.525	22421
845.661	22405
845.798	22173
845.934	22234
846.07	22246
846.206	22329
846.342	22432
846.478	22272
846.614	22135
846.75	21903
846.886	21937
847.022	22044
847.158	22219
847.294	22105
847.429	22048
847.565	22025
847.701	22238
847.837	21766
847.972	21732
848.108	21869
848.244	21827
848.379	21762
848.515	21534
848.65	21561
848.786	21739
848.921	21637
849.057	21644
849.192	21720
849.328	21614
849.463	21625
849.598	21622
849.734	21485
849.869	21507
850.004	21386
850.14	21500
850.275	21439
850.41	21329
850.545	21355
850.68	21359
850.815	21332
850.95	21329
851.085	21675
851.22	21488
851.355	21435
851.49	21412
851.625	21367
851.76	21340
851.895	21230
852.03	21207
852.165	21344
852.299	21424
852.434	21454
852.569	21443
852.703	21325
852.838	21382
852.973	21507
853.107	21603
853.242	21291
853.376	21260
853.511	21093
853.645	21100
853.78	21332
853.914	21142
854.048	21214
854.183	21222
854.317	21188
854.451	21523
854.585	21165
854.72	21100
854.854	21287
854.988	21222
855.122	21116
855.256	21112
855.39	21100
855.524	21447
855.658	21226
855.792	21214
855.926	21294
856.06	21310
856.194	21207
856.327	21058
856.461	21150
856.595	21165
856.729	21203
856.862	21252
856.996	21199
857.13	21325
857.263	21245
857.397	21230
857.53	21207
857.664	21260
857.797	21230
857.931	21332
858.064	21184
858.197	21298
858.331	21096
858.464	21169
858.597	21077
858.731	21211
858.864	21249
858.997	21207
859.13	21310
859.263	21218
859.396	21313
859.529	21173
859.662	21192
859.795	21135
859.928	21218
860.061	21401
860.194	21412
860.327	21116
860.46	21245
860.592	21256
860.725	21424
860.858	21344
860.99	21237
861.123	21055
861.256	21192
861.388	21195
861.521	21876
861.653	20990
861.786	21001
861.918	20963
862.05	21096
862.183	21108
862.315	21070
862.447	21070
862.58	21119
862.712	20918
862.844	20918
862.976	21074
863.108	20887
863.24	21211
863.372	20838
863.504	20849
863.636	20921
863.768	20998
863.9	20872
864.032	20864
864.164	20979
864.296	20864
864.428	20979
864.559	20845
864.691	21051
864.823	20887
864.954	20853
865.086	20826
865.217	20754
865.349	20735
865.48	20868
865.612	20705
865.743	20921
865.875	20788
866.006	20807
866.137	20815
866.269	20765
866.4	20785
866.531	20739
866.662	20689
866.793	20682
866.924	20834
867.055	20796
867.186	20739
867.317	20754
867.448	20636
867.579	20743
867.71	20686
867.841	20590
867.972	20701
868.103	20708
868.233	20796
868.364	20777
868.495	20785
868.625	20933
868.756	21055
868.886	20925
869.017	20861
869.147	20960
869.278	21066
869.408	21024
869.539	20998
869.669	20982
869.799	21131
869.929	21074
870.06	21001
870.19	21321
870.32	21203
870.45	21283
870.58	21214
870.71	21568
870.84	21458
870.97	21564
871.1	21287
871.23	21469
871.36	21545
871.489	21526
871.619	21458
871.749	21564
871.879	21701
872.008	21682
872.138	21534
872.267	21473
872.397	21325
872.526	21329
872.656	21374
872.785	21412
872.915	21629
873.044	21652
873.173	21511
873.303	21637
873.432	21576
873.561	21713
873.69	21625
873.819	21572
873.948	21759
874.077	21648
874.206	21542
874.335	21568
874.464	21698
874.593	21850
874.722	21701
874.851	21816
874.979	21732
875.108	21850
875.237	21762
875.365	21572
875.494	21846
875.623	21964
875.751	21686
875.88	21800
876.008	22029
876.136	21926
876.265	22169
876.393	22253
876.521	22185
876.65	22257
876.778	22287
876.906	22131
877.034	22086
877.162	22124
877.29	22078
877.418	22185
877.546	22032
877.674	22234
877.802	22116
877.93	22139
878.058	22063
878.185	22097
878.313	22196
878.441	22124
878.568	21903
878.696	22048
878.824	22360
878.951	22181
879.079	22344
879.206	22519
879.333	22348
879.461	22318
879.588	22325
879.715	22360
879.842	22500
879.97	22291
880.097	22032
880.224	21922
880.351	22044
880.478	22063
880.605	21960
880.732	21979
880.859	22276
880.986	21994
881.112	22040
881.239	21895
881.366	21633
881.493	21652
881.619	21644
881.746	21625
881.872	21542
881.999	21511
882.125	21530
882.252	21538
882.378	21462
882.505	21644
882.631	21420
882.757	21291
882.883	21397
883.01	21313
883.136	21233
883.262	21104
883.388	21211
883.514	21351
883.64	21325
883.766	21226
883.892	20982
884.018	21051
884.143	21230
884.269	21466
884.395	20944
884.52	20876
884.646	20895
884.772	20868
884.897	20861
885.023	20861
885.148	20979
885.274	21112
885.399	21024
885.524	20895
885.65	20933
885.775	20914
885.9	20933
886.025	21001
886.15	20963
886.275	20998
886.4	20861
886.525	20872
886.65	20773
886.775	20849
886.9	20929
887.025	21093
887.149	20861
887.274	20758
887.399	20530
887.523	20705
887.648	20617
887.773	20564
887.897	20762
888.021	20667
888.146	20689
888.27	20826
888.395	20826
888.519	20811
888.643	20663
888.767	20796
888.891	20552
889.015	20571
889.139	20571
889.263	20522
889.387	20530
889.511	20708
889.635	20636
889.759	20450
889.883	20530
890.006	20522
890.13	20606
890.254	20492
890.377	20404
890.501	20294
890.624	20210
890.748	20267
890.871	20187
890.995	20062
891.118	20008
891.241	20134
891.364	20134
891.488	20259
891.611	20016
891.734	20069
891.857	20122
891.98	20111
892.103	20126
892.226	20020
892.349	20012
892.471	19917
892.594	19925
892.717	19887
892.839	19970
892.962	20016
893.085	20016
893.207	19925
893.33	19944
893.452	19860
893.575	19989
893.697	19887
893.819	20062
893.941	20317
894.064	20271
894.186	19818
894.308	19822
894.43	20069
894.552	19978
894.674	20077
894.796	19841
894.918	19955
895.04	19909
895.161	19993
895.283	19791
895.405	19807
895.526	20024
895.648	19909
895.769	19947
895.891	19970
896.012	20024
896.134	19902
896.255	19947
896.376	20031
896.498	19932
896.619	19959
896.74	20058
896.861	20069
896.982	20305
897.103	20381
897.224	20183
897.345	20218
897.466	20088
897.587	20153
897.708	20301
897.828	20183
897.949	20065
898.07	20031
898.19	19970
898.311	20298
898.431	20043
898.552	20172
898.672	20157
898.792	20199
898.913	20294
899.033	20088
899.153	20035
899.273	19936
899.393	19936
899.513	19963
899.633	19826
899.753	20027
899.873	19902
899.993	19883
900.113	19811
900.232	19860
900.352	19795
900.472	19715
900.591	19685
900.711	19715
900.83	19594
900.95	19780
901.069	19818
901.189	19453
901.308	19354
901.427	19255
901.546	19266
901.665	19244
901.784	19285
901.904	19194
902.023	19091
902.141	18856
902.26	18783
902.379	18943
902.498	18787
902.617	18791
902.735	18875
902.854	18825
902.973	18745
903.091	18452
903.21	18540
903.328	18502
903.446	18407
903.565	18285
903.683	18391
903.801	18155
903.919	18289
904.038	18197
904.156	18091
904.274	18144
904.392	17935
904.51	18015
904.627	17939
904.745	18060
904.863	18121
904.981	17874
905.098	17794
905.216	17802
905.334	17786
905.451	17646
905.569	17691
905.686	17741
905.803	17760
905.921	17581
906.038	17611
906.155	17566
906.272	17433
906.389	17524
906.506	17250
906.623	17216
906.74	17250
906.857	17113
906.974	17113
907.091	17280
907.208	17311
907.324	17246
907.441	17124
907.557	17010
907.674	16877
907.79	16911
907.907	16995
908.023	16965
908.139	17014
908.256	16908
908.372	16930
908.488	16721
908.604	16744
908.72	16706
908.836	16725
908.952	16729
909.068	16744
909.184	16744
909.3	16694
909.415	16702
909.531	16664
909.647	16478
909.762	16379
909.878	16348
909.993	16382
910.108	16356
910.224	16295
910.339	16390
910.454	16242
910.57	16192
910.685	16185
910.8	16432
910.915	16337
911.03	16139
911.145	16139
911.259	16040
911.374	16040
911.489	15918
911.604	15831
911.718	15698
911.833	15816
911.947	15641
912.062	15511
912.176	15622
912.291	15717
912.405	15717
912.519	15880
912.633	15869
912.748	15762
912.862	15675
912.976	15564
913.09	15454
913.204	15507
913.318	15595
913.431	15698
913.545	15599
913.659	15694
913.772	15595
913.886	15439
914	15408
914.113	15481
914.226	15587
914.34	15405
914.453	15230
914.566	15443
914.68	15332
914.793	15279
914.906	15036
915.019	14963
915.132	14910
915.245	15036
915.358	14979
915.47	15009
915.583	14975
915.696	14994
915.809	15135
915.921	15123
916.034	14986
916.146	14956
916.259	14925
916.371	15024
916.483	14864
916.595	14727
916.708	14918
916.82	14667
916.932	14765
917.044	14788
917.156	14765
917.268	14644
917.38	14670
917.491	14667
917.603	14648
917.715	14667
917.826	14735
917.938	14560
918.049	14400
918.161	14526
918.272	14655
918.384	14743
918.495	14541
918.606	14461
918.717	14313
918.828	14389
918.939	14389
919.05	14210
919.161	14400
919.272	14176
919.383	14202
919.494	14347
919.604	14632
919.715	14427
919.826	14263
919.936	14294
920.047	14343
920.157	14317
920.267	14549
920.378	14381
920.488	14301
920.598	14484
920.708	14712
920.818	14530
920.928	14526
921.038	14716
921.148	14511
921.258	14294
921.368	14199
921.477	14145
921.587	14077
921.697	14008
921.806	14092
921.916	13970
922.025	13811
922.134	13666
922.244	13651
922.353	13795
922.462	13620
922.571	13559
922.68	13449
922.789	13403
922.898	13403
923.007	13225
923.116	13510
923.224	13327
923.333	13362
923.442	13278
923.55	13297
923.659	13270
923.767	13247
923.876	13175
923.984	13209
924.092	13133
924.201	13137
924.309	13156
924.417	13164
924.525	13118
924.633	13152
924.741	13868
924.849	12886
924.956	12962
925.064	12852
925.172	12768
925.279	12840
925.387	12814
925.494	12856
925.602	12897
925.709	12856
925.816	12738
925.924	12738
926.031	12738
926.138	12703
926.245	12951
926.352	12745
926.459	12814
926.566	12795
926.673	12597
926.779	12627
926.886	12616
926.993	12410
927.099	12456
927.206	12308
927.312	12319
927.419	12418
927.525	12334
927.631	12456
927.737	12228
927.843	12258
927.95	12060
928.056	12148
928.162	12254
928.267	12220
928.373	12806
928.479	12361
928.585	12038
928.69	12159
928.796	12251
928.901	12076
929.007	11942
929.112	12152
929.218	11958
929.323	11954
929.428	11961
929.533	12038
929.638	11904
929.743	11958
929.848	11916
929.953	11950
930.058	11775
930.163	11592
930.267	11619
930.372	11771
930.477	11505
930.581	11859
930.685	11688
930.79	11463
930.894	11539
930.998	11505
931.103	11554
931.207	11349
931.311	11223
931.415	11033
931.519	10984
931.623	10892
