Data from test_V78500241_365.txt Node
Date: Fri Mar 25 15:12:24 CST 2022
User: usil
Spectrometer: V785-0024
Trigger mode: 0
Integration Time (sec): 4.000000E-1
Scans to average: 1
Nonlinearity correction enabled: false
Boxcar width: 0
Storing dark spectrum: false
XAxis mode: Wavelengths
Number of Pixels in Spectrum: 1024
>>>>>Begin Spectral Data<<<<<
801.071	27058
801.214	26906
801.356	26708
801.499	26670
801.641	26594
801.783	26644
801.926	26625
802.068	26423
802.211	26377
802.353	26301
802.496	26294
802.638	26286
802.78	26202
802.923	26153
803.065	26088
803.208	26164
803.35	26313
803.492	26282
803.635	26461
803.777	26244
803.919	26453
804.061	26526
804.204	26347
804.346	26278
804.488	26252
804.63	26469
804.773	26248
804.915	26305
805.057	26419
805.199	26301
805.341	26408
805.483	26385
805.626	26495
805.768	26271
805.91	26400
806.052	26438
806.194	26210
806.336	26602
806.478	26366
806.62	26438
806.762	26606
806.904	26602
807.046	27005
807.188	26933
807.33	26769
807.472	26982
807.614	26849
807.756	26868
807.898	26720
808.04	26571
808.182	26746
808.324	26701
808.465	26636
808.607	26849
808.749	26948
808.891	27093
809.033	27291
809.174	27161
809.316	26952
809.458	27085
809.6	26925
809.741	27074
809.883	27192
810.025	27294
810.166	27195
810.308	27222
810.45	27321
810.591	27272
810.733	27096
810.875	26910
811.016	26906
811.158	26842
811.299	27116
811.441	27142
811.582	27173
811.724	26979
811.865	26876
812.007	26895
812.148	26910
812.29	27051
812.431	27146
812.573	27416
812.714	27477
812.855	27519
812.997	27660
813.138	27641
813.279	27698
813.421	27587
813.562	27625
813.703	27256
813.845	27249
813.986	27043
814.127	26864
814.268	26552
814.41	26712
814.551	26621
814.692	26811
814.833	26450
814.974	26648
815.115	26663
815.256	26648
815.397	26720
815.539	26526
815.68	26381
815.821	26320
815.962	26453
816.103	26355
816.244	26252
816.385	26278
816.526	26153
816.666	26062
816.807	25894
816.948	26024
817.089	26050
817.23	25989
817.371	26050
817.512	25830
817.653	25868
817.793	25921
817.934	25955
818.075	26046
818.216	25780
818.356	26001
818.497	25685
818.638	25628
818.778	25788
818.919	25605
819.06	25757
819.2	25761
819.341	25845
819.481	25898
819.622	26024
819.762	26252
819.903	26240
820.043	26035
820.184	26065
820.324	26172
820.465	26180
820.605	26096
820.746	26024
820.886	25955
821.026	26005
821.167	26039
821.307	26084
821.447	25932
821.588	25898
821.728	25677
821.868	25658
822.008	25514
822.149	25346
822.289	25384
822.429	25187
822.569	25110
822.709	25057
822.849	24859
822.99	24913
823.13	24852
823.27	24787
823.41	24681
823.55	24623
823.69	24734
823.83	24768
823.97	24585
824.11	24528
824.25	24429
824.389	24525
824.529	24589
824.669	24566
824.809	24688
824.949	24532
825.089	24639
825.228	24650
825.368	24422
825.508	24528
825.648	24509
825.787	24525
825.927	24304
826.067	24391
826.206	24494
826.346	24414
826.485	24422
826.625	24426
826.765	24445
826.904	24289
827.044	24213
827.183	24194
827.323	24026
827.462	24167
827.601	24136
827.741	24186
827.88	24057
828.02	24091
828.159	24117
828.298	24159
828.437	24296
828.577	24110
828.716	24296
828.855	24121
828.994	23729
829.134	23764
829.273	23916
829.412	23832
829.551	23649
829.69	23802
829.829	23840
829.968	23950
830.107	23920
830.246	23859
830.385	23729
830.524	23672
830.663	23676
830.802	23516
830.941	23448
831.08	23459
831.219	23524
831.357	23539
831.496	23661
831.635	23398
831.774	23421
831.913	23425
832.051	23239
832.19	23280
832.329	23254
832.467	23105
832.606	23143
832.744	23086
832.883	23060
833.022	22968
833.16	23041
833.299	23284
833.437	23083
833.576	23174
833.714	23124
833.852	23166
833.991	23166
834.129	23273
834.267	23307
834.406	23216
834.544	23193
834.682	23246
834.821	23178
834.959	23417
835.097	23258
835.235	23261
835.373	23185
835.511	23277
835.65	23067
835.788	23041
835.926	22949
836.064	22877
836.202	23052
836.34	23159
836.478	23136
836.615	23022
836.753	23124
836.891	23174
837.029	23071
837.167	23102
837.305	22984
837.443	22934
837.58	22961
837.718	22980
837.856	23018
837.993	22812
838.131	22885
838.269	22835
838.406	22752
838.544	22805
838.681	22637
838.819	22546
838.956	22310
839.094	22299
839.231	22474
839.369	22557
839.506	22839
839.643	22618
839.781	22402
839.918	22299
840.055	22409
840.193	22382
840.33	22325
840.467	22421
840.604	22348
840.742	22531
840.879	22215
841.016	22268
841.153	22272
841.29	22417
841.427	22337
841.564	22379
841.701	22291
841.838	22352
841.975	22242
842.112	22333
842.249	22192
842.385	21941
842.522	22169
842.659	22120
842.796	22002
842.933	22147
843.069	22025
843.206	22093
843.343	22192
843.479	22173
843.616	21998
843.752	21781
843.889	21949
844.025	21956
844.162	21888
844.298	21895
844.435	21804
844.571	21930
844.708	21964
844.844	22070
844.98	21903
845.117	21918
845.253	21728
845.389	21724
845.525	21701
845.661	21694
845.798	21511
845.934	21580
846.07	21564
846.206	21606
846.342	21705
846.478	21618
846.614	21466
846.75	21325
846.886	21302
847.022	21359
847.158	21298
847.294	21557
847.429	21287
847.565	21363
847.701	21580
847.837	21154
847.972	20910
848.108	21119
848.244	21226
848.379	20891
848.515	21036
848.65	20944
848.786	20971
848.921	20967
849.057	21028
849.192	21043
849.328	20982
849.463	20971
849.598	20899
849.734	20899
849.869	20834
850.004	20823
850.14	20705
850.275	20746
850.41	20617
850.545	20594
850.68	20773
850.815	20689
850.95	20716
851.085	20876
851.22	20762
851.355	20815
851.49	20743
851.625	20659
851.76	20625
851.895	20651
852.03	20689
852.165	20682
852.299	20762
852.434	20811
852.569	20788
852.703	20716
852.838	20758
852.973	20769
853.107	20800
853.242	20537
853.376	20640
853.511	20431
853.645	20564
853.78	20606
853.914	20655
854.048	20571
854.183	20564
854.317	20545
854.451	20765
854.585	20514
854.72	20503
854.854	20594
854.988	20514
855.122	20526
855.256	20522
855.39	20602
855.524	20541
855.658	20568
855.792	20644
855.926	20537
856.06	20564
856.194	20701
856.327	20503
856.461	20545
856.595	20617
856.729	20442
856.862	20636
856.996	20507
857.13	20689
857.263	20609
857.397	20705
857.53	20606
857.664	20648
857.797	20549
857.931	20762
858.064	20594
858.197	20503
858.331	20598
858.464	20465
858.597	20461
858.731	20476
858.864	20560
858.997	20571
859.13	20537
859.263	20636
859.396	20701
859.529	20473
859.662	20564
859.795	20488
859.928	20545
860.061	20689
860.194	20845
860.327	20651
860.46	20579
860.592	20552
860.725	20762
860.858	20606
860.99	20621
861.123	20400
861.256	20590
861.388	20522
861.521	21173
861.653	20408
861.786	20393
861.918	20396
862.05	20389
862.183	20526
862.315	20609
862.447	20450
862.58	20537
862.712	20301
862.844	20164
862.976	20473
863.108	20355
863.24	20743
863.372	20267
863.504	20355
863.636	20290
863.768	20305
863.9	20282
864.032	20149
864.164	20286
864.296	20305
864.428	20362
864.559	20499
864.691	20530
864.823	20408
864.954	20400
865.086	20187
865.217	20187
865.349	20065
865.48	20191
865.612	20256
865.743	20362
865.875	20252
866.006	20088
866.137	20138
866.269	20202
866.4	20202
866.531	20115
866.662	20210
866.793	20077
866.924	20161
867.055	20161
867.186	20039
867.317	20134
867.448	20111
867.579	20073
867.71	20024
867.841	19951
867.972	20130
868.103	20134
868.233	20164
868.364	20248
868.495	20233
868.625	20412
868.756	20412
868.886	20317
869.017	20434
869.147	20377
869.278	20552
869.408	20419
869.539	20339
869.669	20549
869.799	20343
869.929	20469
870.06	20442
870.19	20735
870.32	20587
870.45	20682
870.58	20686
870.71	20975
870.84	20823
870.97	20667
871.1	20804
871.23	20864
871.36	21009
871.489	20895
871.619	20838
871.749	21009
871.879	21058
872.008	20971
872.138	20967
872.267	21058
872.397	20762
872.526	20708
872.656	20834
872.785	20777
872.915	20845
873.044	21127
873.173	21051
873.303	21051
873.432	20979
873.561	21127
873.69	21043
873.819	20979
873.948	21131
874.077	21077
874.206	21005
874.335	21013
874.464	21154
874.593	21283
874.722	21192
874.851	21275
874.979	21252
875.108	21348
875.237	21207
875.365	21131
875.494	21211
875.623	21256
875.751	21218
875.88	21199
876.008	21317
876.136	21416
876.265	21587
876.393	21778
876.521	21618
876.65	21644
876.778	21606
876.906	21580
877.034	21641
877.162	21641
877.29	21591
877.418	21599
877.546	21633
877.674	21599
877.802	21580
877.93	21633
878.058	21572
878.185	21526
878.313	21500
878.441	21545
878.568	21370
878.696	21519
878.824	21633
878.951	21728
879.079	21770
879.206	21964
879.333	21766
879.461	21576
879.588	21679
879.715	21679
879.842	21766
879.97	21553
880.097	21443
880.224	21348
880.351	21466
880.478	21408
880.605	21412
880.732	21416
880.859	21694
880.986	21443
881.112	21447
881.239	21237
881.366	21135
881.493	21005
881.619	21055
881.746	21062
881.872	21077
881.999	20899
882.125	20963
882.252	21157
882.378	21001
882.505	21081
882.631	20842
882.757	20777
882.883	20720
883.01	20716
883.136	20644
883.262	20632
883.388	20518
883.514	20758
883.64	20781
883.766	20636
883.892	20423
884.018	20499
884.143	20629
884.269	20811
884.395	20351
884.52	20358
884.646	20400
884.772	20313
884.897	20252
885.023	20286
885.148	20438
885.274	20575
885.399	20415
885.524	20438
885.65	20336
885.775	20294
885.9	20290
886.025	20370
886.15	20442
886.275	20328
886.4	20187
886.525	20286
886.65	20244
886.775	20324
886.9	20419
887.025	20560
887.149	20366
887.274	20164
887.399	20096
887.523	20157
887.648	20027
887.773	20100
887.897	20237
888.021	20138
888.146	19993
888.27	20100
888.395	20157
888.519	20122
888.643	20202
888.767	20191
888.891	20027
889.015	19921
889.139	19864
889.263	19959
889.387	20024
889.511	20115
889.635	20046
889.759	19814
889.883	19982
890.006	19913
890.13	20058
890.254	19833
890.377	19753
890.501	19681
890.624	19643
890.748	19753
890.871	19567
890.995	19529
891.118	19483
891.241	19594
891.364	19434
891.488	19616
891.611	19521
891.734	19575
891.857	19556
891.98	19419
892.103	19548
892.226	19548
892.349	19472
892.471	19339
892.594	19464
892.717	19521
892.839	19445
892.962	19426
893.085	19480
893.207	19434
893.33	19316
893.452	19343
893.575	19518
893.697	19381
893.819	19476
893.941	19715
894.064	19685
894.186	19278
894.308	19354
894.43	19384
894.552	19563
894.674	19506
894.796	19373
894.918	19343
895.04	19343
895.161	19460
895.283	19464
895.405	19495
895.526	19460
895.648	19468
895.769	19354
895.891	19483
896.012	19457
896.134	19411
896.255	19483
896.376	19381
896.498	19339
896.619	19449
896.74	19529
896.861	19438
896.982	19837
897.103	19944
897.224	19681
897.345	19731
897.466	19537
897.587	19601
897.708	19757
897.828	19594
897.949	19533
898.07	19514
898.19	19605
898.311	19746
898.431	19628
898.552	19662
898.672	19772
898.792	19712
898.913	19655
899.033	19578
899.153	19468
899.273	19373
899.393	19381
899.513	19525
899.633	19491
899.753	19506
899.873	19301
899.993	19396
900.113	19331
900.232	19354
900.352	19339
900.472	19327
900.591	19133
900.711	19251
900.83	19187
900.95	19251
901.069	19240
901.189	19091
901.308	18878
901.427	18787
901.546	18871
901.665	18795
901.784	18871
901.904	18616
902.023	18601
902.141	18395
902.26	18338
902.379	18452
902.498	18410
902.617	18308
902.735	18365
902.854	18346
902.973	18239
903.091	17958
903.21	17984
903.328	17946
903.446	17920
903.565	17920
903.683	17726
903.801	17630
903.919	17748
904.038	17767
904.156	17562
904.274	17611
904.392	17486
904.51	17630
904.627	17528
904.745	17611
904.863	17642
904.981	17402
905.098	17239
905.216	17174
905.334	17292
905.451	17345
905.569	17242
905.686	17356
905.803	17204
905.921	17094
906.038	17140
906.155	17117
906.272	16968
906.389	16972
906.506	16752
906.623	16839
906.74	16797
906.857	16675
906.974	16755
907.091	16835
907.208	16900
907.324	16767
907.441	16691
907.557	16508
907.674	16664
907.79	16489
907.907	16546
908.023	16405
908.139	16535
908.256	16394
908.372	16474
908.488	16390
908.604	16284
908.72	16188
908.836	16265
908.952	16246
909.068	16223
909.184	16360
909.3	16192
909.415	16265
909.531	16253
909.647	16021
909.762	15987
909.878	15956
909.993	15888
910.108	15960
910.224	15972
910.339	15903
910.454	15903
910.57	15831
910.685	15819
910.8	15964
910.915	15869
911.03	15827
911.145	15599
911.259	15622
911.374	15504
911.489	15568
911.604	15443
911.718	15378
911.833	15397
911.947	15264
912.062	15085
912.176	15245
912.291	15321
912.405	15344
912.519	15561
912.633	15507
912.748	15332
912.862	15230
912.976	15192
913.09	15146
913.204	15081
913.318	15074
913.431	15340
913.545	15165
913.659	15237
913.772	15089
913.886	14967
914	14861
914.113	14902
914.226	15104
914.34	14971
914.453	14868
914.566	14986
914.68	14914
914.793	14838
914.906	14663
915.019	14644
915.132	14583
915.245	14583
915.358	14594
915.47	14530
915.583	14602
915.696	14629
915.809	14731
915.921	14731
916.034	14560
916.146	14556
916.259	14461
916.371	14514
916.483	14480
916.595	14396
916.708	14419
916.82	14374
916.932	14419
917.044	14427
917.156	14248
917.268	14244
917.38	14290
917.491	14221
917.603	14267
917.715	14294
917.826	14301
917.938	14145
918.049	14145
918.161	14248
918.272	14282
918.384	14278
918.495	14210
918.606	14012
918.717	13959
918.828	14031
918.939	14100
919.05	13951
919.161	14043
919.272	13860
919.383	13830
919.494	14050
919.604	14271
919.715	14050
919.826	13913
919.936	13974
920.047	14107
920.157	14012
920.267	14149
920.378	13913
920.488	13917
920.598	14168
920.708	14298
920.818	14237
920.928	14115
921.038	14309
921.148	14183
921.258	14001
921.368	13902
921.477	13849
921.587	13742
921.697	13567
921.806	13837
921.916	13578
922.025	13594
922.134	13400
922.244	13426
922.353	13506
922.462	13388
922.571	13198
922.68	13042
922.789	12947
922.898	13065
923.007	12958
923.116	13099
923.224	13042
923.333	13076
923.442	12947
923.55	12954
923.659	12932
923.767	12901
923.876	12867
923.984	12932
924.092	12787
924.201	12878
924.309	12916
924.417	12856
924.525	12703
924.633	12829
924.741	13533
924.849	12536
924.956	12741
925.064	12601
925.172	12467
925.279	12422
925.387	12544
925.494	12464
925.602	12711
925.709	12608
925.816	12506
925.924	12536
926.031	12528
926.138	12494
926.245	12494
926.352	12391
926.459	12464
926.566	12555
926.673	12475
926.779	12342
926.886	12232
926.993	12159
927.099	12068
927.206	12041
927.312	12015
927.419	12136
927.525	12083
927.631	12213
927.737	12007
927.843	11916
927.95	11824
928.056	11878
928.162	11969
928.267	11996
928.373	12589
928.479	12049
928.585	11775
928.69	11843
928.796	11984
928.901	11809
929.007	11718
929.112	11794
929.218	11707
929.323	11642
929.428	11684
929.533	11760
929.638	11577
929.743	11592
929.848	11707
929.953	11634
930.058	11562
930.163	11337
930.267	11356
930.372	11474
930.477	11307
930.581	11581
930.685	11284
930.79	11277
930.894	11277
930.998	11235
931.103	11429
931.207	11083
931.311	10972
931.415	10824
931.519	10580
931.623	10691
