Data from test_V78500241_1187.txt Node
Date: Fri Mar 25 15:18:07 CST 2022
User: usil
Spectrometer: V785-0024
Trigger mode: 0
Integration Time (sec): 4.000000E-1
Scans to average: 1
Nonlinearity correction enabled: false
Boxcar width: 0
Storing dark spectrum: false
XAxis mode: Wavelengths
Number of Pixels in Spectrum: 1024
>>>>>Begin Spectral Data<<<<<
801.071	27895
801.214	27835
801.356	27553
801.499	27386
801.641	27393
801.783	27321
801.926	27431
802.068	27530
802.211	27363
802.353	27397
802.496	27047
802.638	27001
802.78	27005
802.923	26971
803.065	26960
803.208	26857
803.35	27005
803.492	27138
803.635	27226
803.777	27001
803.919	27237
804.061	27648
804.204	27195
804.346	27169
804.488	27089
804.63	27199
804.773	27161
804.915	27237
805.057	27359
805.199	27351
805.341	27325
805.483	27450
805.626	27420
805.768	27321
805.91	27294
806.052	27393
806.194	27203
806.336	27557
806.478	27492
806.62	27447
806.762	27420
806.904	27644
807.046	27907
807.188	27766
807.33	27732
807.472	27930
807.614	27656
807.756	27911
807.898	27606
808.04	27595
808.182	27717
808.324	27648
808.465	27747
808.607	27880
808.749	27914
808.891	27987
809.033	28272
809.174	28002
809.316	27895
809.458	28006
809.6	27960
809.741	28017
809.883	28040
810.025	28299
810.166	28230
810.308	28295
810.45	28306
810.591	28139
810.733	28090
810.875	28040
811.016	27876
811.158	27869
811.299	28120
811.441	28021
811.582	28128
811.724	27994
811.865	28002
812.007	27934
812.148	28044
812.29	28097
812.431	28120
812.573	28356
812.714	28405
812.855	28565
812.997	28531
813.138	28733
813.279	28656
813.421	28512
813.562	28489
813.703	28253
813.845	28268
813.986	27968
814.127	27861
814.268	27591
814.41	27720
814.551	27652
814.692	27842
814.833	27671
814.974	27701
815.115	27618
815.256	27622
815.397	27587
815.539	27534
815.68	27447
815.821	27504
815.962	27420
816.103	27500
816.244	27272
816.385	27298
816.526	27268
816.666	27119
816.807	27085
816.948	27009
817.089	27138
817.23	27093
817.371	27001
817.512	27005
817.653	27013
817.793	27047
817.934	26899
818.075	27055
818.216	27070
818.356	26902
818.497	26804
818.638	26606
818.778	26693
818.919	26773
819.06	26868
819.2	26975
819.341	27077
819.481	26880
819.622	27096
819.762	27302
819.903	27325
820.043	27344
820.184	27077
820.324	27195
820.465	27195
820.605	27119
820.746	27116
820.886	27089
821.026	26986
821.167	27089
821.307	26998
821.447	26982
821.588	26914
821.728	26952
821.868	26609
822.008	26545
822.149	26442
822.289	26587
822.429	26214
822.569	26115
822.709	26218
822.849	26081
822.99	26050
823.13	26100
823.27	25799
823.41	25818
823.55	25708
823.69	25830
823.83	25826
823.97	25719
824.11	25525
824.25	25624
824.389	25563
824.529	25738
824.669	25601
824.809	25780
824.949	25670
825.089	25746
825.228	25506
825.368	25514
825.508	25552
825.648	25476
825.787	25586
825.927	25666
826.067	25495
826.206	25468
826.346	25662
826.485	25727
826.625	25567
826.765	25670
826.904	25559
827.044	25301
827.183	25320
827.323	25168
827.462	25335
827.601	25285
827.741	25194
827.88	25247
828.02	25171
828.159	25194
828.298	25228
828.437	25187
828.577	25232
828.716	25335
828.855	25168
828.994	25023
829.134	25034
829.273	24962
829.412	24981
829.551	24966
829.69	24985
829.829	24833
829.968	25004
830.107	24989
830.246	25072
830.385	24996
830.524	24791
830.663	24829
830.802	24707
830.941	24616
831.08	24532
831.219	24719
831.357	24654
831.496	24779
831.635	24566
831.774	24452
831.913	24448
832.051	24471
832.19	24372
832.329	24448
832.467	24353
832.606	24171
832.744	24213
832.883	24311
833.022	24254
833.16	24308
833.299	24254
833.437	24342
833.576	24342
833.714	24281
833.852	24395
833.991	24429
834.129	24502
834.267	24308
834.406	24281
834.544	24407
834.682	24384
834.821	24323
834.959	24418
835.097	24285
835.235	24315
835.373	24410
835.511	24190
835.65	24258
835.788	24133
835.926	23939
836.064	24038
836.202	23882
836.34	24079
836.478	24171
836.615	24011
836.753	24083
836.891	24247
837.029	24247
837.167	24148
837.305	24174
837.443	24068
837.58	23984
837.718	24186
837.856	24038
837.993	23901
838.131	24064
838.269	23828
838.406	23809
838.544	23855
838.681	23638
838.819	23634
838.956	23493
839.094	23490
839.231	23493
839.369	23543
839.506	23760
839.643	23661
839.781	23471
839.918	23353
840.055	23379
840.193	23474
840.33	23261
840.467	23421
840.604	23421
840.742	23668
840.879	23383
841.016	23292
841.153	23269
841.29	23425
841.427	23223
841.564	23440
841.701	23520
841.838	23280
841.975	23231
842.112	23330
842.249	23174
842.385	23162
842.522	23463
842.659	23197
842.796	23166
842.933	23220
843.069	22987
843.206	23155
843.343	23159
843.479	23200
843.616	23181
843.752	22911
843.889	22961
844.025	23178
844.162	22930
844.298	23006
844.435	22980
844.571	22904
844.708	23064
844.844	23105
844.98	23060
845.117	22946
845.253	22877
845.389	22725
845.525	22812
845.661	22717
845.798	22710
845.934	22618
846.07	22611
846.206	22755
846.342	22721
846.478	22599
846.614	22375
846.75	22363
846.886	22451
847.022	22333
847.158	22424
847.294	22386
847.429	22341
847.565	22440
847.701	22535
847.837	22192
847.972	22040
848.108	22249
848.244	22219
848.379	22055
848.515	21857
848.65	21876
848.786	22010
848.921	22029
849.057	22131
849.192	22025
849.328	22166
849.463	21930
849.598	21922
849.734	21770
849.869	21869
850.004	21873
850.14	21755
850.275	21743
850.41	21656
850.545	21641
850.68	21656
850.815	21812
850.95	21766
851.085	21759
851.22	21819
851.355	21755
851.49	21762
851.625	21660
851.76	21644
851.895	21705
852.03	21656
852.165	21774
852.299	21736
852.434	21823
852.569	21819
852.703	21827
852.838	21774
852.973	21823
853.107	21892
853.242	21690
853.376	21526
853.511	21564
853.645	21606
853.78	21694
853.914	21606
854.048	21428
854.183	21545
854.317	21523
854.451	21736
854.585	21519
854.72	21530
854.854	21637
854.988	21443
855.122	21587
855.256	21481
855.39	21435
855.524	21580
855.658	21545
855.792	21526
855.926	21481
856.06	21576
856.194	21637
856.327	21534
856.461	21477
856.595	21538
856.729	21576
856.862	21652
856.996	21557
857.13	21682
857.263	21564
857.397	21549
857.53	21526
857.664	21538
857.797	21595
857.931	21663
858.064	21622
858.197	21694
858.331	21538
858.464	21450
858.597	21348
858.731	21473
858.864	21622
858.997	21599
859.13	21504
859.263	21511
859.396	21652
859.529	21549
859.662	21367
859.795	21412
859.928	21576
860.061	21686
860.194	21770
860.327	21583
860.46	21511
860.592	21652
860.725	21720
860.858	21709
860.99	21469
861.123	21458
861.256	21462
861.388	21519
861.521	22337
861.653	21462
861.786	21408
861.918	21443
862.05	21530
862.183	21564
862.315	21481
862.447	21618
862.58	21431
862.712	21226
862.844	21138
862.976	21317
863.108	21469
863.24	21534
863.372	21112
863.504	21325
863.636	21389
863.768	21298
863.9	21199
864.032	21268
864.164	21230
864.296	21291
864.428	21386
864.559	21260
864.691	21321
864.823	21207
864.954	21291
865.086	21237
865.217	21214
865.349	21112
865.48	21207
865.612	21161
865.743	21214
865.875	21142
866.006	21188
866.137	21138
866.269	21165
866.4	21199
866.531	21230
866.662	21058
866.793	21036
866.924	21146
867.055	21093
867.186	21036
867.317	21017
867.448	21100
867.579	21081
867.71	21055
867.841	20868
867.972	21119
868.103	21036
868.233	21058
868.364	21116
868.495	21165
868.625	21268
868.756	21378
868.886	21313
869.017	21359
869.147	21310
869.278	21496
869.408	21382
869.539	21226
869.669	21424
869.799	21340
869.929	21363
870.06	21462
870.19	21568
870.32	21610
870.45	21530
870.58	21675
870.71	21724
870.84	21774
870.97	21679
871.1	21747
871.23	21861
871.36	22006
871.489	21827
871.619	21793
871.749	21812
871.879	21949
872.008	22013
872.138	21926
872.267	21979
872.397	21728
872.526	21694
872.656	21736
872.785	21660
872.915	21918
873.044	22021
873.173	21884
873.303	21975
873.432	21880
873.561	22143
873.69	21979
873.819	22002
873.948	21941
874.077	22040
874.206	21850
874.335	21941
874.464	22147
874.593	22211
874.722	22097
874.851	22207
874.979	22238
875.108	22215
875.237	22143
875.365	22059
875.494	22093
875.623	22177
875.751	22143
875.88	22280
876.008	22284
876.136	22337
876.265	22546
876.393	22630
876.521	22672
876.65	22656
876.778	22713
876.906	22573
877.034	22504
877.162	22512
877.29	22497
877.418	22519
877.546	22500
877.674	22489
877.802	22668
877.93	22519
878.058	22413
878.185	22390
878.313	22417
878.441	22428
878.568	22337
878.696	22523
878.824	22538
878.951	22691
879.079	22641
879.206	22843
879.333	22831
879.461	22519
879.588	22694
879.715	22656
879.842	22771
879.97	22649
880.097	22325
880.224	22489
880.351	22428
880.478	22470
880.605	22382
880.732	22421
880.859	22485
880.986	22398
881.112	22306
881.239	22322
881.366	22143
881.493	22086
881.619	21899
881.746	21934
881.872	21975
881.999	21911
882.125	21827
882.252	22105
882.378	21956
882.505	22116
882.631	21793
882.757	21675
882.883	21644
883.01	21743
883.136	21663
883.262	21412
883.388	21473
883.514	21720
883.64	21652
883.766	21610
883.892	21370
884.018	21412
884.143	21534
884.269	21618
884.395	21458
884.52	21214
884.646	21256
884.772	21150
884.897	21188
885.023	21310
885.148	21310
885.274	21348
885.399	21435
885.524	21287
885.65	21332
885.775	21218
885.9	21260
886.025	21329
886.15	21325
886.275	21401
886.4	21119
886.525	21230
886.65	21116
886.775	21207
886.9	21378
887.025	21424
887.149	21298
887.274	21009
887.399	21081
887.523	20982
887.648	21024
887.773	20979
887.897	21188
888.021	21062
888.146	20982
888.27	21070
888.395	21100
888.519	21085
888.643	21081
888.767	21081
888.891	20937
889.015	20891
889.139	20861
889.263	20807
889.387	20861
889.511	20956
889.635	20910
889.759	20758
889.883	20845
890.006	20811
890.13	20914
890.254	20701
890.377	20697
890.501	20689
890.624	20571
890.748	20530
890.871	20305
890.995	20393
891.118	20343
891.241	20427
891.364	20362
891.488	20533
891.611	20328
891.734	20210
891.857	20469
891.98	20366
892.103	20499
892.226	20533
892.349	20419
892.471	20301
892.594	20298
892.717	20282
892.839	20282
892.962	20206
893.085	20275
893.207	20221
893.33	20191
893.452	20317
893.575	20240
893.697	20282
893.819	20495
893.941	20476
894.064	20415
894.186	20142
894.308	20119
894.43	20385
894.552	20423
894.674	20305
894.796	20183
894.918	20221
895.04	20119
895.161	20347
895.283	20286
895.405	20229
895.526	20248
895.648	20317
895.769	20366
895.891	20263
896.012	20370
896.134	20358
896.255	20199
896.376	20248
896.498	20278
896.619	20290
896.74	20237
896.861	20366
896.982	20739
897.103	20705
897.224	20545
897.345	20419
897.466	20374
897.587	20549
897.708	20621
897.828	20526
897.949	20336
898.07	20298
898.19	20511
898.311	20575
898.431	20476
898.552	20495
898.672	20629
898.792	20560
898.913	20587
899.033	20396
899.153	20374
899.273	20244
899.393	20271
899.513	20199
899.633	20237
899.753	20176
899.873	20145
899.993	20313
900.113	20214
900.232	20107
900.352	20122
900.472	20046
900.591	19997
900.711	20016
900.83	20073
900.95	20050
901.069	19997
901.189	19875
901.308	19613
901.427	19571
901.546	19552
901.665	19605
901.784	19628
901.904	19514
902.023	19388
902.141	19240
902.26	19126
902.379	19152
902.498	19095
902.617	19012
902.735	19110
902.854	19053
902.973	19008
903.091	18764
903.21	18833
903.328	18722
903.446	18719
903.565	18559
903.683	18544
903.801	18437
903.919	18547
904.038	18528
904.156	18319
904.274	18448
904.392	18300
904.51	18429
904.627	18258
904.745	18350
904.863	18384
904.981	18129
905.098	18034
905.216	18022
905.334	18003
905.451	18091
905.569	17980
905.686	18083
905.803	17969
905.921	17965
906.038	17851
906.155	17927
906.272	17737
906.389	17874
906.506	17589
906.623	17562
906.74	17524
906.857	17376
906.974	17528
907.091	17653
907.208	17687
907.324	17589
907.441	17478
907.557	17341
907.674	17242
907.79	17239
907.907	17288
908.023	17322
908.139	17273
908.256	17220
908.372	17166
908.488	17143
908.604	17037
908.72	17025
908.836	16984
908.952	16885
909.068	16961
909.184	17090
909.3	16911
909.415	17025
909.531	16972
909.647	16767
909.762	16869
909.878	16713
909.993	16771
910.108	16675
910.224	16721
910.339	16679
910.454	16626
910.57	16516
910.685	16451
910.8	16656
910.915	16653
911.03	16474
911.145	16299
911.259	16242
911.374	16276
911.489	16150
911.604	16139
911.718	16074
911.833	16109
911.947	15937
912.062	15835
912.176	16010
912.291	16032
912.405	15949
912.519	16124
912.633	16124
912.748	15979
912.862	16032
912.976	15930
913.09	15781
913.204	15804
913.318	15903
913.431	16017
913.545	16032
913.659	15937
913.772	15793
913.886	15625
914	15633
914.113	15751
914.226	15736
914.34	15701
914.453	15542
914.566	15705
914.68	15663
914.793	15466
914.906	15355
915.019	15222
915.132	15294
915.245	15260
915.358	15313
915.47	15233
915.583	15325
915.696	15222
915.809	15329
915.921	15332
916.034	15169
916.146	15150
916.259	15142
916.371	15252
916.483	15100
916.595	15066
916.708	15077
916.82	15058
916.932	15017
917.044	15036
917.156	15017
917.268	14849
917.38	14921
917.491	14910
917.603	14906
917.715	14891
917.826	15097
917.938	14788
918.049	14720
918.161	14849
918.272	14971
918.384	15028
918.495	14941
918.606	14735
918.717	14602
918.828	14575
918.939	14686
919.05	14537
919.161	14610
919.272	14431
919.383	14461
919.494	14670
919.604	14807
919.715	14686
919.826	14552
919.936	14606
920.047	14743
920.157	14594
920.267	14746
920.378	14556
920.488	14590
920.598	14750
920.708	14872
920.818	14705
920.928	14773
921.038	14975
921.148	14842
921.258	14632
921.368	14454
921.477	14381
921.587	14252
921.697	14130
921.806	14374
921.916	14195
922.025	14077
922.134	14035
922.244	13959
922.353	14008
922.462	13860
922.571	13791
922.68	13666
922.789	13696
922.898	13666
923.007	13567
923.116	13647
923.224	13643
923.333	13605
923.442	13548
923.55	13449
923.659	13540
923.767	13582
923.876	13430
923.984	13403
924.092	13377
924.201	13373
924.309	13358
924.417	13373
924.525	13266
924.633	13362
924.741	14058
924.849	13137
924.956	13232
925.064	13103
925.172	12973
925.279	13015
925.387	13110
925.494	13072
925.602	13141
925.709	13015
925.816	12932
925.924	13042
926.031	12985
926.138	12935
926.245	13008
926.352	12863
926.459	13031
926.566	13069
926.673	12837
926.779	12882
926.886	12844
926.993	12623
927.099	12627
927.206	12631
927.312	12540
927.419	12711
927.525	12532
927.631	12582
927.737	12426
927.843	12475
927.95	12334
928.056	12460
928.162	12433
928.267	12460
928.373	12909
928.479	12471
928.585	12285
928.69	12380
928.796	12441
928.901	12350
929.007	12129
929.112	12308
929.218	12175
929.323	12140
929.428	12178
929.533	12163
929.638	12167
929.743	12041
929.848	12182
929.953	12159
930.058	11939
930.163	11840
930.267	11863
930.372	11969
930.477	11798
930.581	11996
930.685	11866
930.79	11691
930.894	11745
930.998	11726
931.103	11866
931.207	11516
931.311	11368
931.415	11250
931.519	11128
931.623	11143
