Data from test_V78500241_969.txt Node
Date: Fri Mar 25 15:16:36 CST 2022
User: usil
Spectrometer: V785-0024
Trigger mode: 0
Integration Time (sec): 4.000000E-1
Scans to average: 1
Nonlinearity correction enabled: false
Boxcar width: 0
Storing dark spectrum: false
XAxis mode: Wavelengths
Number of Pixels in Spectrum: 1024
>>>>>Begin Spectral Data<<<<<
801.071	28188
801.214	27991
801.356	27949
801.499	27892
801.641	27641
801.783	27698
801.926	27747
802.068	27701
802.211	27435
802.353	27519
802.496	27431
802.638	27241
802.78	27332
802.923	27287
803.065	27302
803.208	27374
803.35	27348
803.492	27363
803.635	27538
803.777	27412
803.919	27591
804.061	27770
804.204	27568
804.346	27389
804.488	27515
804.63	27519
804.773	27496
804.915	27439
805.057	27580
805.199	27587
805.341	27637
805.483	27717
805.626	27732
805.768	27599
805.91	27633
806.052	27587
806.194	27519
806.336	27846
806.478	27614
806.62	27690
806.762	27873
806.904	27972
807.046	28211
807.188	28287
807.33	28032
807.472	28063
807.614	28017
807.756	27964
807.898	27930
808.04	27899
808.182	28013
808.324	27857
808.465	27998
808.607	28310
808.749	28192
808.891	28409
809.033	28512
809.174	28401
809.316	28360
809.458	28147
809.6	28261
809.741	28466
809.883	28379
810.025	28649
810.166	28592
810.308	28599
810.45	28459
810.591	28523
810.733	28371
810.875	28249
811.016	28310
811.158	28284
811.299	28428
811.441	28409
811.582	28375
811.724	28352
811.865	28291
812.007	28265
812.148	28398
812.29	28413
812.431	28440
812.573	28668
812.714	28713
812.855	28759
812.997	28987
813.138	29090
813.279	28980
813.421	28885
813.562	28843
813.703	28767
813.845	28649
813.986	28276
814.127	28169
814.268	28074
814.41	28051
814.551	27983
814.692	28063
814.833	27968
814.974	27975
815.115	28032
815.256	27911
815.397	27983
815.539	27911
815.68	27774
815.821	27854
815.962	27911
816.103	27865
816.244	27785
816.385	27622
816.526	27526
816.666	27450
816.807	27416
816.948	27500
817.089	27382
817.23	27268
817.371	27359
817.512	27279
817.653	27313
817.793	27245
817.934	27466
818.075	27374
818.216	27386
818.356	27291
818.497	27272
818.638	27104
818.778	27074
818.919	27104
819.06	27203
819.2	27138
819.341	27332
819.481	27393
819.622	27523
819.762	27663
819.903	27610
820.043	27485
820.184	27393
820.324	27397
820.465	27606
820.605	27405
820.746	27538
820.886	27264
821.026	27515
821.167	27313
821.307	27534
821.447	27344
821.588	27298
821.728	27138
821.868	27028
822.008	26815
822.149	26834
822.289	26750
822.429	26552
822.569	26457
822.709	26530
822.849	26362
822.99	26465
823.13	26343
823.27	26309
823.41	26073
823.55	26092
823.69	26157
823.83	26058
823.97	26138
824.11	25963
824.25	25993
824.389	25959
824.529	26084
824.669	26005
824.809	26081
824.949	26153
825.089	26107
825.228	26119
825.368	25902
825.508	25837
825.648	25791
825.787	25898
825.927	26054
826.067	25845
826.206	25974
826.346	25776
826.485	25936
826.625	25868
826.765	25894
826.904	25879
827.044	25704
827.183	25666
827.323	25567
827.462	25635
827.601	25563
827.741	25457
827.88	25609
828.02	25502
828.159	25609
828.298	25578
828.437	25632
828.577	25613
828.716	25670
828.855	25419
828.994	25304
829.134	25263
829.273	25236
829.412	25312
829.551	25350
829.69	25407
829.829	25320
829.968	25422
830.107	25377
830.246	25392
830.385	25263
830.524	25141
830.663	25057
830.802	25080
830.941	24894
831.08	24897
831.219	25031
831.357	25065
831.496	25038
831.635	24939
831.774	24791
831.913	24825
832.051	24722
832.19	24544
832.329	24779
832.467	24627
832.606	24608
832.744	24540
832.883	24536
833.022	24445
833.16	24665
833.299	24692
833.437	24566
833.576	24616
833.714	24719
833.852	24753
833.991	24734
834.129	24745
834.267	24719
834.406	24627
834.544	24665
834.682	24711
834.821	24597
834.959	24837
835.097	24627
835.235	24654
835.373	24631
835.511	24661
835.65	24566
835.788	24289
835.926	24479
836.064	24403
836.202	24395
836.34	24578
836.478	24498
836.615	24456
836.753	24528
836.891	24589
837.029	24532
837.167	24410
837.305	24365
837.443	24391
837.58	24273
837.718	24483
837.856	24285
837.993	24346
838.131	24220
838.269	24136
838.406	24308
838.544	24098
838.681	24026
838.819	23984
838.956	23786
839.094	23737
839.231	23809
839.369	24060
839.506	24258
839.643	23969
839.781	23840
839.918	23695
840.055	23764
840.193	23870
840.33	23745
840.467	23615
840.604	23566
840.742	24003
840.879	23634
841.016	23581
841.153	23581
841.29	23786
841.427	23604
841.564	23646
841.701	23653
841.838	23573
841.975	23600
842.112	23604
842.249	23547
842.385	23345
842.522	23695
842.659	23493
842.796	23376
842.933	23547
843.069	23356
843.206	23398
843.343	23486
843.479	23486
843.616	23417
843.752	23318
843.889	23235
844.025	23376
844.162	23303
844.298	23353
844.435	23178
844.571	23246
844.708	23254
844.844	23368
844.98	23315
845.117	23239
845.253	23147
845.389	23105
845.525	23181
845.661	22961
845.798	22927
845.934	23086
846.07	22938
846.206	22873
846.342	23067
846.478	22900
846.614	22725
846.75	22634
846.886	22584
847.022	22938
847.158	22752
847.294	22748
847.429	22733
847.565	22698
847.701	22938
847.837	22542
847.972	22421
848.108	22451
848.244	22493
848.379	22413
848.515	22443
848.65	22257
848.786	22249
848.921	22306
849.057	22341
849.192	22360
849.328	22280
849.463	22188
849.598	22257
849.734	22196
849.869	22139
850.004	22082
850.14	22055
850.275	22158
850.41	22070
850.545	22067
850.68	21956
850.815	22029
850.95	22036
851.085	22246
851.22	22169
851.355	22124
851.49	21934
851.625	21979
851.76	21968
851.895	22002
852.03	21956
852.165	22051
852.299	22131
852.434	22185
852.569	22040
852.703	21998
852.838	22135
852.973	22120
853.107	22181
853.242	21983
853.376	21930
853.511	21785
853.645	21823
853.78	21979
853.914	21797
854.048	21846
854.183	21949
854.317	22021
854.451	22013
854.585	21797
854.72	21892
854.854	21888
854.988	21797
855.122	21854
855.256	21671
855.39	21895
855.524	21956
855.658	21880
855.792	21789
855.926	22040
856.06	21922
856.194	21823
856.327	21903
856.461	21751
856.595	21823
856.729	21880
856.862	21930
856.996	21922
857.13	22021
857.263	22051
857.397	21964
857.53	21827
857.664	21945
857.797	21930
857.931	21998
858.064	21888
858.197	21941
858.331	22074
858.464	21789
858.597	21781
858.731	21850
858.864	21865
858.997	21797
859.13	21857
859.263	21789
859.396	21994
859.529	21869
859.662	21899
859.795	21831
859.928	21850
860.061	22086
860.194	22017
860.327	21873
860.46	21926
860.592	22040
860.725	22013
860.858	21949
860.99	21842
861.123	21774
861.256	21709
861.388	21903
861.521	22626
861.653	21800
861.786	21587
861.918	21701
862.05	21770
862.183	21869
862.315	21717
862.447	21816
862.58	21850
862.712	21534
862.844	21648
862.976	21648
863.108	21538
863.24	21987
863.372	21515
863.504	21599
863.636	21500
863.768	21660
863.9	21496
864.032	21564
864.164	21610
864.296	21557
864.428	21720
864.559	21652
864.691	21549
864.823	21504
864.954	21504
865.086	21424
865.217	21504
865.349	21568
865.48	21488
865.612	21511
865.743	21656
865.875	21473
866.006	21374
866.137	21526
866.269	21507
866.4	21492
866.531	21530
866.662	21291
866.793	21462
866.924	21291
867.055	21382
867.186	21504
867.317	21336
867.448	21348
867.579	21382
867.71	21298
867.841	21268
867.972	21370
868.103	21485
868.233	21405
868.364	21291
868.495	21564
868.625	21549
868.756	21686
868.886	21587
869.017	21701
869.147	21686
869.278	21781
869.408	21637
869.539	21633
869.669	21667
869.799	21709
869.929	21797
870.06	21770
870.19	21964
870.32	21964
870.45	21991
870.58	22044
870.71	22162
870.84	22078
870.97	22040
871.1	22067
871.23	22162
871.36	22169
871.489	22188
871.619	22158
871.749	22310
871.879	22287
872.008	22344
872.138	22177
872.267	22173
872.397	22097
872.526	22093
872.656	22078
872.785	21998
872.915	22150
873.044	22436
873.173	22249
873.303	22219
873.432	22276
873.561	22280
873.69	22207
873.819	22371
873.948	22303
874.077	22215
874.206	22086
874.335	22230
874.464	22272
874.593	22489
874.722	22421
874.851	22443
874.979	22398
875.108	22462
875.237	22443
875.365	22322
875.494	22432
875.623	22481
875.751	22447
875.88	22519
876.008	22466
876.136	22645
876.265	22843
876.393	22961
876.521	22904
876.65	22809
876.778	22862
876.906	22649
877.034	22782
877.162	22995
877.29	22797
877.418	22782
877.546	22866
877.674	22763
877.802	22740
877.93	22725
878.058	22854
878.185	22687
878.313	22786
878.441	22835
878.568	22599
878.696	22717
878.824	22790
878.951	22946
879.079	22866
879.206	23018
879.333	22900
879.461	22786
879.588	22938
879.715	23086
879.842	23090
879.97	22908
880.097	22637
880.224	22634
880.351	22694
880.478	22653
880.605	22580
880.732	22615
880.859	22877
880.986	22687
881.112	22733
881.239	22455
881.366	22303
881.493	22382
881.619	22291
881.746	22223
881.872	22192
881.999	22230
882.125	22112
882.252	22257
882.378	22207
882.505	22306
882.631	22188
882.757	21869
882.883	22021
883.01	21994
883.136	21956
883.262	21884
883.388	21793
883.514	21911
883.64	22017
883.766	21842
883.892	21739
884.018	21831
884.143	21956
884.269	21930
884.395	21580
884.52	21504
884.646	21618
884.772	21485
884.897	21431
885.023	21431
885.148	21644
885.274	21633
885.399	21747
885.524	21641
885.65	21450
885.775	21504
885.9	21564
886.025	21637
886.15	21580
886.275	21507
886.4	21424
886.525	21458
886.65	21515
886.775	21450
886.9	21625
887.025	21686
887.149	21682
887.274	21405
887.399	21249
887.523	21431
887.648	21332
887.773	21192
887.897	21428
888.021	21313
888.146	21260
888.27	21367
888.395	21340
888.519	21287
888.643	21401
888.767	21367
888.891	21135
889.015	21142
889.139	21138
889.263	21116
889.387	21169
889.511	21370
889.635	21199
889.759	21062
889.883	21146
890.006	21096
890.13	21195
890.254	20838
890.377	21066
890.501	20868
890.624	20842
890.748	20906
890.871	20819
890.995	20712
891.118	20712
891.241	20773
891.364	20533
891.488	20697
891.611	20807
891.734	20613
891.857	20781
891.98	20686
892.103	20667
892.226	20602
892.349	20537
892.471	20476
892.594	20697
892.717	20571
892.839	20575
892.962	20632
893.085	20674
893.207	20636
893.33	20419
893.452	20549
893.575	20556
893.697	20587
893.819	20796
893.941	20762
894.064	20663
894.186	20522
894.308	20507
894.43	20617
894.552	20625
894.674	20708
894.796	20431
894.918	20526
895.04	20484
895.161	20480
895.283	20556
895.405	20450
895.526	20514
895.648	20632
895.769	20575
895.891	20617
896.012	20659
896.134	20640
896.255	20541
896.376	20518
896.498	20484
896.619	20636
896.74	20598
896.861	20644
896.982	20788
897.103	20941
897.224	20842
897.345	20648
897.466	20674
897.587	20804
897.708	20956
897.828	20785
897.949	20686
898.07	20492
898.19	20689
898.311	20739
898.431	20663
898.552	20708
898.672	20880
898.792	20785
898.913	20834
899.033	20712
899.153	20511
899.273	20526
899.393	20465
899.513	20602
899.633	20442
899.753	20469
899.873	20507
899.993	20545
900.113	20396
900.232	20457
900.352	20298
900.472	20233
900.591	20229
900.711	20298
900.83	20183
900.95	20492
901.069	20381
901.189	20180
901.308	19849
901.427	19928
901.546	19833
901.665	19883
901.784	19864
901.904	19681
902.023	19677
902.141	19438
902.26	19358
902.379	19407
902.498	19396
902.617	19244
902.735	19373
902.854	19236
902.973	19240
903.091	19103
903.21	19152
903.328	19000
903.446	18867
903.565	18935
903.683	18722
903.801	18719
903.919	18730
904.038	18764
904.156	18620
904.274	18589
904.392	18608
904.51	18578
904.627	18559
904.745	18665
904.863	18688
904.981	18365
905.098	18300
905.216	18285
905.334	18254
905.451	18232
905.569	18251
905.686	18361
905.803	18289
905.921	18171
906.038	18163
906.155	18064
906.272	17961
906.389	17969
906.506	17790
906.623	17821
906.74	17775
906.857	17627
906.974	17653
907.091	17805
907.208	17973
907.324	17832
907.441	17703
907.557	17490
907.674	17455
907.79	17497
907.907	17615
908.023	17539
908.139	17467
908.256	17444
908.372	17395
908.488	17448
908.604	17288
908.72	17246
908.836	17277
908.952	17193
909.068	17193
909.184	17318
909.3	17166
909.415	17284
909.531	17170
909.647	16904
909.762	16946
909.878	16889
909.993	16957
910.108	16908
910.224	16824
910.339	16980
910.454	16763
910.57	16774
910.685	16615
910.8	16915
910.915	16778
911.03	16748
911.145	16550
911.259	16497
911.374	16611
911.489	16459
911.604	16394
911.718	16413
911.833	16299
911.947	16128
912.062	16082
912.176	16257
912.291	16306
912.405	16238
912.519	16379
912.633	16451
912.748	16204
912.862	16276
912.976	16131
913.09	15869
913.204	16128
913.318	16093
913.431	16169
913.545	16177
913.659	16204
913.772	15975
913.886	15861
914	15956
914.113	16010
914.226	15945
914.34	15892
914.453	15736
914.566	15892
914.68	15778
914.793	15660
914.906	15705
915.019	15488
915.132	15370
915.245	15401
915.358	15405
915.47	15462
915.583	15374
915.696	15454
915.809	15564
915.921	15606
916.034	15317
916.146	15329
916.259	15340
916.371	15496
916.483	15378
916.595	15317
916.708	15317
916.82	15252
916.932	15279
917.044	15230
917.156	15230
917.268	15173
917.38	15195
917.491	15066
917.603	15138
917.715	15123
917.826	15108
917.938	14960
918.049	14941
918.161	15039
918.272	15123
918.384	15108
918.495	14998
918.606	14868
918.717	14792
918.828	14891
918.939	14830
919.05	14693
919.161	14876
919.272	14701
919.383	14800
919.494	14872
919.604	14967
919.715	14826
919.826	14758
919.936	14792
920.047	14941
920.157	14781
920.267	15009
920.378	14845
920.488	14746
920.598	14918
920.708	15112
920.818	14910
920.928	14994
921.038	14998
921.148	15043
921.258	14727
921.368	14670
921.477	14598
921.587	14560
921.697	14442
921.806	14484
921.916	14339
922.025	14214
922.134	14202
922.244	14210
922.353	14164
922.462	14001
922.571	13936
922.68	13837
922.789	13780
922.898	13830
923.007	13772
923.116	13807
923.224	13818
923.333	13761
923.442	13704
923.55	13567
923.659	13616
923.767	13704
923.876	13636
923.984	13662
924.092	13480
924.201	13647
924.309	13480
924.417	13468
924.525	13453
924.633	13464
924.741	14358
924.849	13297
924.956	13476
925.064	13278
925.172	13240
925.279	13304
925.387	13187
925.494	13221
925.602	13278
925.709	13285
925.816	13110
925.924	13141
926.031	13259
926.138	13145
926.245	13145
926.352	13080
926.459	13171
926.566	13145
926.673	13069
926.779	12916
926.886	12935
926.993	12863
927.099	12779
927.206	12692
927.312	12814
927.419	12757
927.525	12757
927.631	12722
927.737	12703
927.843	12639
927.95	12475
928.056	12597
928.162	12681
928.267	12612
928.373	13160
928.479	12654
928.585	12460
928.69	12528
928.796	12555
928.901	12391
929.007	12319
929.112	12437
929.218	12399
929.323	12315
929.428	12251
929.533	12414
929.638	12220
929.743	12342
929.848	12289
929.953	12175
930.058	12197
930.163	11954
930.267	12003
930.372	12095
930.477	11931
930.581	12163
930.685	12060
930.79	11874
930.894	12003
930.998	11824
931.103	11999
931.207	11562
931.311	11570
931.415	11501
931.519	11250
931.623	11261
