Data from test_V78500241_1748.txt Node
Date: Fri Mar 25 15:22:01 CST 2022
User: usil
Spectrometer: V785-0024
Trigger mode: 0
Integration Time (sec): 4.000000E-1
Scans to average: 1
Nonlinearity correction enabled: false
Boxcar width: 0
Storing dark spectrum: false
XAxis mode: Wavelengths
Number of Pixels in Spectrum: 1024
>>>>>Begin Spectral Data<<<<<
801.071	27907
801.214	27743
801.356	27637
801.499	27595
801.641	27488
801.783	27287
801.926	27473
802.068	27378
802.211	27397
802.353	27294
802.496	27142
802.638	27051
802.78	26925
802.923	26963
803.065	26887
803.208	26883
803.35	27005
803.492	27028
803.635	27230
803.777	26990
803.919	27116
804.061	27488
804.204	27245
804.346	27138
804.488	27249
804.63	27203
804.773	27096
804.915	27291
805.057	27401
805.199	27154
805.341	27237
805.483	27161
805.626	27389
805.768	27245
805.91	27348
806.052	27370
806.194	27294
806.336	27473
806.478	27443
806.62	27260
806.762	27401
806.904	27671
807.046	27869
807.188	27804
807.33	27720
807.472	27781
807.614	27656
807.756	27736
807.898	27618
808.04	27618
808.182	27500
808.324	27751
808.465	27648
808.607	27732
808.749	27895
808.891	27876
809.033	28078
809.174	27949
809.316	27926
809.458	27998
809.6	27808
809.741	28124
809.883	27998
810.025	28238
810.166	28196
810.308	28253
810.45	28291
810.591	28120
810.733	28036
810.875	27998
811.016	27842
811.158	27778
811.299	28021
811.441	27956
811.582	28086
811.724	28040
811.865	27869
812.007	27994
812.148	27865
812.29	27991
812.431	28105
812.573	28223
812.714	28344
812.855	28405
812.997	28535
813.138	28805
813.279	28508
813.421	28440
813.562	28474
813.703	28303
813.845	28128
813.986	27930
814.127	27656
814.268	27648
814.41	27694
814.551	27675
814.692	27797
814.833	27553
814.974	27583
815.115	27603
815.256	27439
815.397	27610
815.539	27526
815.68	27378
815.821	27351
815.962	27504
816.103	27294
816.244	27469
816.385	27195
816.526	27226
816.666	26979
816.807	26891
816.948	27039
817.089	27119
817.23	26982
817.371	26937
817.512	26838
817.653	26937
817.793	26895
817.934	26838
818.075	27070
818.216	27047
818.356	26960
818.497	26781
818.638	26689
818.778	26632
818.919	26705
819.06	26712
819.2	26868
819.341	26891
819.481	26845
819.622	27127
819.762	27264
819.903	27260
820.043	27161
820.184	27123
820.324	27104
820.465	27135
820.605	27039
820.746	26940
820.886	26891
821.026	27085
821.167	26971
821.307	27036
821.447	26842
821.588	26857
821.728	26739
821.868	26636
822.008	26473
822.149	26396
822.289	26381
822.429	26100
822.569	26119
822.709	26005
822.849	25849
822.99	25883
823.13	25982
823.27	25799
823.41	25674
823.55	25639
823.69	25666
823.83	25826
823.97	25647
824.11	25514
824.25	25601
824.389	25639
824.529	25753
824.669	25594
824.809	25704
824.949	25495
825.089	25639
825.228	25635
825.368	25430
825.508	25434
825.648	25289
825.787	25343
825.927	25521
826.067	25384
826.206	25369
826.346	25396
826.485	25502
826.625	25350
826.765	25491
826.904	25438
827.044	25114
827.183	25213
827.323	25190
827.462	25217
827.601	25122
827.741	25091
827.88	25103
828.02	24913
828.159	24966
828.298	25069
828.437	25198
828.577	25137
828.716	25221
828.855	25031
828.994	24833
829.134	24764
829.273	24882
829.412	24833
829.551	24905
829.69	24939
829.829	24700
829.968	24989
830.107	24856
830.246	24810
830.385	24745
830.524	24688
830.663	24593
830.802	24448
830.941	24490
831.08	24502
831.219	24582
831.357	24426
831.496	24719
831.635	24308
831.774	24369
831.913	24422
832.051	24399
832.19	24270
832.329	24258
832.467	24216
832.606	24254
832.744	24011
832.883	24095
833.022	24167
833.16	24140
833.299	24292
833.437	24178
833.576	24285
833.714	24144
833.852	24247
833.991	24361
834.129	24216
834.267	24342
834.406	24186
834.544	24243
834.682	24232
834.821	24171
834.959	24289
835.097	24125
835.235	24270
835.373	24106
835.511	24232
835.65	24053
835.788	24072
835.926	23942
836.064	23866
836.202	23927
836.34	23965
836.478	24079
836.615	23965
836.753	24057
836.891	24136
837.029	24129
837.167	23927
837.305	23984
837.443	23908
837.58	23942
837.718	23908
837.856	23908
837.993	23843
838.131	23980
838.269	23771
838.406	23786
838.544	23821
838.681	23531
838.819	23493
838.956	23235
839.094	23482
839.231	23463
839.369	23611
839.506	23634
839.643	23722
839.781	23402
839.918	23220
840.055	23368
840.193	23315
840.33	23235
840.467	23303
840.604	23292
840.742	23493
840.879	23117
841.016	23166
841.153	23239
841.29	23387
841.427	23250
841.564	23318
841.701	23303
841.838	23204
841.975	23052
842.112	23204
842.249	23025
842.385	23044
842.522	23189
842.659	23052
842.796	22968
842.933	23060
843.069	22953
843.206	23010
843.343	23147
843.479	23041
843.616	23052
843.752	22812
843.889	22862
844.025	23056
844.162	22790
844.298	22812
844.435	22854
844.571	22877
844.708	22778
844.844	23083
844.98	23025
845.117	22812
845.253	22812
845.389	22698
845.525	22717
845.661	22637
845.798	22634
845.934	22523
846.07	22531
846.206	22615
846.342	22713
846.478	22440
846.614	22390
846.75	22257
846.886	22246
847.022	22272
847.158	22356
847.294	22337
847.429	22291
847.565	22314
847.701	22462
847.837	22093
847.972	22055
848.108	22196
848.244	22051
848.379	22010
848.515	21953
848.65	21854
848.786	21911
848.921	21953
849.057	22025
849.192	21975
849.328	21888
849.463	21930
849.598	21785
849.734	21789
849.869	21686
850.004	21641
850.14	21701
850.275	21682
850.41	21618
850.545	21629
850.68	21576
850.815	21709
850.95	21701
851.085	21903
851.22	21781
851.355	21686
851.49	21682
851.625	21652
851.76	21694
851.895	21591
852.03	21568
852.165	21606
852.299	21614
852.434	21701
852.569	21686
852.703	21572
852.838	21705
852.973	21797
853.107	21778
853.242	21644
853.376	21424
853.511	21370
853.645	21511
853.78	21682
853.914	21542
854.048	21526
854.183	21412
854.317	21504
854.451	21644
854.585	21542
854.72	21435
854.854	21568
854.988	21329
855.122	21606
855.256	21332
855.39	21439
855.524	21561
855.658	21477
855.792	21622
855.926	21450
856.06	21610
856.194	21477
856.327	21545
856.461	21564
856.595	21488
856.729	21439
856.862	21648
856.996	21534
857.13	21606
857.263	21595
857.397	21663
857.53	21477
857.664	21580
857.797	21485
857.931	21542
858.064	21572
858.197	21633
858.331	21492
858.464	21420
858.597	21370
858.731	21500
858.864	21519
858.997	21443
859.13	21553
859.263	21447
859.396	21549
859.529	21507
859.662	21485
859.795	21564
859.928	21504
860.061	21648
860.194	21591
860.327	21656
860.46	21481
860.592	21572
860.725	21599
860.858	21603
860.99	21519
861.123	21428
861.256	21530
861.388	21458
861.521	22284
861.653	21416
861.786	21321
861.918	21332
862.05	21272
862.183	21420
862.315	21431
862.447	21568
862.58	21351
862.712	21100
862.844	21264
862.976	21245
863.108	21249
863.24	21526
863.372	21066
863.504	21214
863.636	21169
863.768	21279
863.9	21180
864.032	21188
864.164	21123
864.296	21108
864.428	21424
864.559	21211
864.691	21317
864.823	21138
864.954	21169
865.086	21173
865.217	21104
865.349	21001
865.48	21138
865.612	21241
865.743	21180
865.875	21192
866.006	21036
866.137	21051
866.269	21108
866.4	21013
866.531	20979
866.662	20986
866.793	20971
866.924	21036
867.055	21100
867.186	20986
867.317	20963
867.448	20933
867.579	20933
867.71	20975
867.841	20872
867.972	20929
868.103	20963
868.233	20929
868.364	20990
868.495	21116
868.625	21237
868.756	21359
868.886	21218
869.017	21176
869.147	21443
869.278	21302
869.408	21268
869.539	21294
869.669	21317
869.799	21336
869.929	21439
870.06	21291
870.19	21580
870.32	21526
870.45	21507
870.58	21599
870.71	21671
870.84	21732
870.97	21644
871.1	21622
871.23	21812
871.36	21937
871.489	21857
871.619	21842
871.749	21747
871.879	21819
872.008	22078
872.138	21827
872.267	21869
872.397	21690
872.526	21739
872.656	21606
872.785	21644
872.915	21903
873.044	21926
873.173	21876
873.303	22006
873.432	21865
873.561	21903
873.69	22029
873.819	21956
873.948	21884
874.077	21899
874.206	21747
874.335	21934
874.464	21930
874.593	22105
874.722	22158
874.851	22006
874.979	22223
875.108	22082
875.237	21987
875.365	21972
875.494	22082
875.623	22246
875.751	22101
875.88	22013
876.008	22181
876.136	22067
876.265	22500
876.393	22516
876.521	22584
876.65	22592
876.778	22478
876.906	22337
877.034	22421
877.162	22363
877.29	22329
877.418	22497
877.546	22459
877.674	22432
877.802	22375
877.93	22272
878.058	22226
878.185	22386
878.313	22413
878.441	22371
878.568	22322
878.696	22497
878.824	22474
878.951	22596
879.079	22641
879.206	22736
879.333	22584
879.461	22436
879.588	22561
879.715	22675
879.842	22740
879.97	22459
880.097	22242
880.224	22276
880.351	22261
880.478	22299
880.605	22242
880.732	22265
880.859	22615
880.986	22154
881.112	22265
881.239	22063
881.366	21991
881.493	21994
881.619	21816
881.746	21895
881.872	21915
881.999	21937
882.125	21698
882.252	21812
882.378	21842
882.505	21846
882.631	21770
882.757	21614
882.883	21603
883.01	21603
883.136	21374
883.262	21416
883.388	21386
883.514	21618
883.64	21622
883.766	21447
883.892	21359
884.018	21340
884.143	21428
884.269	21557
884.395	21161
884.52	21218
884.646	21260
884.772	21096
884.897	21096
885.023	21146
885.148	21184
885.274	21405
885.399	21237
885.524	21165
885.65	21116
885.775	21165
885.9	21085
886.025	21226
886.15	21378
886.275	21192
886.4	21051
886.525	21119
886.65	21077
886.775	21096
886.9	21237
887.025	21454
887.149	21176
887.274	20979
887.399	20967
887.523	20979
887.648	20887
887.773	20804
887.897	21028
888.021	21055
888.146	20880
888.27	20982
888.395	21009
888.519	20975
888.643	21024
888.767	21058
888.891	20857
889.015	20781
889.139	20830
889.263	20758
889.387	20853
889.511	20937
889.635	20762
889.759	20857
889.883	20648
890.006	20758
890.13	20796
890.254	20670
890.377	20644
890.501	20461
890.624	20575
890.748	20648
890.871	20450
890.995	20282
891.118	20206
891.241	20343
891.364	20267
891.488	20427
891.611	20385
891.734	20358
891.857	20389
891.98	20290
892.103	20415
892.226	20336
892.349	20221
892.471	20157
892.594	20210
892.717	20142
892.839	20100
892.962	20221
893.085	20343
893.207	20218
893.33	20134
893.452	20145
893.575	20233
893.697	20252
893.819	20336
893.941	20423
894.064	20336
894.186	20206
894.308	20096
894.43	20278
894.552	20362
894.674	20298
894.796	20088
894.918	20199
895.04	20107
895.161	20374
895.283	20202
895.405	20142
895.526	20218
895.648	20172
895.769	20176
895.891	20214
896.012	20347
896.134	20161
896.255	20248
896.376	20278
896.498	20130
896.619	20237
896.74	20183
896.861	20343
896.982	20556
897.103	20632
897.224	20419
897.345	20400
897.466	20404
897.587	20419
897.708	20404
897.828	20438
897.949	20457
898.07	20263
898.19	20442
898.311	20454
898.431	20313
898.552	20362
898.672	20473
898.792	20526
898.913	20454
899.033	20434
899.153	20301
899.273	20077
899.393	20210
899.513	20218
899.633	20271
899.753	20256
899.873	20103
899.993	20202
900.113	20130
900.232	20107
900.352	20012
900.472	20054
900.591	19784
900.711	19947
900.83	19928
900.95	20020
901.069	19997
901.189	19875
901.308	19552
901.427	19426
901.546	19483
901.665	19605
901.784	19514
901.904	19278
902.023	19263
902.141	19076
902.26	19126
902.379	19069
902.498	18993
902.617	18878
902.735	19050
902.854	19042
902.973	18878
903.091	18817
903.21	18703
903.328	18726
903.446	18604
903.565	18483
903.683	18593
903.801	18365
903.919	18498
904.038	18410
904.156	18327
904.274	18350
904.392	18296
904.51	18152
904.627	18239
904.745	18300
904.863	18334
904.981	18087
905.098	17916
905.216	17950
905.334	17897
905.451	17859
905.569	17817
905.686	18022
905.803	17916
905.921	17756
906.038	17866
906.155	17790
906.272	17687
906.389	17577
906.506	17505
906.623	17532
906.74	17524
906.857	17322
906.974	17353
907.091	17524
907.208	17634
907.324	17440
907.441	17345
907.557	17216
907.674	17216
907.79	17178
907.907	17166
908.023	17299
908.139	17185
908.256	17117
908.372	17067
908.488	17067
908.604	16934
908.72	16869
908.836	16892
908.952	16915
909.068	16953
909.184	17010
909.3	16999
909.415	16862
909.531	16915
909.647	16694
909.762	16588
909.878	16584
909.993	16672
910.108	16538
910.224	16588
910.339	16512
910.454	16329
910.57	16329
910.685	16333
910.8	16561
910.915	16538
911.03	16436
911.145	16234
911.259	16196
911.374	16272
911.489	16090
911.604	16059
911.718	15983
911.833	15994
911.947	15835
912.062	15739
912.176	15922
912.291	15899
912.405	15869
912.519	16086
912.633	16048
912.748	15926
912.862	16025
912.976	15690
913.09	15686
913.204	15682
913.318	15682
913.431	15793
913.545	15739
913.659	15861
913.772	15781
913.886	15682
914	15549
914.113	15644
914.226	15736
914.34	15564
914.453	15466
914.566	15568
914.68	15454
914.793	15378
914.906	15298
915.019	15180
915.132	15131
915.245	15173
915.358	15112
915.47	15142
915.583	15176
915.696	15165
915.809	15329
915.921	15355
916.034	15085
916.146	15131
916.259	15097
916.371	15211
916.483	15116
916.595	15089
916.708	15047
916.82	14937
916.932	14941
917.044	14982
917.156	14918
917.268	14914
917.38	15017
917.491	14864
917.603	14899
917.715	14971
917.826	14849
917.938	14811
918.049	14739
918.161	14868
918.272	14918
918.384	14842
918.495	14834
918.606	14651
918.717	14579
918.828	14629
918.939	14625
919.05	14549
919.161	14636
919.272	14339
919.383	14488
919.494	14598
919.604	14815
919.715	14644
919.826	14495
919.936	14465
920.047	14632
920.157	14636
920.267	14716
920.378	14636
920.488	14571
920.598	14739
920.708	14861
920.818	14705
920.928	14743
921.038	14754
921.148	14792
921.258	14514
921.368	14438
921.477	14301
921.587	14396
921.697	14290
921.806	14320
921.916	14100
922.025	14100
922.134	13951
922.244	13921
922.353	13974
922.462	13830
922.571	13761
922.68	13594
922.789	13628
922.898	13719
923.007	13533
923.116	13662
923.224	13605
923.333	13495
923.442	13510
923.55	13491
923.659	13445
923.767	13537
923.876	13384
923.984	13415
924.092	13221
924.201	13396
924.309	13403
924.417	13316
924.525	13312
924.633	13274
924.741	14012
924.849	13107
924.956	13198
925.064	12977
925.172	12966
925.279	12951
925.387	13080
925.494	13000
925.602	13103
925.709	13038
925.816	12935
925.924	12985
926.031	13053
926.138	12928
926.245	12947
926.352	12856
926.459	13008
926.566	13019
926.673	12890
926.779	12749
926.886	12768
926.993	12703
927.099	12578
927.206	12574
927.312	12559
927.419	12566
927.525	12597
927.631	12608
927.737	12433
927.843	12346
927.95	12300
928.056	12266
928.162	12357
928.267	12403
928.373	13072
928.479	12330
928.585	12232
928.69	12380
928.796	12418
928.901	12209
929.007	12148
929.112	12197
929.218	12216
929.323	12121
929.428	12079
929.533	12178
929.638	11961
929.743	11977
929.848	12068
929.953	12106
930.058	12003
930.163	11752
930.267	11798
930.372	11920
930.477	11828
930.581	11999
930.685	11832
930.79	11680
930.894	11733
930.998	11619
931.103	11756
931.207	11474
931.311	11440
931.415	11296
931.519	11079
931.623	11071
