Data from test_V78500241_93.txt Node
Date: Fri Mar 25 15:10:30 CST 2022
User: usil
Spectrometer: V785-0024
Trigger mode: 0
Integration Time (sec): 4.000000E-1
Scans to average: 1
Nonlinearity correction enabled: false
Boxcar width: 0
Storing dark spectrum: false
XAxis mode: Wavelengths
Number of Pixels in Spectrum: 1024
>>>>>Begin Spectral Data<<<<<
801.071	28394
801.214	28249
801.356	28082
801.499	28116
801.641	27895
801.783	27922
801.926	27949
802.068	27800
802.211	27835
802.353	27641
802.496	27629
802.638	27530
802.78	27488
802.923	27507
803.065	27378
803.208	27469
803.35	27466
803.492	27561
803.635	27542
803.777	27317
803.919	27641
804.061	27983
804.204	27660
804.346	27686
804.488	27492
804.63	27633
804.773	27363
804.915	27549
805.057	27603
805.199	27485
805.341	27606
805.483	27614
805.626	27599
805.768	27389
805.91	27595
806.052	27576
806.194	27515
806.336	27823
806.478	27648
806.62	27694
806.762	27720
806.904	27842
807.046	28207
807.188	27987
807.33	27960
807.472	27979
807.614	27838
807.756	28044
807.898	27804
808.04	27903
808.182	27724
808.324	27865
808.465	27816
808.607	27983
808.749	28090
808.891	28238
809.033	28356
809.174	28249
809.316	28120
809.458	28204
809.6	27964
809.741	28086
809.883	28192
810.025	28379
810.166	28356
810.308	28238
810.45	28169
810.591	28268
810.733	28124
810.875	27991
811.016	27911
811.158	27930
811.299	27968
811.441	28124
811.582	28173
811.724	27926
811.865	28013
812.007	28128
812.148	27979
812.29	28010
812.431	28185
812.573	28341
812.714	28447
812.855	28618
812.997	28816
813.138	28637
813.279	28649
813.421	28596
813.562	28481
813.703	28360
813.845	28284
813.986	27899
814.127	27804
814.268	27762
814.41	27648
814.551	27606
814.692	27694
814.833	27641
814.974	27705
815.115	27606
815.256	27500
815.397	27507
815.539	27545
815.68	27389
815.821	27431
815.962	27382
816.103	27340
816.244	27089
816.385	27135
816.526	27096
816.666	27104
816.807	26918
816.948	26937
817.089	26937
817.23	26830
817.371	26773
817.512	26739
817.653	26773
817.793	26743
817.934	26883
818.075	26773
818.216	26716
818.356	26693
818.497	26575
818.638	26438
818.778	26526
818.919	26469
819.06	26552
819.2	26663
819.341	26754
819.481	26602
819.622	26807
819.762	26990
819.903	26910
820.043	26823
820.184	26876
820.324	26621
820.465	26883
820.605	26682
820.746	26617
820.886	26632
821.026	26651
821.167	26720
821.307	26705
821.447	26765
821.588	26689
821.728	26465
821.868	26381
822.008	26221
822.149	26130
822.289	26278
822.429	25868
822.569	25795
822.709	25795
822.849	25571
822.99	25578
823.13	25655
823.27	25632
823.41	25487
823.55	25346
823.69	25544
823.83	25552
823.97	25304
824.11	25331
824.25	25206
824.389	25236
824.529	25274
824.669	25179
824.809	25388
824.949	25255
825.089	25331
825.228	25175
825.368	25008
825.508	25118
825.648	24909
825.787	25198
825.927	25126
826.067	25031
826.206	25000
826.346	25080
826.485	24962
826.625	25050
826.765	25069
826.904	24924
827.044	24810
827.183	24798
827.323	24593
827.462	24760
827.601	24700
827.741	24639
827.88	24768
828.02	24589
828.159	24692
828.298	24601
828.437	24768
828.577	24479
828.716	24806
828.855	24559
828.994	24372
829.134	24410
829.273	24353
829.412	24292
829.551	24273
829.69	24452
829.829	24338
829.968	24399
830.107	24433
830.246	24361
830.385	24395
830.524	24136
830.663	24186
830.802	24129
830.941	23832
831.08	23992
831.219	24102
831.357	23973
831.496	24003
831.635	23783
831.774	23843
831.913	23783
832.051	23653
832.19	23901
832.329	23771
832.467	23729
832.606	23474
832.744	23619
832.883	23577
833.022	23512
833.16	23608
833.299	23566
833.437	23581
833.576	23493
833.714	23718
833.852	23566
833.991	23623
834.129	23577
834.267	23589
834.406	23646
834.544	23630
834.682	23619
834.821	23497
834.959	23668
835.097	23463
835.235	23520
835.373	23440
835.511	23516
835.65	23376
835.788	23452
835.926	23292
836.064	23231
836.202	23284
836.34	23417
836.478	23402
836.615	23478
836.753	23296
836.891	23410
837.029	23444
837.167	23398
837.305	23178
837.443	23216
837.58	23178
837.718	23277
837.856	23250
837.993	23254
838.131	23117
838.269	23227
838.406	23113
838.544	23014
838.681	22805
838.819	22717
838.956	22664
839.094	22740
839.231	22618
839.369	22835
839.506	23018
839.643	22923
839.781	22569
839.918	22622
840.055	22588
840.193	22478
840.33	22580
840.467	22470
840.604	22557
840.742	22835
840.879	22413
841.016	22394
841.153	22379
841.29	22618
841.427	22535
841.564	22512
841.701	22440
841.838	22360
841.975	22428
842.112	22379
842.249	22299
842.385	22196
842.522	22386
842.659	22417
842.796	22375
842.933	22348
843.069	22128
843.206	22310
843.343	22303
843.479	22299
843.616	22219
843.752	22044
843.889	21994
844.025	22093
844.162	21861
844.298	22040
844.435	21945
844.571	21861
844.708	22063
844.844	22154
844.98	22188
845.117	22051
845.253	21922
845.389	21759
845.525	21899
845.661	21789
845.798	21713
845.934	21797
846.07	21667
846.206	21728
846.342	21823
846.478	21690
846.614	21618
846.75	21329
846.886	21344
847.022	21454
847.158	21488
847.294	21389
847.429	21466
847.565	21477
847.701	21770
847.837	21127
847.972	21161
848.108	21199
848.244	21279
848.379	21055
848.515	20918
848.65	20902
848.786	20948
848.921	20979
849.057	21070
849.192	20986
849.328	20979
849.463	20986
849.598	20979
849.734	20800
849.869	20921
850.004	20712
850.14	20712
850.275	20724
850.41	20663
850.545	20678
850.68	20636
850.815	20739
850.95	20724
851.085	20727
851.22	20872
851.355	20693
851.49	20678
851.625	20674
851.76	20731
851.895	20434
852.03	20659
852.165	20518
852.299	20693
852.434	20716
852.569	20735
852.703	20689
852.838	20746
852.973	20880
853.107	20834
853.242	20720
853.376	20381
853.511	20320
853.645	20446
853.78	20663
853.914	20568
854.048	20549
854.183	20507
854.317	20530
854.451	20663
854.585	20492
854.72	20423
854.854	20651
854.988	20488
855.122	20423
855.256	20290
855.39	20533
855.524	20602
855.658	20511
855.792	20564
855.926	20560
856.06	20499
856.194	20632
856.327	20484
856.461	20545
856.595	20450
856.729	20389
856.862	20590
856.996	20556
857.13	20469
857.263	20571
857.397	20560
857.53	20408
857.664	20522
857.797	20507
857.931	20640
858.064	20457
858.197	20484
858.331	20374
858.464	20305
858.597	20278
858.731	20495
858.864	20431
858.997	20488
859.13	20423
859.263	20400
859.396	20659
859.529	20408
859.662	20381
859.795	20434
859.928	20370
860.061	20571
860.194	20492
860.327	20457
860.46	20446
860.592	20461
860.725	20568
860.858	20594
860.99	20374
861.123	20343
861.256	20347
861.388	20454
861.521	21028
861.653	20084
861.786	20240
861.918	20343
862.05	20374
862.183	20442
862.315	20450
862.447	20511
862.58	20377
862.712	20202
862.844	20221
862.976	20214
863.108	20214
863.24	20609
863.372	20035
863.504	20119
863.636	20115
863.768	20259
863.9	20062
864.032	20012
864.164	20092
864.296	20027
864.428	20172
864.559	20168
864.691	20214
864.823	20176
864.954	20077
865.086	20157
865.217	20142
865.349	19978
865.48	19993
865.612	20046
865.743	20202
865.875	20016
866.006	20035
866.137	20016
866.269	20100
866.4	20005
866.531	19974
866.662	19974
866.793	19845
866.924	19967
867.055	19963
867.186	19845
867.317	20020
867.448	19871
867.579	19974
867.71	19909
867.841	19791
867.972	20046
868.103	19921
868.233	19986
868.364	19879
868.495	19959
868.625	20145
868.756	20374
868.886	20088
869.017	20176
869.147	20362
869.278	20347
869.408	20107
869.539	20119
869.669	20259
869.799	20077
869.929	20305
870.06	20290
870.19	20522
870.32	20549
870.45	20454
870.58	20659
870.71	20606
870.84	20693
870.97	20674
871.1	20530
871.23	20727
871.36	20712
871.489	20693
871.619	20659
871.749	20849
871.879	20754
872.008	20804
872.138	20769
872.267	20800
872.397	20739
872.526	20556
872.656	20579
872.785	20579
872.915	20758
873.044	20857
873.173	20891
873.303	20895
873.432	20845
873.561	20902
873.69	20796
873.819	20781
873.948	20861
874.077	20857
874.206	20807
874.335	20754
874.464	20853
874.593	21074
874.722	20944
874.851	21028
874.979	21058
875.108	21207
875.237	21036
875.365	20914
875.494	21047
875.623	21028
875.751	20960
875.88	21085
876.008	21306
876.136	21214
876.265	21435
876.393	21633
876.521	21561
876.65	21561
876.778	21275
876.906	21416
877.034	21420
877.162	21405
877.29	21188
877.418	21382
877.546	21447
877.674	21424
877.802	21534
877.93	21496
878.058	21321
878.185	21294
878.313	21408
878.441	21412
878.568	21169
878.696	21195
878.824	21344
878.951	21374
879.079	21644
879.206	21751
879.333	21534
879.461	21515
879.588	21519
879.715	21561
879.842	21641
879.97	21507
880.097	21184
880.224	21161
880.351	21264
880.478	21218
880.605	21146
880.732	21195
880.859	21450
880.986	21237
881.112	21279
881.239	21051
881.366	21055
881.493	20967
881.619	20899
881.746	20914
881.872	20823
881.999	20830
882.125	20796
882.252	20842
882.378	20880
882.505	20925
882.631	20743
882.757	20587
882.883	20670
883.01	20590
883.136	20533
883.262	20301
883.388	20495
883.514	20552
883.64	20495
883.766	20457
883.892	20309
884.018	20317
884.143	20423
884.269	20530
884.395	20366
884.52	20199
884.646	20294
884.772	20210
884.897	20065
885.023	20122
885.148	20332
885.274	20366
885.399	20298
885.524	20248
885.65	20149
885.775	20294
885.9	20172
886.025	20332
886.15	20381
886.275	20199
886.4	20043
886.525	20206
886.65	20088
886.775	20062
886.9	20309
887.025	20400
887.149	20084
887.274	19913
887.399	19989
887.523	19932
887.648	19860
887.773	19833
887.897	20039
888.021	19974
888.146	19826
888.27	20008
888.395	19902
888.519	19955
888.643	19951
888.767	19887
888.891	19852
889.015	19849
889.139	19837
889.263	19666
889.387	19803
889.511	19982
889.635	19864
889.759	19727
889.883	19708
890.006	19780
890.13	19887
890.254	19514
890.377	19609
890.501	19354
890.624	19411
890.748	19563
890.871	19411
890.995	19240
891.118	19232
891.241	19304
891.364	19335
891.488	19331
891.611	19293
891.734	19358
891.857	19339
891.98	19426
892.103	19434
892.226	19384
892.349	19202
892.471	19190
892.594	19373
892.717	19236
892.839	19217
892.962	19354
893.085	19301
893.207	19251
893.33	19034
893.452	19118
893.575	19343
893.697	19194
893.819	19426
893.941	19419
894.064	19434
894.186	19179
894.308	19221
894.43	19320
894.552	19369
894.674	19346
894.796	19190
894.918	19164
895.04	19244
895.161	19308
895.283	19270
895.405	19289
895.526	19270
895.648	19339
895.769	19289
895.891	19278
896.012	19350
896.134	19350
896.255	19324
896.376	19350
896.498	19270
896.619	19411
896.74	19346
896.861	19343
896.982	19529
897.103	19776
897.224	19738
897.345	19480
897.466	19343
897.587	19491
897.708	19521
897.828	19434
897.949	19514
898.07	19392
898.19	19445
898.311	19586
898.431	19544
898.552	19472
898.672	19616
898.792	19548
898.913	19392
899.033	19339
899.153	19274
899.273	19126
899.393	19202
899.513	19129
899.633	19171
899.753	19133
899.873	19129
899.993	19175
900.113	19160
900.232	19221
900.352	19175
900.472	19050
900.591	19053
900.711	19046
900.83	19046
900.95	19179
901.069	19126
901.189	18996
901.308	18703
901.427	18627
901.546	18604
901.665	18658
901.784	18745
901.904	18563
902.023	18338
902.141	18174
902.26	18102
902.379	18239
902.498	18152
902.617	18125
902.735	18144
902.854	18174
902.973	18049
903.091	17802
903.21	17760
903.328	17764
903.446	17604
903.565	17596
903.683	17642
903.801	17532
903.919	17539
904.038	17486
904.156	17398
904.274	17455
904.392	17440
904.51	17311
904.627	17448
904.745	17436
904.863	17474
904.981	17151
905.098	17090
905.216	17045
905.334	17075
905.451	16995
905.569	17121
905.686	17113
905.803	17037
905.921	16889
906.038	16934
906.155	16801
906.272	16736
906.389	16744
906.506	16607
906.623	16580
906.74	16641
906.857	16459
906.974	16474
907.091	16653
907.208	16717
907.324	16615
907.441	16451
907.557	16352
907.674	16329
907.79	16219
907.907	16348
908.023	16341
908.139	16398
908.256	16173
908.372	16261
908.488	16158
908.604	15983
908.72	15835
908.836	15968
908.952	15987
909.068	15998
909.184	16025
909.3	16002
909.415	16036
909.531	16029
909.647	15720
909.762	15663
909.878	15641
909.993	15690
910.108	15629
910.224	15625
910.339	15587
910.454	15599
910.57	15466
910.685	15431
910.8	15713
910.915	15511
911.03	15469
911.145	15313
911.259	15260
911.374	15332
911.489	15260
911.604	15157
911.718	15001
911.833	15047
911.947	14986
912.062	14712
912.176	14944
912.291	15017
912.405	15013
912.519	15214
912.633	15123
912.748	15020
912.862	14948
912.976	14830
913.09	14674
913.204	14769
913.318	14880
913.431	14785
913.545	14941
913.659	14925
913.772	14807
913.886	14583
914	14617
914.113	14731
914.226	14800
914.34	14777
914.453	14549
914.566	14667
914.68	14522
914.793	14571
914.906	14301
915.019	14301
915.132	14290
915.245	14221
915.358	14301
915.47	14275
915.583	14237
915.696	14256
915.809	14412
915.921	14427
916.034	14237
916.146	14103
916.259	14161
916.371	14259
916.483	14130
916.595	14046
916.708	14050
916.82	14107
916.932	14130
917.044	14115
917.156	14050
917.268	13993
917.38	13974
917.491	13936
917.603	14039
917.715	13921
917.826	14020
917.938	13791
918.049	13788
918.161	13936
918.272	14054
918.384	13989
918.495	13917
918.606	13715
918.717	13677
918.828	13784
918.939	13761
919.05	13734
919.161	13689
919.272	13411
919.383	13594
919.494	13734
919.604	13890
919.715	13734
919.826	13548
919.936	13636
920.047	13715
920.157	13719
920.267	13841
920.378	13685
920.488	13693
920.598	13894
920.708	13928
920.818	13845
920.928	13833
921.038	14027
921.148	13963
921.258	13556
921.368	13559
921.477	13499
921.587	13502
921.697	13320
921.806	13430
921.916	13225
922.025	13080
922.134	13023
922.244	12966
922.353	13042
922.462	12966
922.571	12920
922.68	12734
922.789	12722
922.898	12707
923.007	12665
923.116	12741
923.224	12639
923.333	12662
923.442	12559
923.55	12547
923.659	12597
923.767	12646
923.876	12521
923.984	12540
924.092	12528
924.201	12483
924.309	12544
924.417	12486
924.525	12418
924.633	12410
924.741	13160
924.849	12152
924.956	12342
925.064	12144
925.172	12095
925.279	12110
925.387	12155
925.494	12175
925.602	12338
925.709	12220
925.816	12091
925.924	12152
926.031	12205
926.138	12163
926.245	12266
926.352	12030
926.459	12148
926.566	12224
926.673	12098
926.779	11961
926.886	11923
926.993	11790
927.099	11790
927.206	11741
927.312	11817
927.419	11847
927.525	11691
927.631	11767
927.737	11672
927.843	11668
927.95	11505
928.056	11589
928.162	11585
928.267	11596
928.373	12228
928.479	11707
928.585	11482
928.69	11505
928.796	11562
928.901	11395
929.007	11337
929.112	11421
929.218	11395
929.323	11360
929.428	11379
929.533	11482
929.638	11326
929.743	11261
929.848	11292
929.953	11265
930.058	11185
930.163	11025
930.267	10995
930.372	11147
930.477	11037
930.581	11212
930.685	11075
930.79	10987
930.894	10942
930.998	10801
931.103	11079
931.207	10698
931.311	10634
931.415	10599
931.519	10306
931.623	10310
