Data from test_V78500241_1936.txt Node
Date: Fri Mar 25 15:23:20 CST 2022
User: usil
Spectrometer: V785-0024
Trigger mode: 0
Integration Time (sec): 4.000000E-1
Scans to average: 1
Nonlinearity correction enabled: false
Boxcar width: 0
Storing dark spectrum: false
XAxis mode: Wavelengths
Number of Pixels in Spectrum: 1024
>>>>>Begin Spectral Data<<<<<
801.071	27603
801.214	27629
801.356	27515
801.499	27321
801.641	27150
801.783	27161
801.926	27313
802.068	27192
802.211	27077
802.353	27169
802.496	26902
802.638	26937
802.78	26845
802.923	26811
803.065	26750
803.208	26705
803.35	26880
803.492	26899
803.635	26929
803.777	26838
803.919	26982
804.061	27275
804.204	27112
804.346	26986
804.488	27017
804.63	27074
804.773	26948
804.915	27131
805.057	27074
805.199	27017
805.341	27146
805.483	27104
805.626	27161
805.768	27074
805.91	27047
806.052	27188
806.194	26998
806.336	27317
806.478	27127
806.62	27165
806.762	27184
806.904	27378
807.046	27504
807.188	27629
807.33	27530
807.472	27542
807.614	27515
807.756	27477
807.898	27405
808.04	27401
808.182	27408
808.324	27389
808.465	27481
808.607	27682
808.749	27842
808.891	27914
809.033	27937
809.174	27884
809.316	27720
809.458	27713
809.6	27812
809.741	27793
809.883	27846
810.025	28051
810.166	27994
810.308	28025
810.45	28059
810.591	27888
810.733	27804
810.875	27800
811.016	27549
811.158	27747
811.299	27895
811.441	27903
811.582	27911
811.724	27637
811.865	27713
812.007	27755
812.148	27622
812.29	27800
812.431	27808
812.573	28177
812.714	28169
812.855	28306
812.997	28230
813.138	28519
813.279	28432
813.421	28440
813.562	28101
813.703	28017
813.845	27953
813.986	27667
814.127	27454
814.268	27443
814.41	27374
814.551	27610
814.692	27473
814.833	27332
814.974	27355
815.115	27447
815.256	27211
815.397	27329
815.539	27363
815.68	27142
815.821	27203
815.962	27184
816.103	27222
816.244	27127
816.385	27096
816.526	26967
816.666	26781
816.807	26678
816.948	26659
817.089	26925
817.23	26697
817.371	26689
817.512	26861
817.653	26663
817.793	26579
817.934	26720
818.075	26785
818.216	26773
818.356	26701
818.497	26568
818.638	26549
818.778	26465
818.919	26514
819.06	26556
819.2	26530
819.341	26781
819.481	26617
819.622	26918
819.762	27028
819.903	27028
820.043	26880
820.184	26804
820.324	26861
820.465	26853
820.605	27024
820.746	26750
820.886	26667
821.026	26746
821.167	26746
821.307	26743
821.447	26781
821.588	26716
821.728	26636
821.868	26393
822.008	26164
822.149	26183
822.289	26183
822.429	26005
822.569	25947
822.709	25852
822.849	25776
822.99	25681
823.13	25681
823.27	25487
823.41	25491
823.55	25400
823.69	25616
823.83	25483
823.97	25518
824.11	25274
824.25	25362
824.389	25335
824.529	25335
824.669	25346
824.809	25396
824.949	25388
825.089	25350
825.228	25499
825.368	25171
825.508	25202
825.648	25171
825.787	25259
825.927	25278
826.067	25209
826.206	25293
826.346	25175
826.485	25232
826.625	25228
826.765	25263
826.904	25194
827.044	25023
827.183	24981
827.323	24916
827.462	24996
827.601	24882
827.741	24924
827.88	24798
828.02	24837
828.159	24837
828.298	24867
828.437	24875
828.577	24833
828.716	24958
828.855	24833
828.994	24650
829.134	24593
829.273	24601
829.412	24654
829.551	24452
829.69	24688
829.829	24665
829.968	24734
830.107	24753
830.246	24684
830.385	24620
830.524	24414
830.663	24422
830.802	24422
830.941	24285
831.08	24205
831.219	24342
831.357	24334
831.496	24471
831.635	24224
831.774	24102
831.913	24136
832.051	24057
832.19	24015
832.329	24072
832.467	23954
832.606	23756
832.744	23798
832.883	23946
833.022	23927
833.16	23889
833.299	23996
833.437	23855
833.576	23996
833.714	23939
833.852	23977
833.991	23961
834.129	23988
834.267	23984
834.406	24095
834.544	24083
834.682	23958
834.821	24076
834.959	24102
835.097	23946
835.235	23916
835.373	23847
835.511	23969
835.65	23897
835.788	23866
835.926	23600
836.064	23608
836.202	23577
836.34	23672
836.478	23843
836.615	23642
836.753	23805
836.891	23874
837.029	23855
837.167	23813
837.305	23668
837.443	23668
837.58	23726
837.718	23729
837.856	23657
837.993	23646
838.131	23646
838.269	23452
838.406	23531
838.544	23459
838.681	23280
838.819	23208
838.956	23143
839.094	23159
839.231	23242
839.369	23410
839.506	23581
839.643	23395
839.781	23124
839.918	23098
840.055	23098
840.193	23121
840.33	23014
840.467	23216
840.604	22976
840.742	23322
840.879	22892
841.016	22911
841.153	22896
841.29	23060
841.427	23090
841.564	23124
841.701	23128
841.838	23037
841.975	23010
842.112	23067
842.249	22866
842.385	22839
842.522	23060
842.659	22835
842.796	22748
842.933	22812
843.069	22820
843.206	22672
843.343	22862
843.479	22824
843.616	22790
843.752	22611
843.889	22592
844.025	22782
844.162	22504
844.298	22672
844.435	22523
844.571	22550
844.708	22580
844.844	22725
844.98	22782
845.117	22721
845.253	22500
845.389	22512
845.525	22470
845.661	22398
845.798	22363
845.934	22447
846.07	22162
846.206	22223
846.342	22440
846.478	22291
846.614	22162
846.75	22021
846.886	22067
847.022	22188
847.158	22051
847.294	21979
847.429	22128
847.565	22044
847.701	22135
847.837	21804
847.972	21736
848.108	21857
848.244	21804
848.379	21713
848.515	21599
848.65	21610
848.786	21747
848.921	21610
849.057	21770
849.192	21808
849.328	21724
849.463	21633
849.598	21637
849.734	21591
849.869	21507
850.004	21428
850.14	21568
850.275	21485
850.41	21298
850.545	21279
850.68	21401
850.815	21420
850.95	21405
851.085	21648
851.22	21439
851.355	21389
851.49	21344
851.625	21439
851.76	21378
851.895	21386
852.03	21230
852.165	21412
852.299	21351
852.434	21496
852.569	21420
852.703	21401
852.838	21492
852.973	21431
853.107	21542
853.242	21359
853.376	21226
853.511	21119
853.645	21173
853.78	21291
853.914	21245
854.048	21165
854.183	21252
854.317	21233
854.451	21340
854.585	21355
854.72	21233
854.854	21279
854.988	21214
855.122	21211
855.256	21146
855.39	21287
855.524	21306
855.658	21279
855.792	21245
855.926	21329
856.06	21412
856.194	21355
856.327	21119
856.461	21093
856.595	21176
856.729	21161
856.862	21332
856.996	21222
857.13	21237
857.263	21298
857.397	21393
857.53	21252
857.664	21401
857.797	21283
857.931	21359
858.064	21268
858.197	21275
858.331	21233
858.464	21226
858.597	21070
858.731	21252
858.864	21154
858.997	21116
859.13	21260
859.263	21268
859.396	21355
859.529	21211
859.662	21245
859.795	21142
859.928	21264
860.061	21439
860.194	21351
860.327	21188
860.46	21283
860.592	21317
860.725	21313
860.858	21401
860.99	21348
861.123	21203
861.256	21039
861.388	21294
861.521	21762
861.653	21001
861.786	21005
861.918	21081
862.05	21192
862.183	21085
862.315	21222
862.447	21264
862.58	21070
862.712	21013
862.844	20849
862.976	21055
863.108	20956
863.24	21359
863.372	20868
863.504	20967
863.636	20868
863.768	21009
863.9	20975
864.032	20845
864.164	20887
864.296	20925
864.428	21039
864.559	21001
864.691	21001
864.823	20948
864.954	20925
865.086	20781
865.217	20887
865.349	20765
865.48	20849
865.612	20796
865.743	20956
865.875	20830
866.006	20785
866.137	20895
866.269	20948
866.4	20861
866.531	20800
866.662	20788
866.793	20731
866.924	20758
867.055	20781
867.186	20804
867.317	20735
867.448	20727
867.579	20739
867.71	20716
867.841	20663
867.972	20716
868.103	20712
868.233	20785
868.364	20785
868.495	20937
868.625	20944
868.756	21131
868.886	20849
869.017	20982
869.147	21020
869.278	21077
869.408	21195
869.539	20986
869.669	21077
869.799	20967
869.929	21085
870.06	21104
870.19	21332
870.32	21310
870.45	21237
870.58	21268
870.71	21473
870.84	21572
870.97	21302
871.1	21496
871.23	21633
871.36	21610
871.489	21428
871.619	21462
871.749	21500
871.879	21625
872.008	21766
872.138	21599
872.267	21587
872.397	21572
872.526	21507
872.656	21561
872.785	21416
872.915	21618
873.044	21663
873.173	21580
873.303	21660
873.432	21793
873.561	21774
873.69	21663
873.819	21656
873.948	21778
874.077	21675
874.206	21656
874.335	21610
874.464	21800
874.593	21812
874.722	21808
874.851	21861
874.979	21854
875.108	22036
875.237	21816
875.365	21686
875.494	21831
875.623	21918
875.751	21781
875.88	21937
876.008	22097
876.136	21964
876.265	22230
876.393	22432
876.521	22246
876.65	22375
876.778	22219
876.906	22238
877.034	22246
877.162	22238
877.29	22013
877.418	22105
877.546	22219
877.674	22341
877.802	22150
877.93	22204
878.058	22234
878.185	22097
878.313	22116
878.441	22185
878.568	22063
878.696	22070
878.824	22181
878.951	22196
879.079	22432
879.206	22573
879.333	22375
879.461	22363
879.588	22234
879.715	22352
879.842	22440
879.97	22230
880.097	22082
880.224	22032
880.351	22147
880.478	22040
880.605	21960
880.732	22021
880.859	22226
880.986	22048
881.112	22051
881.239	21998
881.366	21728
881.493	21789
881.619	21705
881.746	21553
881.872	21530
881.999	21667
882.125	21625
882.252	21606
882.378	21618
882.505	21747
882.631	21477
882.757	21351
882.883	21428
883.01	21268
883.136	21272
883.262	21104
883.388	21100
883.514	21344
883.64	21230
883.766	21313
883.892	21089
884.018	21108
884.143	21393
884.269	21256
884.395	21028
884.52	20933
884.646	20998
884.772	20929
884.897	20804
885.023	21005
885.148	21017
885.274	21173
885.399	20998
885.524	20952
885.65	21032
885.775	20933
885.9	20906
886.025	21028
886.15	20941
886.275	20929
886.4	20788
886.525	20925
886.65	20845
886.775	20796
886.9	21093
887.025	21169
887.149	20933
887.274	20667
887.399	20701
887.523	20640
887.648	20781
887.773	20556
887.897	20682
888.021	20830
888.146	20602
888.27	20804
888.395	20754
888.519	20708
888.643	20739
888.767	20769
888.891	20644
889.015	20526
889.139	20571
889.263	20438
889.387	20648
889.511	20712
889.635	20606
889.759	20507
889.883	20446
890.006	20579
890.13	20651
890.254	20537
890.377	20408
890.501	20294
890.624	20172
890.748	20290
890.871	20240
890.995	20119
891.118	20142
891.241	20100
891.364	20031
891.488	20214
891.611	20088
891.734	20020
891.857	20119
891.98	20008
892.103	20119
892.226	20134
892.349	20005
892.471	19833
892.594	19986
892.717	20054
892.839	20001
892.962	20096
893.085	20088
893.207	19978
893.33	19932
893.452	19909
893.575	20043
893.697	20005
893.819	20210
893.941	20229
894.064	20039
894.186	19909
894.308	19849
894.43	20016
894.552	20073
894.674	20069
894.796	19788
894.918	19928
895.04	19974
895.161	20012
895.283	20024
895.405	19951
895.526	19936
895.648	19963
895.769	20069
895.891	20027
896.012	19940
896.134	20031
896.255	20058
896.376	19955
896.498	20035
896.619	20084
896.74	19944
896.861	20054
896.982	20347
897.103	20427
897.224	20183
897.345	20191
897.466	20107
897.587	20202
897.708	20339
897.828	20332
897.949	20256
898.07	20065
898.19	20168
898.311	20240
898.431	20142
898.552	20328
898.672	20317
898.792	20282
898.913	20324
899.033	20008
899.153	20043
899.273	19944
899.393	19974
899.513	20012
899.633	19951
899.753	19940
899.873	19833
899.993	19967
900.113	19928
900.232	19894
900.352	19837
900.472	19662
900.591	19738
900.711	19738
900.83	19765
900.95	19807
901.069	19830
901.189	19666
901.308	19521
901.427	19244
901.546	19312
901.665	19289
901.784	19480
901.904	19171
902.023	19118
902.141	18932
902.26	18821
902.379	18837
902.498	18734
902.617	18821
902.735	18875
902.854	18783
902.973	18795
903.091	18452
903.21	18426
903.328	18475
903.446	18467
903.565	18296
903.683	18273
903.801	18247
903.919	18163
904.038	18300
904.156	18038
904.274	18087
904.392	18091
904.51	18038
904.627	18060
904.745	18174
904.863	18003
904.981	17897
905.098	17779
905.216	17832
905.334	17859
905.451	17775
905.569	17756
905.686	17737
905.803	17760
905.921	17482
906.038	17543
906.155	17490
906.272	17547
906.389	17353
906.506	17315
906.623	17322
906.74	17296
906.857	17181
906.974	17277
907.091	17337
907.208	17383
907.324	17193
907.441	17242
907.557	17121
907.674	17022
907.79	16938
907.907	16984
908.023	17022
908.139	16972
908.256	16934
908.372	16908
908.488	16881
908.604	16778
908.72	16668
908.836	16812
908.952	16698
909.068	16713
909.184	16805
909.3	16812
909.415	16797
909.531	16759
909.647	16447
909.762	16295
909.878	16398
909.993	16478
910.108	16341
910.224	16356
910.339	16417
910.454	16242
910.57	16390
910.685	16200
910.8	16459
910.915	16405
911.03	16261
911.145	16109
911.259	15968
911.374	15926
911.489	15972
911.604	15956
911.718	15846
911.833	15797
911.947	15663
912.062	15618
912.176	15743
912.291	15766
912.405	15785
912.519	15892
912.633	15819
912.748	15861
912.862	15694
912.976	15614
913.09	15538
913.204	15549
913.318	15694
913.431	15667
913.545	15732
913.659	15652
913.772	15545
913.886	15450
914	15310
914.113	15439
914.226	15515
914.34	15428
914.453	15260
914.566	15428
914.68	15329
914.793	15279
914.906	15028
915.019	15009
915.132	15024
915.245	15055
915.358	14960
915.47	14994
915.583	15036
915.696	15043
915.809	15127
915.921	15070
916.034	14956
916.146	14872
916.259	14864
916.371	15001
916.483	14967
916.595	14804
916.708	14777
916.82	14842
916.932	14800
917.044	14811
917.156	14781
917.268	14598
917.38	14777
917.491	14632
917.603	14693
917.715	14796
917.826	14720
917.938	14629
918.049	14541
918.161	14571
918.272	14686
918.384	14758
918.495	14670
918.606	14404
918.717	14400
918.828	14480
918.939	14393
919.05	14305
919.161	14362
919.272	14180
919.383	14290
919.494	14358
919.604	14587
919.715	14446
919.826	14336
919.936	14370
920.047	14442
920.157	14461
920.267	14514
920.378	14396
920.488	14347
920.598	14537
920.708	14617
920.818	14495
920.928	14492
921.038	14651
921.148	14621
921.258	14347
921.368	14214
921.477	14195
921.587	14172
921.697	14005
921.806	14069
921.916	13921
922.025	13799
922.134	13883
922.244	13731
922.353	13750
922.462	13632
922.571	13647
922.68	13422
922.789	13346
922.898	13358
923.007	13430
923.116	13430
923.224	13441
923.333	13430
923.442	13259
923.55	13209
923.659	13240
923.767	13228
923.876	13247
923.984	13297
924.092	13038
924.201	13190
924.309	13278
924.417	13266
924.525	13080
924.633	13053
924.741	14062
924.849	12928
924.956	13061
925.064	12928
925.172	12764
925.279	12829
925.387	12802
925.494	12814
925.602	13000
925.709	12848
925.816	12719
925.924	12821
926.031	12856
926.138	12863
926.245	12772
926.352	12646
926.459	12867
926.566	12867
926.673	12662
926.779	12608
926.886	12608
926.993	12429
927.099	12380
927.206	12380
927.312	12365
927.419	12346
927.525	12384
927.631	12475
927.737	12327
927.843	12311
927.95	12079
928.056	12152
928.162	12220
928.267	12262
928.373	12806
928.479	12262
928.585	12079
928.69	12178
928.796	12308
928.901	12133
929.007	11939
929.112	12087
929.218	12125
929.323	11992
929.428	11942
929.533	12057
929.638	11889
929.743	11980
929.848	11939
929.953	11961
930.058	11824
930.163	11573
930.267	11668
930.372	11851
930.477	11608
930.581	11870
930.685	11649
930.79	11585
930.894	11551
930.998	11512
931.103	11661
931.207	11406
931.311	11193
931.415	11090
931.519	10923
931.623	10957
