Data from test_V78500241_2826.txt Node
Date: Fri Mar 25 15:29:32 CST 2022
User: usil
Spectrometer: V785-0024
Trigger mode: 0
Integration Time (sec): 4.000000E-1
Scans to average: 1
Nonlinearity correction enabled: false
Boxcar width: 0
Storing dark spectrum: false
XAxis mode: Wavelengths
Number of Pixels in Spectrum: 1024
>>>>>Begin Spectral Data<<<<<
801.071	27154
801.214	27192
801.356	26986
801.499	26857
801.641	26712
801.783	26731
801.926	26708
802.068	26804
802.211	26659
802.353	26746
802.496	26484
802.638	26305
802.78	26324
802.923	26438
803.065	26187
803.208	26164
803.35	26358
803.492	26457
803.635	26640
803.777	26587
803.919	26473
804.061	26765
804.204	26617
804.346	26473
804.488	26415
804.63	26381
804.773	26427
804.915	26545
805.057	26651
805.199	26659
805.341	26609
805.483	26590
805.626	26609
805.768	26629
805.91	26629
806.052	26613
806.194	26533
806.336	26689
806.478	26457
806.62	26625
806.762	26625
806.904	26834
807.046	27203
807.188	26975
807.33	27100
807.472	27127
807.614	27062
807.756	26937
807.898	26823
808.04	26815
808.182	26838
808.324	27024
808.465	27074
808.607	27230
808.749	27218
808.891	27344
809.033	27401
809.174	27477
809.316	27085
809.458	27138
809.6	27203
809.741	27332
809.883	27359
810.025	27545
810.166	27580
810.308	27648
810.45	27507
810.591	27458
810.733	27351
810.875	27154
811.016	27176
811.158	27214
811.299	27359
811.441	27462
811.582	27534
811.724	27325
811.865	27275
812.007	27165
812.148	27203
812.29	27127
812.431	27325
812.573	27530
812.714	27618
812.855	27739
812.997	27869
813.138	27873
813.279	27953
813.421	27797
813.562	27724
813.703	27473
813.845	27416
813.986	27222
814.127	26925
814.268	26811
814.41	26887
814.551	26777
814.692	27028
814.833	26944
814.974	26861
815.115	26872
815.256	26720
815.397	26807
815.539	26823
815.68	26686
815.821	26682
815.962	26670
816.103	26632
816.244	26507
816.385	26453
816.526	26484
816.666	26320
816.807	26138
816.948	26218
817.089	26240
817.23	26298
817.371	26073
817.512	26138
817.653	26191
817.793	26031
817.934	26043
818.075	26168
818.216	26153
818.356	26027
818.497	26046
818.638	25841
818.778	25875
818.919	25833
819.06	25917
819.2	26077
819.341	26058
819.481	26142
819.622	26199
819.762	26457
819.903	26427
820.043	26427
820.184	26294
820.324	26206
820.465	26210
820.605	26275
820.746	26286
820.886	26054
821.026	26100
821.167	26092
821.307	26221
821.447	26191
821.588	26016
821.728	26001
821.868	25776
822.008	25662
822.149	25533
822.289	25491
822.429	25316
822.569	25396
822.709	25285
822.849	25126
822.99	25156
823.13	25019
823.27	25175
823.41	24916
823.55	24840
823.69	25000
823.83	24977
823.97	24821
824.11	24681
824.25	24692
824.389	24772
824.529	24783
824.669	24589
824.809	24875
824.949	24795
825.089	24886
825.228	24795
825.368	24494
825.508	24570
825.648	24688
825.787	24631
825.927	24601
826.067	24570
826.206	24589
826.346	24703
826.485	24669
826.625	24505
826.765	24730
826.904	24604
827.044	24433
827.183	24369
827.323	24304
827.462	24441
827.601	24376
827.741	24388
827.88	24254
828.02	24087
828.159	24201
828.298	24327
828.437	24270
828.577	24155
828.716	24247
828.855	24133
828.994	23999
829.134	24049
829.273	24018
829.412	24053
829.551	23950
829.69	24030
829.829	23996
829.968	24098
830.107	24038
830.246	23992
830.385	24022
830.524	23809
830.663	23897
830.802	23786
830.941	23687
831.08	23718
831.219	23703
831.357	23748
831.496	23863
831.635	23505
831.774	23566
831.913	23410
832.051	23467
832.19	23417
832.329	23395
832.467	23265
832.606	23212
832.744	23121
832.883	23166
833.022	23292
833.16	23178
833.299	23204
833.437	23303
833.576	23406
833.714	23303
833.852	23414
833.991	23429
834.129	23360
834.267	23410
834.406	23402
834.544	23307
834.682	23425
834.821	23311
834.959	23600
835.097	23143
835.235	23334
835.373	23277
835.511	23284
835.65	23315
835.788	23155
835.926	23216
836.064	23193
836.202	23048
836.34	23071
836.478	23299
836.615	23048
836.753	23174
836.891	23204
837.029	23117
837.167	23041
837.305	23052
837.443	22984
837.58	22995
837.718	23242
837.856	23029
837.993	22919
838.131	23033
838.269	22919
838.406	22942
838.544	22771
838.681	22573
838.819	22599
838.956	22531
839.094	22470
839.231	22538
839.369	22618
839.506	22900
839.643	22702
839.781	22405
839.918	22344
840.055	22691
840.193	22493
840.33	22470
840.467	22394
840.604	22523
840.742	22622
840.879	22394
841.016	22348
841.153	22276
841.29	22611
841.427	22455
841.564	22333
841.701	22451
841.838	22367
841.975	22249
842.112	22299
842.249	22280
842.385	22276
842.522	22432
842.659	22310
842.796	22242
842.933	22158
843.069	22188
843.206	22051
843.343	22086
843.479	22116
843.616	22135
843.752	22036
843.889	21979
844.025	22112
844.162	22002
844.298	22036
844.435	21861
844.571	21911
844.708	21918
844.844	22032
844.98	21972
845.117	22139
845.253	21911
845.389	21835
845.525	21865
845.661	21800
845.798	21660
845.934	21739
846.07	21682
846.206	21797
846.342	21854
846.478	21564
846.614	21523
846.75	21344
846.886	21435
847.022	21625
847.158	21443
847.294	21466
847.429	21454
847.565	21389
847.701	21637
847.837	21222
847.972	21036
848.108	21272
848.244	21142
848.379	21032
848.515	21036
848.65	20998
848.786	21020
848.921	20975
849.057	21131
849.192	21096
849.328	21112
849.463	20937
849.598	21020
849.734	20811
849.869	20914
850.004	20845
850.14	20872
850.275	20887
850.41	20670
850.545	20712
850.68	20796
850.815	20785
850.95	20674
851.085	21032
851.22	20872
851.355	20842
851.49	20788
851.625	20727
851.76	20670
851.895	20800
852.03	20689
852.165	20781
852.299	20815
852.434	20830
852.569	20826
852.703	20845
852.838	20788
852.973	20918
853.107	20823
853.242	20769
853.376	20587
853.511	20533
853.645	20549
853.78	20743
853.914	20560
854.048	20644
854.183	20655
854.317	20667
854.451	20754
854.585	20590
854.72	20617
854.854	20735
854.988	20549
855.122	20648
855.256	20480
855.39	20644
855.524	20682
855.658	20659
855.792	20606
855.926	20716
856.06	20617
856.194	20693
856.327	20606
856.461	20716
856.595	20465
856.729	20613
856.862	20663
856.996	20579
857.13	20724
857.263	20640
857.397	20716
857.53	20518
857.664	20724
857.797	20644
857.931	20804
858.064	20667
858.197	20644
858.331	20533
858.464	20625
858.597	20404
858.731	20590
858.864	20613
858.997	20568
859.13	20533
859.263	20606
859.396	20640
859.529	20545
859.662	20511
859.795	20450
859.928	20659
860.061	20644
860.194	20815
860.327	20594
860.46	20590
860.592	20861
860.725	20800
860.858	20686
860.99	20651
861.123	20514
861.256	20568
861.388	20590
861.521	21211
861.653	20431
861.786	20377
861.918	20492
862.05	20450
862.183	20549
862.315	20480
862.447	20625
862.58	20442
862.712	20332
862.844	20259
862.976	20465
863.108	20343
863.24	20701
863.372	20385
863.504	20442
863.636	20366
863.768	20522
863.9	20244
864.032	20267
864.164	20366
864.296	20290
864.428	20469
864.559	20362
864.691	20328
864.823	20404
864.954	20240
865.086	20290
865.217	20252
865.349	20126
865.48	20168
865.612	20164
865.743	20176
865.875	20119
866.006	20271
866.137	20317
866.269	20180
866.4	20282
866.531	20043
866.662	20195
866.793	20142
866.924	20069
867.055	20210
867.186	20259
867.317	20278
867.448	19974
867.579	20142
867.71	19993
867.841	19978
867.972	20225
868.103	20062
868.233	20122
868.364	20103
868.495	20183
868.625	20320
868.756	20389
868.886	20294
869.017	20393
869.147	20469
869.278	20495
869.408	20499
869.539	20419
869.669	20408
869.799	20309
869.929	20609
870.06	20552
870.19	20708
870.32	20842
870.45	20674
870.58	20838
870.71	20960
870.84	20743
870.97	20815
871.1	20659
871.23	21055
871.36	21036
871.489	20891
871.619	21001
871.749	21020
871.879	21066
872.008	21081
872.138	21001
872.267	21062
872.397	20899
872.526	20899
872.656	20891
872.785	20792
872.915	21070
873.044	21116
873.173	21032
873.303	21085
873.432	21077
873.561	21089
873.69	21013
873.819	21123
873.948	21039
874.077	21077
874.206	20960
874.335	21001
874.464	21207
874.593	21214
874.722	21093
874.851	21264
874.979	21321
875.108	21332
875.237	21135
875.365	21203
875.494	21279
875.623	21317
875.751	21310
875.88	21306
876.008	21344
876.136	21485
876.265	21591
876.393	21793
876.521	21762
876.65	21641
876.778	21739
876.906	21557
877.034	21549
877.162	21736
877.29	21568
877.418	21694
877.546	21667
877.674	21667
877.802	21675
877.93	21622
878.058	21523
878.185	21458
878.313	21622
878.441	21530
878.568	21397
878.696	21405
878.824	21637
878.951	21709
879.079	21846
879.206	21953
879.333	21937
879.461	21713
879.588	21717
879.715	21842
879.842	21983
879.97	21762
880.097	21534
880.224	21382
880.351	21553
880.478	21583
880.605	21481
880.732	21576
880.859	21774
880.986	21519
881.112	21397
881.239	21367
881.366	21165
881.493	21249
881.619	21123
881.746	21036
881.872	21013
881.999	21009
882.125	21104
882.252	21127
882.378	20895
882.505	21142
882.631	20883
882.757	20739
882.883	20750
883.01	20743
883.136	20674
883.262	20613
883.388	20541
883.514	20727
883.64	20777
883.766	20674
883.892	20537
884.018	20533
884.143	20701
884.269	20701
884.395	20575
884.52	20351
884.646	20389
884.772	20320
884.897	20248
885.023	20412
885.148	20507
885.274	20530
885.399	20579
885.524	20438
885.65	20465
885.775	20419
885.9	20267
886.025	20556
886.15	20358
886.275	20298
886.4	20271
886.525	20469
886.65	20309
886.775	20351
886.9	20385
887.025	20549
887.149	20347
887.274	20088
887.399	20164
887.523	20111
887.648	20191
887.773	20119
887.897	20225
888.021	20210
888.146	20107
888.27	20290
888.395	20183
888.519	20145
888.643	20206
888.767	20282
888.891	20153
889.015	19940
889.139	20020
889.263	19978
889.387	20107
889.511	20244
889.635	20130
889.759	19970
889.883	19978
890.006	19970
890.13	20081
890.254	19951
890.377	19970
890.501	19769
890.624	19674
890.748	19769
890.871	19712
890.995	19487
891.118	19529
891.241	19639
891.364	19556
891.488	19742
891.611	19597
891.734	19655
891.857	19540
891.98	19514
892.103	19597
892.226	19514
892.349	19476
892.471	19381
892.594	19457
892.717	19567
892.839	19502
892.962	19422
893.085	19480
893.207	19426
893.33	19438
893.452	19449
893.575	19586
893.697	19510
893.819	19605
893.941	19533
894.064	19567
894.186	19426
894.308	19377
894.43	19460
894.552	19704
894.674	19594
894.796	19343
894.918	19392
895.04	19480
895.161	19601
895.283	19613
895.405	19270
895.526	19415
895.648	19483
895.769	19483
895.891	19453
896.012	19518
896.134	19499
896.255	19643
896.376	19400
896.498	19419
896.619	19441
896.74	19495
896.861	19514
896.982	19928
897.103	19974
897.224	19757
897.345	19674
897.466	19578
897.587	19727
897.708	19772
897.828	19776
897.949	19651
898.07	19613
898.19	19693
898.311	19928
898.431	19674
898.552	19674
898.672	19879
898.792	19811
898.913	19757
899.033	19651
899.153	19582
899.273	19415
899.393	19453
899.513	19563
899.633	19590
899.753	19510
899.873	19419
899.993	19506
900.113	19457
900.232	19339
900.352	19343
900.472	19400
900.591	19266
900.711	19320
900.83	19190
900.95	19293
901.069	19354
901.189	19057
901.308	18837
901.427	18844
901.546	18867
901.665	18871
901.784	18913
901.904	18760
902.023	18639
902.141	18471
902.26	18391
902.379	18460
902.498	18247
902.617	18281
902.735	18350
902.854	18391
902.973	18319
903.091	18171
903.21	18003
903.328	18133
903.446	17927
903.565	17939
903.683	17870
903.801	17832
903.919	17783
904.038	17718
904.156	17733
904.274	17718
904.392	17646
904.51	17604
904.627	17570
904.745	17532
904.863	17684
904.981	17551
905.098	17337
905.216	17372
905.334	17299
905.451	17216
905.569	17296
905.686	17356
905.803	17231
905.921	17136
906.038	17083
906.155	17185
906.272	17086
906.389	17041
906.506	16858
906.623	16900
906.74	16854
906.857	16793
906.974	16733
907.091	16927
907.208	16927
907.324	16923
907.441	16782
907.557	16626
907.674	16580
907.79	16504
907.907	16554
908.023	16561
908.139	16561
908.256	16538
908.372	16470
908.488	16367
908.604	16337
908.72	16246
908.836	16253
908.952	16249
909.068	16295
909.184	16409
909.3	16322
909.415	16318
909.531	16249
909.647	15998
909.762	15899
909.878	15949
909.993	16112
910.108	15964
910.224	15941
910.339	15945
910.454	15838
910.57	15793
910.685	15884
910.8	16040
910.915	15903
911.03	15819
911.145	15679
911.259	15553
911.374	15561
911.489	15553
911.604	15549
911.718	15329
911.833	15443
911.947	15325
912.062	15256
912.176	15405
912.291	15408
912.405	15447
912.519	15526
912.633	15530
912.748	15374
912.862	15359
912.976	15287
913.09	15020
913.204	15135
913.318	15146
913.431	15256
913.545	15249
913.659	15226
913.772	15123
913.886	14952
914	15058
914.113	15020
914.226	15108
914.34	15150
914.453	14891
914.566	15051
914.68	14804
914.793	14834
914.906	14720
915.019	14648
915.132	14583
915.245	14613
915.358	14640
915.47	14629
915.583	14606
915.696	14640
915.809	14670
915.921	14682
916.034	14579
916.146	14514
916.259	14533
916.371	14636
916.483	14549
916.595	14461
916.708	14469
916.82	14457
916.932	14400
917.044	14381
917.156	14461
917.268	14313
917.38	14332
917.491	14233
917.603	14328
917.715	14320
917.826	14377
917.938	14199
918.049	14130
918.161	14240
918.272	14343
918.384	14377
918.495	14286
918.606	14024
918.717	13951
918.828	14145
918.939	13974
919.05	13928
919.161	14016
919.272	13837
919.383	13978
919.494	14142
919.604	14221
919.715	14081
919.826	13925
919.936	13909
920.047	14065
920.157	13925
920.267	14252
920.378	13997
920.488	13955
920.598	14237
920.708	14343
920.818	14073
920.928	14077
921.038	14313
921.148	14233
921.258	13982
921.368	13811
921.477	13769
921.587	13780
921.697	13643
921.806	13788
921.916	13658
922.025	13586
922.134	13483
922.244	13419
922.353	13422
922.462	13346
922.571	13335
922.68	13004
922.789	13046
922.898	13114
923.007	13004
923.116	13080
923.224	13031
923.333	13072
923.442	13034
923.55	12909
923.659	13012
923.767	12939
923.876	12848
923.984	12821
924.092	12700
924.201	12772
924.309	12833
924.417	12863
924.525	12753
924.633	12806
924.741	13575
924.849	12589
924.956	12734
925.064	12532
925.172	12422
925.279	12456
925.387	12620
925.494	12582
925.602	12642
925.709	12570
925.816	12460
925.924	12448
926.031	12623
926.138	12494
926.245	12490
926.352	12437
926.459	12494
926.566	12582
926.673	12471
926.779	12338
926.886	12251
926.993	12098
927.099	12194
927.206	12072
927.312	12079
927.419	12129
927.525	12095
927.631	12178
927.737	11958
927.843	12019
927.95	11901
928.056	11866
928.162	11946
928.267	12003
928.373	12631
928.479	11992
928.585	11786
928.69	11824
928.796	11999
928.901	11802
929.007	11627
929.112	11802
929.218	11737
929.323	11646
929.428	11714
929.533	11760
929.638	11573
929.743	11672
929.848	11668
929.953	11638
930.058	11615
930.163	11402
930.267	11398
930.372	11585
930.477	11406
930.581	11547
930.685	11417
930.79	11299
930.894	11315
930.998	11318
931.103	11368
931.207	10957
931.311	10889
931.415	10866
931.519	10637
931.623	10660
