Data from test_V78500241_1917.txt Node
Date: Fri Mar 25 15:23:12 CST 2022
User: usil
Spectrometer: V785-0024
Trigger mode: 0
Integration Time (sec): 4.000000E-1
Scans to average: 1
Nonlinearity correction enabled: false
Boxcar width: 0
Storing dark spectrum: false
XAxis mode: Wavelengths
Number of Pixels in Spectrum: 1024
>>>>>Begin Spectral Data<<<<<
801.071	27561
801.214	27610
801.356	27466
801.499	27036
801.641	26994
801.783	27184
801.926	27188
802.068	27119
802.211	26975
802.353	26929
802.496	26746
802.638	26880
802.78	26792
802.923	26686
803.065	26693
803.208	26777
803.35	26693
803.492	26929
803.635	26940
803.777	26765
803.919	26937
804.061	27310
804.204	26921
804.346	26868
804.488	26819
804.63	27020
804.773	26663
804.915	27013
805.057	26940
805.199	26796
805.341	26937
805.483	27081
805.626	27024
805.768	26918
805.91	26998
806.052	27116
806.194	26956
806.336	27180
806.478	27028
806.62	27093
806.762	27112
806.904	27268
807.046	27526
807.188	27488
807.33	27599
807.472	27511
807.614	27405
807.756	27454
807.898	27401
808.04	27397
808.182	27310
808.324	27450
808.465	27401
808.607	27534
808.749	27606
808.891	27720
809.033	27785
809.174	27789
809.316	27736
809.458	27766
809.6	27606
809.741	27743
809.883	27770
810.025	27819
810.166	27945
810.308	27953
810.45	27876
810.591	27857
810.733	27717
810.875	27633
811.016	27671
811.158	27633
811.299	27698
811.441	27838
811.582	27724
811.724	27587
811.865	27553
812.007	27644
812.148	27580
812.29	27675
812.431	27804
812.573	27987
812.714	28166
812.855	28234
812.997	28367
813.138	28325
813.279	28291
813.421	28131
813.562	28158
813.703	27960
813.845	27884
813.986	27648
814.127	27477
814.268	27485
814.41	27469
814.551	27359
814.692	27443
814.833	27207
814.974	27412
815.115	27351
815.256	27325
815.397	27188
815.539	27306
815.68	26963
815.821	27123
815.962	27199
816.103	27150
816.244	27081
816.385	27070
816.526	26960
816.666	26792
816.807	26473
816.948	26708
817.089	26788
817.23	26575
817.371	26636
817.512	26537
817.653	26625
817.793	26495
817.934	26617
818.075	26629
818.216	26667
818.356	26503
818.497	26480
818.638	26415
818.778	26408
818.919	26385
819.06	26408
819.2	26480
819.341	26670
819.481	26609
819.622	26758
819.762	26971
819.903	26872
820.043	26655
820.184	26788
820.324	26712
820.465	26830
820.605	26682
820.746	26716
820.886	26609
821.026	26724
821.167	26701
821.307	26842
821.447	26579
821.588	26499
821.728	26400
821.868	26313
822.008	26142
822.149	26081
822.289	26164
822.429	25879
822.569	25921
822.709	25856
822.849	25674
822.99	25708
823.13	25544
823.27	25651
823.41	25544
823.55	25422
823.69	25422
823.83	25575
823.97	25373
824.11	25209
824.25	25141
824.389	25282
824.529	25335
824.669	25202
824.809	25403
824.949	25324
825.089	25331
825.228	25247
825.368	25061
825.508	25145
825.648	25183
825.787	25110
825.927	25190
826.067	25019
826.206	25126
826.346	25179
826.485	25187
826.625	25141
826.765	25270
826.904	25183
827.044	24859
827.183	24916
827.323	24753
827.462	24890
827.601	24726
827.741	24783
827.88	24825
828.02	24829
828.159	24814
828.298	24642
828.437	24856
828.577	24776
828.716	24897
828.855	24768
828.994	24593
829.134	24559
829.273	24585
829.412	24551
829.551	24410
829.69	24498
829.829	24536
829.968	24505
830.107	24570
830.246	24563
830.385	24601
830.524	24479
830.663	24494
830.802	24330
830.941	24289
831.08	24140
831.219	24079
831.357	24308
831.496	24357
831.635	24289
831.774	24136
831.913	24152
832.051	23992
832.19	23961
832.329	23988
832.467	23874
832.606	23752
832.744	23866
832.883	23866
833.022	23882
833.16	23935
833.299	23954
833.437	23779
833.576	23996
833.714	24022
833.852	23916
833.991	23931
834.129	24007
834.267	24034
834.406	23935
834.544	23931
834.682	23999
834.821	23939
834.959	24049
835.097	23912
835.235	23893
835.373	23908
835.511	23908
835.65	23687
835.788	23741
835.926	23680
836.064	23501
836.202	23581
836.34	23668
836.478	23764
836.615	23672
836.753	23809
836.891	23840
837.029	23817
837.167	23680
837.305	23680
837.443	23577
837.58	23589
837.718	23638
837.856	23608
837.993	23592
838.131	23490
838.269	23360
838.406	23421
838.544	23467
838.681	23189
838.819	23227
838.956	23014
839.094	23006
839.231	23159
839.369	23235
839.506	23452
839.643	23455
839.781	23086
839.918	22923
840.055	23105
840.193	23048
840.33	23010
840.467	22995
840.604	23010
840.742	23334
840.879	22953
841.016	22862
841.153	22869
841.29	23094
841.427	23041
841.564	22953
841.701	22938
841.838	22942
841.975	22816
842.112	22809
842.249	22782
842.385	22755
842.522	22968
842.659	22793
842.796	22752
842.933	22786
843.069	22710
843.206	22778
843.343	22805
843.479	22839
843.616	22710
843.752	22405
843.889	22470
844.025	22618
844.162	22447
844.298	22573
844.435	22409
844.571	22474
844.708	22485
844.844	22565
844.98	22603
845.117	22599
845.253	22390
845.389	22417
845.525	22462
845.661	22409
845.798	22272
845.934	22291
846.07	22196
846.206	22333
846.342	22333
846.478	22249
846.614	22154
846.75	21972
846.886	21979
847.022	21949
847.158	22090
847.294	21994
847.429	22093
847.565	22017
847.701	22249
847.837	21701
847.972	21713
848.108	21724
848.244	21778
848.379	21633
848.515	21530
848.65	21583
848.786	21637
848.921	21511
849.057	21644
849.192	21614
849.328	21625
849.463	21587
849.598	21492
849.734	21439
849.869	21317
850.004	21359
850.14	21420
850.275	21363
850.41	21131
850.545	21424
850.68	21355
850.815	21450
850.95	21298
851.085	21538
851.22	21454
851.355	21355
851.49	21275
851.625	21321
851.76	21298
851.895	21211
852.03	21363
852.165	21275
852.299	21332
852.434	21363
852.569	21378
852.703	21306
852.838	21268
852.973	21466
853.107	21447
853.242	21310
853.376	21165
853.511	21055
853.645	21112
853.78	21294
853.914	21207
854.048	20971
854.183	21135
854.317	21237
854.451	21302
854.585	21146
854.72	21237
854.854	21199
854.988	21207
855.122	21184
855.256	21119
855.39	21252
855.524	21142
855.658	21192
855.792	21188
855.926	21180
856.06	21245
856.194	21165
856.327	21104
856.461	21116
856.595	21127
856.729	21150
856.862	21211
856.996	21161
857.13	21226
857.263	21249
857.397	21226
857.53	21089
857.664	21340
857.797	21283
857.931	21249
858.064	21245
858.197	21237
858.331	21203
858.464	21146
858.597	21123
858.731	21192
858.864	21108
858.997	21222
859.13	21150
859.263	21146
859.396	21279
859.529	21233
859.662	21070
859.795	21119
859.928	21169
860.061	21294
860.194	21351
860.327	21310
860.46	21226
860.592	21355
860.725	21283
860.858	21203
860.99	21081
861.123	21089
861.256	21043
861.388	21100
861.521	21781
861.653	20979
861.786	20998
861.918	21047
862.05	20986
862.183	21096
862.315	21051
862.447	21070
862.58	21062
862.712	20830
862.844	20902
862.976	21005
863.108	21005
863.24	21169
863.372	20769
863.504	20887
863.636	20902
863.768	20853
863.9	20861
864.032	20777
864.164	20800
864.296	20910
864.428	20979
864.559	20937
864.691	20967
864.823	20861
864.954	20842
865.086	20921
865.217	20861
865.349	20792
865.48	20659
865.612	20830
865.743	20781
865.875	20815
866.006	20769
866.137	20887
866.269	20754
866.4	20670
866.531	20739
866.662	20606
866.793	20716
866.924	20693
867.055	20735
867.186	20777
867.317	20701
867.448	20636
867.579	20667
867.71	20598
867.841	20625
867.972	20758
868.103	20632
868.233	20678
868.364	20800
868.495	20807
868.625	20998
868.756	21051
868.886	20891
869.017	20937
869.147	21093
869.278	21077
869.408	20910
869.539	20868
869.669	21051
869.799	20891
869.929	21058
870.06	21039
870.19	21180
870.32	21291
870.45	21306
870.58	21351
870.71	21481
870.84	21458
870.97	21340
871.1	21260
871.23	21515
871.36	21496
871.489	21378
871.619	21492
871.749	21492
871.879	21519
872.008	21614
872.138	21564
872.267	21450
872.397	21450
872.526	21386
872.656	21397
872.785	21416
872.915	21595
873.044	21682
873.173	21572
873.303	21675
873.432	21591
873.561	21789
873.69	21580
873.819	21549
873.948	21667
874.077	21713
874.206	21530
874.335	21538
874.464	21778
874.593	21922
874.722	21827
874.851	21873
874.979	21751
875.108	21899
875.237	21751
875.365	21523
875.494	21739
875.623	21759
875.751	21728
875.88	21736
876.008	21827
876.136	21964
876.265	22207
876.393	22337
876.521	22207
876.65	22303
876.778	22204
876.906	22120
877.034	22112
877.162	22063
877.29	22200
877.418	22215
877.546	22017
877.674	22185
877.802	22207
877.93	22219
878.058	22059
878.185	22013
878.313	22162
878.441	21934
878.568	21953
878.696	22082
878.824	22226
878.951	22268
879.079	22451
879.206	22310
879.333	22196
879.461	22234
879.588	22341
879.715	22276
879.842	22390
879.97	22181
880.097	21994
880.224	21918
880.351	21926
880.478	21987
880.605	21941
880.732	21949
880.859	22314
880.986	21949
881.112	21983
881.239	21705
881.366	21705
881.493	21629
881.619	21477
881.746	21610
881.872	21576
881.999	21538
882.125	21481
882.252	21641
882.378	21481
882.505	21545
882.631	21363
882.757	21355
882.883	21420
883.01	21325
883.136	21211
883.262	21093
883.388	21085
883.514	21157
883.64	21256
883.766	21055
883.892	20910
884.018	21096
884.143	21233
884.269	21279
884.395	20994
884.52	20807
884.646	21032
884.772	20788
884.897	20754
885.023	20788
885.148	21047
885.274	21039
885.399	20986
885.524	20883
885.65	20868
885.775	20872
885.9	20864
886.025	21085
886.15	20872
886.275	20910
886.4	20724
886.525	20857
886.65	20746
886.775	20876
886.9	21081
887.025	21017
887.149	20975
887.274	20743
887.399	20689
887.523	20545
887.648	20541
887.773	20522
887.897	20621
888.021	20701
888.146	20552
888.27	20758
888.395	20701
888.519	20651
888.643	20613
888.767	20777
888.891	20522
889.015	20556
889.139	20476
889.263	20374
889.387	20670
889.511	20598
889.635	20613
889.759	20457
889.883	20393
890.006	20575
890.13	20568
890.254	20404
890.377	20263
890.501	20309
890.624	20073
890.748	20298
890.871	20164
890.995	20172
891.118	19932
891.241	20126
891.364	20035
891.488	20199
891.611	20100
891.734	20092
891.857	20157
891.98	20016
892.103	20073
892.226	20081
892.349	20020
892.471	19894
892.594	20008
892.717	19944
892.839	20031
892.962	19959
893.085	20031
893.207	19917
893.33	19852
893.452	19830
893.575	20005
893.697	19841
893.819	20142
893.941	20275
894.064	20084
894.186	19837
894.308	19852
894.43	20153
894.552	20012
894.674	20058
894.796	19906
894.918	20043
895.04	19967
895.161	20062
895.283	20024
895.405	19868
895.526	19951
895.648	19989
895.769	19986
895.891	19970
896.012	20024
896.134	19951
896.255	20077
896.376	19894
896.498	20001
896.619	20077
896.74	19970
896.861	20024
896.982	20233
897.103	20488
897.224	20134
897.345	20180
897.466	20195
897.587	20172
897.708	20278
897.828	20149
897.949	20077
898.07	20027
898.19	20077
898.311	20282
898.431	20183
898.552	20214
898.672	20351
898.792	20126
898.913	20214
899.033	20084
899.153	19951
899.273	19928
899.393	19978
899.513	19947
899.633	20012
899.753	19906
899.873	19875
899.993	20008
900.113	19932
900.232	19963
900.352	19944
900.472	19830
900.591	19700
900.711	19753
900.83	19731
900.95	19795
901.069	19750
901.189	19594
901.308	19407
901.427	19285
901.546	19373
901.665	19324
901.784	19354
901.904	19183
902.023	19118
902.141	18840
902.26	18886
902.379	18943
902.498	18875
902.617	18909
902.735	18814
902.854	18757
902.973	18703
903.091	18422
903.21	18528
903.328	18441
903.446	18251
903.565	18308
903.683	18365
903.801	18178
903.919	18186
904.038	18273
904.156	18079
904.274	18155
904.392	18087
904.51	18076
904.627	18076
904.745	18019
904.863	18064
904.981	17802
905.098	17710
905.216	17775
905.334	17798
905.451	17752
905.569	17745
905.686	17783
905.803	17722
905.921	17543
906.038	17623
906.155	17539
906.272	17493
906.389	17459
906.506	17307
906.623	17299
906.74	17288
906.857	17204
906.974	17174
907.091	17376
907.208	17364
907.324	17242
907.441	17132
907.557	16949
907.674	16927
907.79	17018
907.907	17018
908.023	17052
908.139	17041
908.256	16900
908.372	16900
908.488	16889
908.604	16706
908.72	16721
908.836	16630
908.952	16626
909.068	16668
909.184	16778
909.3	16740
909.415	16733
909.531	16691
909.647	16428
909.762	16474
909.878	16371
909.993	16554
910.108	16432
910.224	16424
910.339	16360
910.454	16287
910.57	16242
910.685	16124
910.8	16386
910.915	16318
911.03	16291
911.145	16101
911.259	16036
911.374	15979
911.489	15956
911.604	15895
911.718	15850
911.833	15865
911.947	15633
912.062	15561
912.176	15797
912.291	15720
912.405	15724
912.519	15915
912.633	15953
912.748	15732
912.862	15728
912.976	15625
913.09	15412
913.204	15553
913.318	15538
913.431	15690
913.545	15644
913.659	15770
913.772	15492
913.886	15477
914	15443
914.113	15466
914.226	15431
914.34	15526
914.453	15321
914.566	15393
914.68	15222
914.793	15169
914.906	15157
915.019	14994
915.132	14883
915.245	14963
915.358	14994
915.47	14998
915.583	15051
915.696	14982
915.809	15055
915.921	15085
916.034	14960
916.146	14899
916.259	14887
916.371	14933
916.483	14921
916.595	14887
916.708	14975
916.82	14849
916.932	14807
917.044	14727
917.156	14750
917.268	14625
917.38	14686
917.491	14610
917.603	14598
917.715	14739
917.826	14720
917.938	14636
918.049	14480
918.161	14575
918.272	14750
918.384	14712
918.495	14545
918.606	14465
918.717	14412
918.828	14514
918.939	14473
919.05	14294
919.161	14404
919.272	14206
919.383	14396
919.494	14446
919.604	14617
919.715	14294
919.826	14320
919.936	14396
920.047	14438
920.157	14347
920.267	14514
920.378	14355
920.488	14294
920.598	14488
920.708	14720
920.818	14560
920.928	14457
921.038	14746
921.148	14701
921.258	14358
921.368	14377
921.477	14145
921.587	14084
921.697	14024
921.806	14221
921.916	14005
922.025	13780
922.134	13769
922.244	13723
922.353	13693
922.462	13658
922.571	13563
922.68	13426
922.789	13331
922.898	13308
923.007	13358
923.116	13441
923.224	13422
923.333	13377
923.442	13274
923.55	13228
923.659	13312
923.767	13331
923.876	13194
923.984	13266
924.092	13072
924.201	13259
924.309	13072
924.417	13259
924.525	13099
924.633	12993
924.741	14008
924.849	12882
924.956	13012
925.064	12928
925.172	12825
925.279	12814
925.387	12814
925.494	12897
925.602	12977
925.709	12871
925.816	12589
925.924	12726
926.031	12825
926.138	12677
926.245	12810
926.352	12711
926.459	12749
926.566	12814
926.673	12749
926.779	12555
926.886	12521
926.993	12475
927.099	12429
927.206	12369
927.312	12239
927.419	12365
927.525	12414
927.631	12399
927.737	12308
927.843	12235
927.95	12079
928.056	12175
928.162	12266
928.267	12270
928.373	12791
928.479	12289
928.585	11977
928.69	12186
928.796	12247
928.901	12076
929.007	11942
929.112	12106
929.218	12072
929.323	11965
929.428	11920
929.533	11969
929.638	11783
929.743	11897
929.848	11965
929.953	11912
930.058	11805
930.163	11661
930.267	11638
930.372	11771
930.477	11577
930.581	11866
930.685	11722
930.79	11406
930.894	11570
930.998	11463
931.103	11634
931.207	11349
931.311	11128
931.415	11098
931.519	10965
931.623	10889
