Data from test_V78500241_2801.txt Node
Date: Fri Mar 25 15:29:21 CST 2022
User: usil
Spectrometer: V785-0024
Trigger mode: 0
Integration Time (sec): 4.000000E-1
Scans to average: 1
Nonlinearity correction enabled: false
Boxcar width: 0
Storing dark spectrum: false
XAxis mode: Wavelengths
Number of Pixels in Spectrum: 1024
>>>>>Begin Spectral Data<<<<<
801.071	27214
801.214	27203
801.356	26887
801.499	26826
801.641	26845
801.783	26735
801.926	26823
802.068	26785
802.211	26746
802.353	26602
802.496	26518
802.638	26431
802.78	26355
802.923	26339
803.065	26290
803.208	26248
803.35	26404
803.492	26503
803.635	26552
803.777	26442
803.919	26590
804.061	26944
804.204	26564
804.346	26446
804.488	26545
804.63	26541
804.773	26442
804.915	26617
805.057	26746
805.199	26476
805.341	26579
805.483	26682
805.626	26720
805.768	26632
805.91	26583
806.052	26853
806.194	26549
806.336	26914
806.478	26629
806.62	26632
806.762	26727
806.904	26982
807.046	27165
807.188	27081
807.33	27062
807.472	27116
807.614	27017
807.756	26967
807.898	27093
808.04	26746
808.182	26815
808.324	26990
808.465	26933
808.607	27237
808.749	27249
808.891	27435
809.033	27427
809.174	27306
809.316	27256
809.458	27112
809.6	27294
809.741	27389
809.883	27336
810.025	27500
810.166	27648
810.308	27614
810.45	27542
810.591	27416
810.733	27344
810.875	27252
811.016	27157
811.158	27142
811.299	27332
811.441	27488
811.582	27393
811.724	27218
811.865	27180
812.007	27283
812.148	27192
812.29	27165
812.431	27511
812.573	27557
812.714	27580
812.855	27644
812.997	27766
813.138	27968
813.279	27816
813.421	27812
813.562	27572
813.703	27629
813.845	27515
813.986	27173
814.127	27039
814.268	26933
814.41	27081
814.551	26811
814.692	26963
814.833	26785
814.974	26937
815.115	27039
815.256	26746
815.397	26785
815.539	26693
815.68	26769
815.821	26499
815.962	26735
816.103	26575
816.244	26518
816.385	26503
816.526	26320
816.666	26282
816.807	26069
816.948	26145
817.089	26286
817.23	26313
817.371	26229
817.512	26195
817.653	26168
817.793	26153
817.934	26001
818.075	26248
818.216	26256
818.356	26199
818.497	26024
818.638	26043
818.778	25830
818.919	25849
819.06	25970
819.2	26138
819.341	26187
819.481	26301
819.622	26278
819.762	26530
819.903	26461
820.043	26450
820.184	26199
820.324	26244
820.465	26286
820.605	26130
820.746	26229
820.886	26126
821.026	26244
821.167	26157
821.307	26275
821.447	26195
821.588	26096
821.728	25887
821.868	25856
822.008	25594
822.149	25590
822.289	25643
822.429	25316
822.569	25240
822.709	25244
822.849	25118
822.99	25072
823.13	25148
823.27	24992
823.41	24916
823.55	24886
823.69	24947
823.83	25042
823.97	24783
824.11	24798
824.25	24646
824.389	24719
824.529	24905
824.669	24734
824.809	24901
824.949	24776
825.089	24722
825.228	24722
825.368	24589
825.508	24528
825.648	24540
825.787	24623
825.927	24544
826.067	24593
826.206	24745
826.346	24684
826.485	24669
826.625	24620
826.765	24684
826.904	24654
827.044	24403
827.183	24407
827.323	24334
827.462	24350
827.601	24296
827.741	24136
827.88	24361
828.02	24117
828.159	24327
828.298	24361
828.437	24380
828.577	24209
828.716	24399
828.855	24087
828.994	24049
829.134	24091
829.273	23961
829.412	23996
829.551	23935
829.69	24098
829.829	24045
829.968	24057
830.107	24064
830.246	24022
830.385	23927
830.524	24026
830.663	23908
830.802	23695
830.941	23722
831.08	23619
831.219	23661
831.357	23802
831.496	23783
831.635	23691
831.774	23573
831.913	23391
832.051	23501
832.19	23372
832.329	23387
832.467	23265
832.606	23322
832.744	23166
832.883	23227
833.022	23299
833.16	23398
833.299	23223
833.437	23311
833.576	23299
833.714	23436
833.852	23337
833.991	23398
834.129	23353
834.267	23402
834.406	23345
834.544	23406
834.682	23349
834.821	23360
834.959	23452
835.097	23368
835.235	23410
835.373	23356
835.511	23414
835.65	23235
835.788	23223
835.926	23025
836.064	22934
836.202	23155
836.34	23223
836.478	23193
836.615	23178
836.753	23261
836.891	23208
837.029	23208
837.167	23033
837.305	23265
837.443	23037
837.58	22949
837.718	23048
837.856	23086
837.993	23086
838.131	22927
838.269	22873
838.406	22980
838.544	22820
838.681	22740
838.819	22687
838.956	22478
839.094	22497
839.231	22618
839.369	22694
839.506	22953
839.643	22668
839.781	22493
839.918	22557
840.055	22489
840.193	22462
840.33	22360
840.467	22512
840.604	22478
840.742	22713
840.879	22299
841.016	22390
841.153	22322
841.29	22516
841.427	22497
841.564	22436
841.701	22398
841.838	22325
841.975	22303
842.112	22291
842.249	22238
842.385	22120
842.522	22371
842.659	22390
842.796	22295
842.933	22310
843.069	22067
843.206	22116
843.343	22303
843.479	22253
843.616	22295
843.752	21972
843.889	21964
844.025	22150
844.162	21983
844.298	21907
844.435	22006
844.571	21911
844.708	22055
844.844	22196
844.98	22139
845.117	22067
845.253	21922
845.389	21915
845.525	21812
845.661	21842
845.798	21701
845.934	21831
846.07	21709
846.206	21629
846.342	21895
846.478	21564
846.614	21542
846.75	21420
846.886	21317
847.022	21431
847.158	21466
847.294	21439
847.429	21614
847.565	21378
847.701	21698
847.837	21192
847.972	21135
848.108	21272
848.244	21241
848.379	21001
848.515	21100
848.65	21047
848.786	21062
848.921	21005
849.057	21104
849.192	21116
849.328	20895
849.463	21047
849.598	21013
849.734	20887
849.869	20906
850.004	20883
850.14	20918
850.275	20887
850.41	20670
850.545	20743
850.68	20769
850.815	20811
850.95	20796
851.085	20929
851.22	21036
851.355	20811
851.49	20712
851.625	20708
851.76	20857
851.895	20697
852.03	20731
852.165	20925
852.299	20880
852.434	20853
852.569	20826
852.703	20864
852.838	20823
852.973	20979
853.107	20902
853.242	20853
853.376	20659
853.511	20571
853.645	20514
853.78	20678
853.914	20686
854.048	20655
854.183	20518
854.317	20594
854.451	20864
854.585	20648
854.72	20602
854.854	20777
854.988	20590
855.122	20632
855.256	20488
855.39	20526
855.524	20697
855.658	20686
855.792	20663
855.926	20670
856.06	20571
856.194	20750
856.327	20602
856.461	20587
856.595	20621
856.729	20564
856.862	20807
856.996	20571
857.13	20678
857.263	20629
857.397	20712
857.53	20609
857.664	20739
857.797	20613
857.931	20800
858.064	20708
858.197	20788
858.331	20590
858.464	20522
858.597	20503
858.731	20724
858.864	20655
858.997	20632
859.13	20575
859.263	20560
859.396	20746
859.529	20590
859.662	20518
859.795	20663
859.928	20663
860.061	20941
860.194	20857
860.327	20697
860.46	20629
860.592	20659
860.725	20842
860.858	20705
860.99	20663
861.123	20621
861.256	20583
861.388	20579
861.521	21249
861.653	20552
861.786	20454
861.918	20476
862.05	20522
862.183	20583
862.315	20743
862.447	20473
862.58	20552
862.712	20381
862.844	20317
862.976	20415
863.108	20362
863.24	20769
863.372	20309
863.504	20400
863.636	20389
863.768	20374
863.9	20415
864.032	20263
864.164	20286
864.296	20408
864.428	20549
864.559	20484
864.691	20469
864.823	20454
864.954	20427
865.086	20366
865.217	20233
865.349	20161
865.48	20256
865.612	20202
865.743	20358
865.875	20271
866.006	20324
866.137	20256
866.269	20237
866.4	20225
866.531	20275
866.662	20122
866.793	20278
866.924	20233
867.055	20206
867.186	20244
867.317	20248
867.448	20157
867.579	20122
867.71	20084
867.841	20065
867.972	20183
868.103	20043
868.233	20191
868.364	20092
868.495	20229
868.625	20450
868.756	20606
868.886	20362
869.017	20499
869.147	20533
869.278	20621
869.408	20473
869.539	20442
869.669	20514
869.799	20423
869.929	20579
870.06	20568
870.19	20758
870.32	20667
870.45	20815
870.58	20826
870.71	21013
870.84	20887
870.97	20743
871.1	20807
871.23	21055
871.36	21074
871.489	20952
871.619	20956
871.749	20986
871.879	21089
872.008	21199
872.138	21039
872.267	21119
872.397	20918
872.526	20963
872.656	20823
872.785	20891
872.915	21070
873.044	21249
873.173	21058
873.303	21096
873.432	21211
873.561	21024
873.69	21104
873.819	20937
873.948	21085
874.077	21077
874.206	21066
874.335	21009
874.464	21104
874.593	21325
874.722	21237
874.851	21256
874.979	21268
875.108	21249
875.237	21344
875.365	21313
875.494	21214
875.623	21382
875.751	21195
875.88	21245
876.008	21549
876.136	21443
876.265	21713
876.393	21766
876.521	21831
876.65	21736
876.778	21690
876.906	21667
877.034	21667
877.162	21656
877.29	21667
877.418	21603
877.546	21591
877.674	21709
877.802	21694
877.93	21603
878.058	21641
878.185	21629
878.313	21481
878.441	21603
878.568	21393
878.696	21526
878.824	21633
878.951	21717
879.079	21736
879.206	21903
879.333	21838
879.461	21576
879.588	21793
879.715	21785
879.842	21892
879.97	21766
880.097	21439
880.224	21488
880.351	21515
880.478	21507
880.605	21412
880.732	21416
880.859	21728
880.986	21492
881.112	21447
881.239	21203
881.366	21176
881.493	21214
881.619	21085
881.746	21096
881.872	21142
881.999	20960
882.125	20910
882.252	21104
882.378	21032
882.505	21096
882.631	20941
882.757	20773
882.883	20811
883.01	20773
883.136	20705
883.262	20659
883.388	20514
883.514	20640
883.64	20754
883.766	20636
883.892	20617
884.018	20511
884.143	20781
884.269	20746
884.395	20556
884.52	20377
884.646	20492
884.772	20271
884.897	20317
885.023	20450
885.148	20579
885.274	20556
885.399	20488
885.524	20431
885.65	20282
885.775	20400
885.9	20332
886.025	20537
886.15	20400
886.275	20431
886.4	20290
886.525	20381
886.65	20412
886.775	20286
886.9	20503
887.025	20663
887.149	20320
887.274	20317
887.399	20195
887.523	20210
887.648	20138
887.773	20153
887.897	20305
888.021	20320
888.146	20145
888.27	20263
888.395	20320
888.519	20191
888.643	20176
888.767	20065
888.891	20103
889.015	19974
889.139	20046
889.263	20016
889.387	20046
889.511	20229
889.635	20111
889.759	20069
889.883	19974
890.006	20062
890.13	20149
890.254	19830
890.377	19879
890.501	19734
890.624	19727
890.748	19750
890.871	19594
890.995	19487
891.118	19502
891.241	19647
891.364	19723
891.488	19666
891.611	19548
891.734	19533
891.857	19655
891.98	19601
892.103	19597
892.226	19567
892.349	19468
892.471	19419
892.594	19472
892.717	19529
892.839	19502
892.962	19506
893.085	19567
893.207	19575
893.33	19384
893.452	19365
893.575	19689
893.697	19384
893.819	19803
893.941	19731
894.064	19670
894.186	19449
894.308	19392
894.43	19559
894.552	19628
894.674	19700
894.796	19495
894.918	19441
895.04	19388
895.161	19647
895.283	19514
895.405	19449
895.526	19582
895.648	19422
895.769	19476
895.891	19537
896.012	19601
896.134	19510
896.255	19563
896.376	19491
896.498	19480
896.619	19586
896.74	19392
896.861	19525
896.982	19860
897.103	19959
897.224	19906
897.345	19708
897.466	19681
897.587	19795
897.708	19719
897.828	19761
897.949	19571
898.07	19529
898.19	19609
898.311	19811
898.431	19719
898.552	19753
898.672	19753
898.792	19807
898.913	19689
899.033	19609
899.153	19529
899.273	19350
899.393	19449
899.513	19632
899.633	19514
899.753	19514
899.873	19483
899.993	19540
900.113	19521
900.232	19491
900.352	19480
900.472	19343
900.591	19285
900.711	19293
900.83	19289
900.95	19346
901.069	19422
901.189	19183
901.308	19008
901.427	18894
901.546	18810
901.665	18817
901.784	18814
901.904	18734
902.023	18730
902.141	18426
902.26	18418
902.379	18532
902.498	18391
902.617	18410
902.735	18422
902.854	18372
902.973	18327
903.091	18060
903.21	18110
903.328	18030
903.446	18110
903.565	17931
903.683	18034
903.801	17794
903.919	17805
904.038	17813
904.156	17634
904.274	17737
904.392	17627
904.51	17615
904.627	17566
904.745	17596
904.863	17661
904.981	17463
905.098	17303
905.216	17334
905.334	17337
905.451	17341
905.569	17258
905.686	17315
905.803	17318
905.921	17136
906.038	17273
906.155	17212
906.272	17056
906.389	16980
906.506	16919
906.623	16938
906.74	16961
906.857	16675
906.974	16721
907.091	16847
907.208	16987
907.324	16847
907.441	16729
907.557	16687
907.674	16634
907.79	16481
907.907	16516
908.023	16679
908.139	16596
908.256	16428
908.372	16443
908.488	16470
908.604	16371
908.72	16325
908.836	16329
908.952	16242
909.068	16253
909.184	16402
909.3	16230
909.415	16417
909.531	16291
909.647	16074
909.762	16055
909.878	15930
909.993	16021
910.108	16051
910.224	16078
910.339	16040
910.454	15911
910.57	15884
910.685	15705
910.8	16097
910.915	16029
911.03	15800
911.145	15743
911.259	15679
911.374	15507
911.489	15561
911.604	15534
911.718	15340
911.833	15329
911.947	15405
912.062	15325
912.176	15420
912.291	15443
912.405	15363
912.519	15591
912.633	15789
912.748	15515
912.862	15344
912.976	15211
913.09	15131
913.204	15176
913.318	15165
913.431	15256
913.545	15291
913.659	15272
913.772	15138
913.886	15032
914	14994
914.113	15085
914.226	15104
914.34	15017
914.453	14963
914.566	15058
914.68	14880
914.793	14982
914.906	14735
915.019	14705
915.132	14625
915.245	14693
915.358	14754
915.47	14556
915.583	14579
915.696	14587
915.809	14705
915.921	14678
916.034	14629
916.146	14499
916.259	14568
916.371	14686
916.483	14495
916.595	14476
916.708	14488
916.82	14461
916.932	14431
917.044	14427
917.156	14396
917.268	14358
917.38	14290
917.491	14305
917.603	14351
917.715	14370
917.826	14355
917.938	14210
918.049	14161
918.161	14336
918.272	14404
918.384	14431
918.495	14199
918.606	14058
918.717	14001
918.828	14164
918.939	14134
919.05	14084
919.161	14065
919.272	13902
919.383	13906
919.494	14058
919.604	14328
919.715	14031
919.826	13894
919.936	13997
920.047	14164
920.157	14100
920.267	14187
920.378	14107
920.488	14031
920.598	14164
920.708	14339
920.818	14138
920.928	14126
921.038	14290
921.148	14248
921.258	14012
921.368	13913
921.477	13887
921.587	13784
921.697	13647
921.806	13845
921.916	13647
922.025	13533
922.134	13457
922.244	13449
922.353	13483
922.462	13339
922.571	13232
922.68	13084
922.789	13103
922.898	13137
923.007	13012
923.116	13050
923.224	13118
923.333	13053
923.442	13000
923.55	12882
923.659	12939
923.767	13034
923.876	12859
923.984	13019
924.092	12760
924.201	12867
924.309	12848
924.417	12795
924.525	12798
924.633	12772
924.741	13582
924.849	12578
924.956	12787
925.064	12574
925.172	12502
925.279	12559
925.387	12608
925.494	12464
925.602	12700
925.709	12502
925.816	12418
925.924	12441
926.031	12597
926.138	12452
926.245	12494
926.352	12399
926.459	12486
926.566	12593
926.673	12414
926.779	12277
926.886	12285
926.993	12095
927.099	12079
927.206	12144
927.312	12133
927.419	12136
927.525	12072
927.631	12106
927.737	11988
927.843	11999
927.95	11817
928.056	11996
928.162	11931
928.267	11923
928.373	12635
928.479	12038
928.585	11710
928.69	11901
928.796	11923
928.901	11851
929.007	11733
929.112	11802
929.218	11813
929.323	11665
929.428	11726
929.533	11794
929.638	11619
929.743	11634
929.848	11638
929.953	11657
930.058	11535
930.163	11368
930.267	11421
930.372	11558
930.477	11322
930.581	11512
930.685	11383
930.79	11216
930.894	11284
930.998	11201
931.103	11387
931.207	11075
931.311	10930
931.415	10881
931.519	10702
931.623	10649
