Data from test_V78500241_772.txt Node
Date: Fri Mar 25 15:15:14 CST 2022
User: usil
Spectrometer: V785-0024
Trigger mode: 0
Integration Time (sec): 4.000000E-1
Scans to average: 1
Nonlinearity correction enabled: false
Boxcar width: 0
Storing dark spectrum: false
XAxis mode: Wavelengths
Number of Pixels in Spectrum: 1024
>>>>>Begin Spectral Data<<<<<
801.071	28128
801.214	28109
801.356	27949
801.499	27816
801.641	27743
801.783	27675
801.926	27656
802.068	27576
802.211	27622
802.353	27656
802.496	27344
802.638	27439
802.78	27408
802.923	27287
803.065	27230
803.208	27401
803.35	27526
803.492	27557
803.635	27637
803.777	27458
803.919	27686
804.061	27846
804.204	27603
804.346	27492
804.488	27637
804.63	27393
804.773	27580
804.915	27507
805.057	27545
805.199	27526
805.341	27728
805.483	27846
805.626	27724
805.768	27507
805.91	27713
806.052	27717
806.194	27553
806.336	27759
806.478	27816
806.62	27755
806.762	27873
806.904	27941
807.046	28158
807.188	28215
807.33	28188
807.472	28211
807.614	28074
807.756	28154
807.898	28116
808.04	28002
808.182	27975
808.324	28131
808.465	28082
808.607	28181
808.749	28306
808.891	28329
809.033	28615
809.174	28417
809.316	28386
809.458	28360
809.6	28322
809.741	28596
809.883	28599
810.025	28626
810.166	28573
810.308	28691
810.45	28656
810.591	28679
810.733	28367
810.875	28436
811.016	28375
811.158	28333
811.299	28455
811.441	28664
811.582	28683
811.724	28318
811.865	28204
812.007	28367
812.148	28451
812.29	28504
812.431	28630
812.573	28927
812.714	28888
812.855	28839
812.997	28938
813.138	29200
813.279	29162
813.421	29052
813.562	28961
813.703	28759
813.845	28645
813.986	28390
814.127	28287
814.268	28025
814.41	28010
814.551	28086
814.692	28188
814.833	27937
814.974	28192
815.115	28219
815.256	27907
815.397	28006
815.539	27983
815.68	27941
815.821	27781
815.962	27934
816.103	27956
816.244	27808
816.385	27850
816.526	27561
816.666	27595
816.807	27370
816.948	27393
817.089	27644
817.23	27603
817.371	27348
817.512	27355
817.653	27340
817.793	27325
817.934	27408
818.075	27485
818.216	27370
818.356	27424
818.497	27226
818.638	27077
818.778	27218
818.919	27192
819.06	27089
819.2	27150
819.341	27291
819.481	27317
819.622	27629
819.762	27690
819.903	27816
820.043	27557
820.184	27633
820.324	27351
820.465	27564
820.605	27488
820.746	27477
820.886	27355
821.026	27416
821.167	27507
821.307	27606
821.447	27431
821.588	27283
821.728	27260
821.868	27058
822.008	26902
822.149	26948
822.289	26906
822.429	26648
822.569	26522
822.709	26522
822.849	26488
822.99	26488
823.13	26271
823.27	26343
823.41	26081
823.55	26100
823.69	26142
823.83	26225
823.97	26138
824.11	26016
824.25	25989
824.389	25932
824.529	26187
824.669	26012
824.809	26134
824.949	26096
825.089	26164
825.228	26134
825.368	25959
825.508	25997
825.648	25986
825.787	26039
825.927	25928
826.067	25780
826.206	25986
826.346	25955
826.485	26073
826.625	25788
826.765	26100
826.904	25826
827.044	25700
827.183	25506
827.323	25559
827.462	25750
827.601	25731
827.741	25609
827.88	25795
828.02	25563
828.159	25620
828.298	25540
828.437	25670
828.577	25529
828.716	25628
828.855	25495
828.994	25346
829.134	25339
829.273	25308
829.412	25335
829.551	25232
829.69	25312
829.829	25324
829.968	25308
830.107	25415
830.246	25259
830.385	25255
830.524	25232
830.663	25228
830.802	25107
830.941	24932
831.08	24878
831.219	25015
831.357	25004
831.496	25179
831.635	24916
831.774	24798
831.913	24745
832.051	24700
832.19	24566
832.329	24688
832.467	24620
832.606	24665
832.744	24536
832.883	24715
833.022	24532
833.16	24623
833.299	24623
833.437	24620
833.576	24692
833.714	24597
833.852	24696
833.991	24715
834.129	24757
834.267	24684
834.406	24642
834.544	24730
834.682	24627
834.821	24661
834.959	24730
835.097	24673
835.235	24684
835.373	24677
835.511	24673
835.65	24505
835.788	24555
835.926	24350
836.064	24388
836.202	24319
836.34	24479
836.478	24517
836.615	24521
836.753	24464
836.891	24623
837.029	24505
837.167	24388
837.305	24357
837.443	24323
837.58	24281
837.718	24410
837.856	24251
837.993	24251
838.131	24315
838.269	24228
838.406	24330
838.544	24163
838.681	23977
838.819	23946
838.956	23771
839.094	23828
839.231	23802
839.369	23901
839.506	24087
839.643	24076
839.781	23767
839.918	23756
840.055	23802
840.193	23786
840.33	23748
840.467	23661
840.604	23729
840.742	23897
840.879	23577
841.016	23661
841.153	23520
841.29	23885
841.427	23600
841.564	23668
841.701	23668
841.838	23745
841.975	23577
842.112	23680
842.249	23562
842.385	23414
842.522	23592
842.659	23486
842.796	23505
842.933	23543
843.069	23417
843.206	23341
843.343	23551
843.479	23395
843.616	23459
843.752	23254
843.889	23216
844.025	23376
844.162	23204
844.298	23318
844.435	23258
844.571	23296
844.708	23322
844.844	23467
844.98	23387
845.117	23379
845.253	23239
845.389	23094
845.525	23242
845.661	23204
845.798	23037
845.934	22972
846.07	22972
846.206	22984
846.342	23124
846.478	23003
846.614	22672
846.75	22702
846.886	22675
847.022	22812
847.158	22797
847.294	22755
847.429	22713
847.565	22683
847.701	22976
847.837	22485
847.972	22379
848.108	22546
848.244	22554
848.379	22322
848.515	22310
848.65	22223
848.786	22356
848.921	22485
849.057	22363
849.192	22344
849.328	22481
849.463	22310
849.598	22249
849.734	22204
849.869	22082
850.004	22135
850.14	22128
850.275	22070
850.41	22070
850.545	21949
850.68	21975
850.815	22154
850.95	22021
851.085	22314
851.22	22166
851.355	22143
851.49	22040
851.625	21899
851.76	22158
851.895	21983
852.03	21953
852.165	22086
852.299	22048
852.434	22078
852.569	22105
852.703	22090
852.838	22120
852.973	22226
853.107	22116
853.242	22063
853.376	21857
853.511	21717
853.645	21934
853.78	21975
853.914	21876
854.048	21800
854.183	21907
854.317	21857
854.451	22116
854.585	21880
854.72	21880
854.854	21876
854.988	21895
855.122	21854
855.256	21694
855.39	21895
855.524	21926
855.658	21831
855.792	21972
855.926	21857
856.06	21857
856.194	21956
856.327	21793
856.461	21857
856.595	21979
856.729	21747
856.862	22017
856.996	21915
857.13	22002
857.263	21953
857.397	21968
857.53	21675
857.664	21922
857.797	21956
857.931	21857
858.064	21960
858.197	21903
858.331	21800
858.464	21876
858.597	21762
858.731	21835
858.864	21778
858.997	21785
859.13	21842
859.263	21823
859.396	21956
859.529	21850
859.662	21743
859.795	21808
859.928	21968
860.061	22048
860.194	22059
860.327	21869
860.46	21880
860.592	21926
860.725	22017
860.858	21953
860.99	21949
861.123	21770
861.256	21793
861.388	21949
861.521	22474
861.653	21663
861.786	21667
861.918	21812
862.05	21709
862.183	21732
862.315	21759
862.447	21770
862.58	21793
862.712	21507
862.844	21435
862.976	21743
863.108	21671
863.24	22025
863.372	21355
863.504	21534
863.636	21583
863.768	21701
863.9	21473
864.032	21481
864.164	21519
864.296	21557
864.428	21679
864.559	21603
864.691	21492
864.823	21622
864.954	21625
865.086	21675
865.217	21462
865.349	21367
865.48	21416
865.612	21431
865.743	21568
865.875	21515
866.006	21416
866.137	21431
866.269	21431
866.4	21416
866.531	21428
866.662	21306
866.793	21389
866.924	21294
867.055	21367
867.186	21454
867.317	21249
867.448	21332
867.579	21332
867.71	21325
867.841	21488
867.972	21412
868.103	21435
868.233	21393
868.364	21412
868.495	21504
868.625	21568
868.756	21728
868.886	21526
869.017	21553
869.147	21720
869.278	21671
869.408	21679
869.539	21580
869.669	21679
869.799	21648
869.929	21789
870.06	21736
870.19	21964
870.32	21854
870.45	21972
870.58	22006
870.71	21968
870.84	22257
870.97	21987
871.1	22097
871.23	22268
871.36	22204
871.489	22078
871.619	22238
871.749	22280
871.879	22158
872.008	22367
872.138	22329
872.267	22116
872.397	22067
872.526	22002
872.656	22101
872.785	22048
872.915	22310
873.044	22200
873.173	22124
873.303	22242
873.432	22211
873.561	22211
873.69	22310
873.819	22280
873.948	22356
874.077	22196
874.206	22158
874.335	22310
874.464	22402
874.593	22493
874.722	22360
874.851	22382
874.979	22535
875.108	22493
875.237	22466
875.365	22402
875.494	22459
875.623	22428
875.751	22527
875.88	22470
876.008	22603
876.136	22569
876.265	22786
876.393	22850
876.521	22824
876.65	22881
876.778	22816
876.906	22877
877.034	22729
877.162	22831
877.29	22763
877.418	22843
877.546	22824
877.674	22717
877.802	22755
877.93	22946
878.058	22805
878.185	22569
878.313	22687
878.441	22774
878.568	22573
878.696	22740
878.824	22740
878.951	22801
879.079	22938
879.206	23079
879.333	22961
879.461	22854
879.588	22976
879.715	22900
879.842	23003
879.97	22850
880.097	22637
880.224	22584
880.351	22569
880.478	22569
880.605	22466
880.732	22531
880.859	22759
880.986	22577
881.112	22577
881.239	22421
881.366	22314
881.493	22131
881.619	22207
881.746	22109
881.872	22204
881.999	22181
882.125	22013
882.252	22143
882.378	22154
882.505	22234
882.631	22078
882.757	21934
882.883	22048
883.01	21823
883.136	21835
883.262	21671
883.388	21663
883.514	21960
883.64	21956
883.766	21819
883.892	21576
884.018	21755
884.143	21713
884.269	21960
884.395	21599
884.52	21473
884.646	21549
884.772	21488
884.897	21298
885.023	21515
885.148	21603
885.274	21675
885.399	21595
885.524	21538
885.65	21561
885.775	21443
885.9	21511
886.025	21572
886.15	21587
886.275	21496
886.4	21435
886.525	21477
886.65	21386
886.775	21428
886.9	21599
887.025	21667
887.149	21538
887.274	21401
887.399	21264
887.523	21336
887.648	21313
887.773	21207
887.897	21370
888.021	21340
888.146	21237
888.27	21370
888.395	21351
888.519	21344
888.643	21424
888.767	21306
888.891	21180
889.015	21142
889.139	21119
889.263	21020
889.387	21233
889.511	21302
889.635	21207
889.759	21146
889.883	21005
890.006	21066
890.13	21161
890.254	21009
890.377	21058
890.501	20975
890.624	20823
890.748	20830
890.871	20781
890.995	20522
891.118	20602
891.241	20651
891.364	20667
891.488	20853
891.611	20663
891.734	20724
891.857	20663
891.98	20632
892.103	20636
892.226	20762
892.349	20514
892.471	20355
892.594	20568
892.717	20549
892.839	20488
892.962	20514
893.085	20571
893.207	20587
893.33	20533
893.452	20389
893.575	20579
893.697	20556
893.819	20678
893.941	20743
894.064	20648
894.186	20583
894.308	20476
894.43	20613
894.552	20655
894.674	20640
894.796	20526
894.918	20564
895.04	20526
895.161	20518
895.283	20442
895.405	20473
895.526	20564
895.648	20640
895.769	20648
895.891	20712
896.012	20663
896.134	20644
896.255	20552
896.376	20442
896.498	20560
896.619	20636
896.74	20530
896.861	20682
896.982	20910
897.103	21032
897.224	20811
897.345	20853
897.466	20686
897.587	20815
897.708	20788
897.828	20758
897.949	20727
898.07	20457
898.19	20617
898.311	20716
898.431	20629
898.552	20769
898.672	20727
898.792	20838
898.913	20739
899.033	20651
899.153	20644
899.273	20450
899.393	20518
899.513	20644
899.633	20385
899.753	20484
899.873	20511
899.993	20442
900.113	20408
900.232	20408
900.352	20492
900.472	20347
900.591	20298
900.711	20358
900.83	20362
900.95	20370
901.069	20469
901.189	20058
901.308	19955
901.427	19826
901.546	19841
901.665	19841
901.784	19833
901.904	19594
902.023	19624
902.141	19460
902.26	19365
902.379	19434
902.498	19255
902.617	19358
902.735	19396
902.854	19190
902.973	19247
903.091	19031
903.21	19057
903.328	19072
903.446	18958
903.565	18814
903.683	18840
903.801	18753
903.919	18783
904.038	18787
904.156	18635
904.274	18661
904.392	18563
904.51	18608
904.627	18525
904.745	18563
904.863	18597
904.981	18426
905.098	18270
905.216	18350
905.334	18350
905.451	18308
905.569	18224
905.686	18281
905.803	18133
905.921	18125
906.038	18216
906.155	18129
906.272	17916
906.389	17958
906.506	17912
906.623	17821
906.74	17756
906.857	17600
906.974	17642
907.091	17882
907.208	17821
907.324	17832
907.441	17600
907.557	17467
907.674	17509
907.79	17474
907.907	17429
908.023	17478
908.139	17459
908.256	17486
908.372	17379
908.488	17334
908.604	17311
908.72	17155
908.836	17273
908.952	17155
909.068	17269
909.184	17235
909.3	17239
909.415	17292
909.531	17136
909.647	17018
909.762	16968
909.878	16854
909.993	16976
910.108	16919
910.224	16801
910.339	16938
910.454	16763
910.57	16767
910.685	16706
910.8	16961
910.915	16923
911.03	16713
911.145	16561
911.259	16451
911.374	16599
911.489	16424
911.604	16405
911.718	16246
911.833	16234
911.947	16158
912.062	16093
912.176	16234
912.291	16188
912.405	16211
912.519	16398
912.633	16394
912.748	16207
912.862	16291
912.976	16162
913.09	15968
913.204	16010
913.318	15979
913.431	16139
913.545	16158
913.659	16036
913.772	15972
913.886	15907
914	15869
914.113	15994
914.226	15964
914.34	15937
914.453	15739
914.566	15835
914.68	15641
914.793	15808
914.906	15580
915.019	15450
915.132	15515
915.245	15439
915.358	15511
915.47	15389
915.583	15450
915.696	15519
915.809	15553
915.921	15580
916.034	15370
916.146	15367
916.259	15310
916.371	15370
916.483	15431
916.595	15245
916.708	15279
916.82	15275
916.932	15370
917.044	15268
917.156	15192
917.268	15085
917.38	15157
917.491	15081
917.603	15062
917.715	15173
917.826	15127
917.938	15070
918.049	14921
918.161	15135
918.272	15100
918.384	15123
918.495	15085
918.606	14941
918.717	14823
918.828	14811
918.939	14861
919.05	14826
919.161	14765
919.272	14629
919.383	14754
919.494	14830
919.604	15055
919.715	14944
919.826	14537
919.936	14754
920.047	14861
920.157	14746
920.267	15032
920.378	14792
920.488	14819
920.598	14990
920.708	15085
920.818	14864
920.928	14929
921.038	15112
921.148	15032
921.258	14712
921.368	14720
921.477	14552
921.587	14526
921.697	14476
921.806	14499
921.916	14374
922.025	14123
922.134	14130
922.244	14134
922.353	14317
922.462	14027
922.571	13947
922.68	13784
922.789	13761
922.898	13784
923.007	13753
923.116	13951
923.224	13597
923.333	13776
923.442	13643
923.55	13601
923.659	13674
923.767	13708
923.876	13529
923.984	13761
924.092	13586
924.201	13544
924.309	13487
924.417	13597
924.525	13480
924.633	13407
924.741	14130
924.849	13304
924.956	13487
925.064	13183
925.172	13187
925.279	13156
925.387	13308
925.494	13282
925.602	13381
925.709	13320
925.816	13053
925.924	13137
926.031	13232
926.138	13175
926.245	13168
926.352	13103
926.459	13160
926.566	13202
926.673	13152
926.779	13038
926.886	12913
926.993	12837
927.099	12768
927.206	12715
927.312	12658
927.419	12726
927.525	12840
927.631	12856
927.737	12696
927.843	12642
927.95	12513
928.056	12654
928.162	12593
928.267	12646
928.373	13110
928.479	12646
928.585	12369
928.69	12490
928.796	12509
928.901	12433
929.007	12323
929.112	12441
929.218	12437
929.323	12338
929.428	12338
929.533	12483
929.638	12205
929.743	12391
929.848	12292
929.953	12327
930.058	12095
930.163	11958
930.267	12015
930.372	12091
930.477	11946
930.581	12175
930.685	12072
930.79	11790
930.894	11889
930.998	11878
931.103	11946
931.207	11608
931.311	11516
931.415	11444
931.519	11258
931.623	11261
