Data from test_V78500241_1144.txt Node
Date: Fri Mar 25 15:17:49 CST 2022
User: usil
Spectrometer: V785-0024
Trigger mode: 0
Integration Time (sec): 4.000000E-1
Scans to average: 1
Nonlinearity correction enabled: false
Boxcar width: 0
Storing dark spectrum: false
XAxis mode: Wavelengths
Number of Pixels in Spectrum: 1024
>>>>>Begin Spectral Data<<<<<
801.071	28143
801.214	28013
801.356	27823
801.499	27728
801.641	27572
801.783	27622
801.926	27694
802.068	27568
802.211	27553
802.353	27580
802.496	27214
802.638	27302
802.78	27165
802.923	27188
803.065	27188
803.208	27207
803.35	27310
803.492	27359
803.635	27507
803.777	27439
803.919	27633
804.061	27736
804.204	27568
804.346	27317
804.488	27450
804.63	27481
804.773	27435
804.915	27557
805.057	27591
805.199	27549
805.341	27568
805.483	27622
805.626	27701
805.768	27542
805.91	27435
806.052	27564
806.194	27591
806.336	27850
806.478	27660
806.62	27629
806.762	27827
806.904	27941
807.046	28025
807.188	28124
807.33	27918
807.472	28101
807.614	27975
807.756	28090
807.898	27850
808.04	27918
808.182	27804
808.324	27960
808.465	27975
808.607	28166
808.749	28333
808.891	28230
809.033	28318
809.174	28253
809.316	28257
809.458	28207
809.6	28154
809.741	28348
809.883	28409
810.025	28584
810.166	28615
810.308	28451
810.45	28512
810.591	28508
810.733	28363
810.875	28268
811.016	28082
811.158	28166
811.299	28379
811.441	28284
811.582	28424
811.724	28154
811.865	28211
812.007	28306
812.148	28219
812.29	28333
812.431	28459
812.573	28626
812.714	28725
812.855	28706
812.997	28771
813.138	29079
813.279	28771
813.421	28835
813.562	28809
813.703	28596
813.845	28478
813.986	28306
814.127	28002
814.268	27956
814.41	28006
814.551	27956
814.692	27937
814.833	27968
814.974	28093
815.115	27979
815.256	27808
815.397	27869
815.539	27823
815.68	27656
815.821	27679
815.962	27861
816.103	27884
816.244	27709
816.385	27591
816.526	27557
816.666	27397
816.807	27363
816.948	27348
817.089	27325
817.23	27351
817.371	27237
817.512	27199
817.653	27249
817.793	27176
817.934	27272
818.075	27287
818.216	27256
818.356	27226
818.497	27241
818.638	26918
818.778	27081
818.919	27112
819.06	27089
819.2	27207
819.341	27233
819.481	27207
819.622	27405
819.762	27641
819.903	27568
820.043	27496
820.184	27431
820.324	27412
820.465	27462
820.605	27332
820.746	27363
820.886	27237
821.026	27435
821.167	27393
821.307	27412
821.447	27325
821.588	27188
821.728	27085
821.868	26956
822.008	26899
822.149	26788
822.289	26708
822.429	26465
822.569	26533
822.709	26404
822.849	26366
822.99	26408
823.13	26199
823.27	26317
823.41	25989
823.55	26092
823.69	26073
823.83	26119
823.97	26062
824.11	25974
824.25	25875
824.389	26046
824.529	26073
824.669	25993
824.809	25951
824.949	26031
825.089	26050
825.228	25963
825.368	25753
825.508	25875
825.648	25917
825.787	25807
825.927	25932
826.067	25799
826.206	25784
826.346	25849
826.485	25959
826.625	25959
826.765	25917
826.904	25753
827.044	25533
827.183	25719
827.323	25639
827.462	25674
827.601	25571
827.741	25655
827.88	25632
828.02	25499
828.159	25628
828.298	25647
828.437	25700
828.577	25556
828.716	25632
828.855	25278
828.994	25365
829.134	25312
829.273	25369
829.412	25358
829.551	25259
829.69	25365
829.829	25255
829.968	25274
830.107	25263
830.246	25270
830.385	25274
830.524	25247
830.663	25122
830.802	25046
830.941	25019
831.08	24840
831.219	25050
831.357	25015
831.496	25091
831.635	24909
831.774	24897
831.913	24878
832.051	24639
832.19	24715
832.329	24688
832.467	24589
832.606	24502
832.744	24608
832.883	24494
833.022	24490
833.16	24498
833.299	24563
833.437	24601
833.576	24654
833.714	24719
833.852	24661
833.991	24551
834.129	24802
834.267	24604
834.406	24681
834.544	24639
834.682	24612
834.821	24532
834.959	24837
835.097	24612
835.235	24738
835.373	24673
835.511	24559
835.65	24376
835.788	24498
835.926	24330
836.064	24228
836.202	24330
836.34	24566
836.478	24376
836.615	24445
836.753	24342
836.891	24559
837.029	24513
837.167	24350
837.305	24369
837.443	24277
837.58	24258
837.718	24285
837.856	24365
837.993	24213
838.131	24232
838.269	24224
838.406	24201
838.544	24152
838.681	24049
838.819	23931
838.956	23707
839.094	23805
839.231	23847
839.369	23908
839.506	24102
839.643	23965
839.781	23840
839.918	23794
840.055	23756
840.193	23714
840.33	23680
840.467	23805
840.604	23783
840.742	23878
840.879	23604
841.016	23608
841.153	23543
841.29	23733
841.427	23699
841.564	23748
841.701	23718
841.838	23642
841.975	23516
842.112	23501
842.249	23608
842.385	23368
842.522	23505
842.659	23471
842.796	23299
842.933	23425
843.069	23315
843.206	23455
843.343	23524
843.479	23482
843.616	23436
843.752	23185
843.889	23288
844.025	23353
844.162	23197
844.298	23261
844.435	23280
844.571	23288
844.708	23269
844.844	23425
844.98	23242
845.117	23330
845.253	23143
845.389	23064
845.525	23052
845.661	23003
845.798	22885
845.934	22980
846.07	22987
846.206	23083
846.342	23121
846.478	22957
846.614	22767
846.75	22634
846.886	22698
847.022	22733
847.158	22721
847.294	22672
847.429	22675
847.565	22660
847.701	23075
847.837	22409
847.972	22371
848.108	22516
848.244	22523
848.379	22344
848.515	22265
848.65	22344
848.786	22196
848.921	22154
849.057	22303
849.192	22306
849.328	22337
849.463	22223
849.598	22238
849.734	22223
849.869	22063
850.004	22074
850.14	22143
850.275	22124
850.41	21960
850.545	21926
850.68	22055
850.815	22070
850.95	21998
851.085	22310
851.22	22158
851.355	21991
851.49	21953
851.625	22070
851.76	22006
851.895	22048
852.03	21941
852.165	21991
852.299	22101
852.434	22021
852.569	22090
852.703	22097
852.838	22124
852.973	22215
853.107	22162
853.242	22070
853.376	21892
853.511	21709
853.645	21892
853.78	21975
853.914	21880
854.048	21785
854.183	21781
854.317	21926
854.451	21975
854.585	21956
854.72	21922
854.854	21915
854.988	21846
855.122	21831
855.256	21766
855.39	21835
855.524	21937
855.658	21804
855.792	21869
855.926	21774
856.06	21918
856.194	21953
856.327	21838
856.461	21770
856.595	21918
856.729	21895
856.862	21937
856.996	21899
857.13	21857
857.263	21880
857.397	21987
857.53	21835
857.664	21972
857.797	21964
857.931	21915
858.064	21926
858.197	21983
858.331	21827
858.464	21770
858.597	21747
858.731	21778
858.864	21804
858.997	21857
859.13	21747
859.263	21778
859.396	21857
859.529	21827
859.662	21717
859.795	21850
859.928	21755
860.061	21934
860.194	22013
860.327	21937
860.46	21785
860.592	21930
860.725	22063
860.858	21960
860.99	21850
861.123	21732
861.256	21713
861.388	21842
861.521	22588
861.653	21720
861.786	21667
861.918	21686
862.05	21747
862.183	21679
862.315	21789
862.447	21865
862.58	21652
862.712	21606
862.844	21435
862.976	21679
863.108	21667
863.24	22093
863.372	21542
863.504	21504
863.636	21534
863.768	21587
863.9	21641
864.032	21504
864.164	21504
864.296	21671
864.428	21698
864.559	21610
864.691	21652
864.823	21660
864.954	21534
865.086	21530
865.217	21507
865.349	21401
865.48	21351
865.612	21481
865.743	21511
865.875	21367
866.006	21405
866.137	21325
866.269	21428
866.4	21431
866.531	21496
866.662	21199
866.793	21374
866.924	21412
867.055	21496
867.186	21405
867.317	21256
867.448	21237
867.579	21256
867.71	21279
867.841	21294
867.972	21363
868.103	21420
868.233	21469
868.364	21256
868.495	21420
868.625	21644
868.756	21713
868.886	21393
869.017	21705
869.147	21800
869.278	21774
869.408	21827
869.539	21568
869.669	21690
869.799	21591
869.929	21804
870.06	21724
870.19	21945
870.32	21892
870.45	22013
870.58	22017
870.71	22086
870.84	22109
870.97	21960
871.1	22040
871.23	22185
871.36	22226
871.489	22082
871.619	22238
871.749	22246
871.879	22280
872.008	22253
872.138	22166
872.267	22219
872.397	22036
872.526	22078
872.656	22044
872.785	22059
872.915	22280
873.044	22272
873.173	22147
873.303	22291
873.432	22261
873.561	22211
873.69	22196
873.819	22177
873.948	22188
874.077	22215
874.206	22257
874.335	22116
874.464	22265
874.593	22470
874.722	22382
874.851	22462
874.979	22417
875.108	22443
875.237	22325
875.365	22394
875.494	22413
875.623	22493
875.751	22500
875.88	22451
876.008	22557
876.136	22592
876.265	22923
876.393	23025
876.521	22828
876.65	22911
876.778	22797
876.906	22820
877.034	22706
877.162	22774
877.29	22744
877.418	22824
877.546	22744
877.674	22763
877.802	22801
877.93	22691
878.058	22748
878.185	22687
878.313	22771
878.441	22824
878.568	22691
878.696	22759
878.824	22866
878.951	22877
879.079	22930
879.206	23117
879.333	22927
879.461	22847
879.588	22892
879.715	22965
879.842	23098
879.97	22843
880.097	22531
880.224	22668
880.351	22630
880.478	22527
880.605	22565
880.732	22569
880.859	22805
880.986	22626
881.112	22577
881.239	22436
881.366	22310
881.493	22276
881.619	22177
881.746	22070
881.872	22181
881.999	22101
882.125	22078
882.252	22135
882.378	22162
882.505	22299
882.631	22002
882.757	21907
882.883	22013
883.01	21816
883.136	21838
883.262	21774
883.388	21724
883.514	21816
883.64	21808
883.766	21679
883.892	21690
884.018	21660
884.143	21827
884.269	21827
884.395	21557
884.52	21545
884.646	21401
884.772	21561
884.897	21435
885.023	21568
885.148	21557
885.274	21603
885.399	21629
885.524	21538
885.65	21511
885.775	21542
885.9	21458
886.025	21618
886.15	21625
886.275	21458
886.4	21439
886.525	21378
886.65	21351
886.775	21469
886.9	21641
887.025	21652
887.149	21485
887.274	21329
887.399	21321
887.523	21321
887.648	21218
887.773	21237
887.897	21226
888.021	21405
888.146	21275
888.27	21310
888.395	21218
888.519	21283
888.643	21325
888.767	21393
888.891	21119
889.015	21074
889.139	21081
889.263	21173
889.387	21157
889.511	21355
889.635	21233
889.759	21055
889.883	21093
890.006	21013
890.13	21138
890.254	21096
890.377	20982
890.501	20788
890.624	20826
890.748	20765
890.871	20602
890.995	20583
891.118	20514
891.241	20629
891.364	20621
891.488	20781
891.611	20594
891.734	20541
891.857	20636
891.98	20701
892.103	20697
892.226	20537
892.349	20617
892.471	20450
892.594	20503
892.717	20526
892.839	20492
892.962	20476
893.085	20530
893.207	20598
893.33	20484
893.452	20427
893.575	20560
893.697	20385
893.819	20705
893.941	20670
894.064	20636
894.186	20507
894.308	20393
894.43	20568
894.552	20549
894.674	20526
894.796	20427
894.918	20347
895.04	20404
895.161	20609
895.283	20533
895.405	20438
895.526	20522
895.648	20434
895.769	20507
895.891	20476
896.012	20568
896.134	20537
896.255	20480
896.376	20590
896.498	20469
896.619	20560
896.74	20495
896.861	20549
896.982	20899
897.103	20906
897.224	20769
897.345	20689
897.466	20678
897.587	20598
897.708	20796
897.828	20769
897.949	20644
898.07	20537
898.19	20632
898.311	20739
898.431	20575
898.552	20659
898.672	20693
898.792	20769
898.913	20629
899.033	20568
899.153	20461
899.273	20427
899.393	20408
899.513	20389
899.633	20454
899.753	20404
899.873	20434
899.993	20476
900.113	20290
900.232	20381
900.352	20263
900.472	20202
900.591	20202
900.711	20366
900.83	20172
900.95	20187
901.069	20290
901.189	20081
901.308	19864
901.427	19780
901.546	19761
901.665	19811
901.784	19811
901.904	19655
902.023	19601
902.141	19491
902.26	19396
902.379	19411
902.498	19419
902.617	19339
902.735	19354
902.854	19206
902.973	19247
903.091	18989
903.21	18981
903.328	19027
903.446	18913
903.565	18787
903.683	18772
903.801	18700
903.919	18753
904.038	18703
904.156	18521
904.274	18612
904.392	18460
904.51	18426
904.627	18399
904.745	18623
904.863	18582
904.981	18304
905.098	18232
905.216	18178
905.334	18277
905.451	18266
905.569	18159
905.686	18205
905.803	18144
905.921	18030
906.038	18148
906.155	18091
906.272	17965
906.389	17893
906.506	17707
906.623	17760
906.74	17687
906.857	17573
906.974	17680
907.091	17798
907.208	17946
907.324	17737
907.441	17562
907.557	17547
907.674	17429
907.79	17395
907.907	17391
908.023	17421
908.139	17459
908.256	17398
908.372	17379
908.488	17364
908.604	17147
908.72	17200
908.836	17208
908.952	17155
909.068	17048
909.184	17189
909.3	17250
909.415	17197
909.531	17181
909.647	16980
909.762	16858
909.878	16805
909.993	16843
910.108	16850
910.224	16801
910.339	16748
910.454	16694
910.57	16603
910.685	16599
910.8	16896
910.915	16786
911.03	16664
911.145	16637
911.259	16417
911.374	16459
911.489	16402
911.604	16348
911.718	16234
911.833	16200
911.947	16101
912.062	16013
912.176	16188
912.291	16200
912.405	16154
912.519	16379
912.633	16462
912.748	16154
912.862	16150
912.976	16082
913.09	15907
913.204	15994
913.318	16059
913.431	16067
913.545	16078
913.659	16234
913.772	15949
913.886	15903
914	15850
914.113	15922
914.226	15899
914.34	15842
914.453	15709
914.566	15816
914.68	15766
914.793	15652
914.906	15450
915.019	15477
915.132	15378
915.245	15370
915.358	15424
915.47	15370
915.583	15329
915.696	15397
915.809	15500
915.921	15519
916.034	15401
916.146	15302
916.259	15275
916.371	15329
916.483	15260
916.595	15264
916.708	15275
916.82	15161
916.932	15119
917.044	15279
917.156	15077
917.268	14963
917.38	15013
917.491	14960
917.603	15077
917.715	15131
917.826	15188
917.938	14956
918.049	14918
918.161	14914
918.272	15039
918.384	15112
918.495	14967
918.606	14845
918.717	14853
918.828	14834
918.939	14819
919.05	14765
919.161	14765
919.272	14598
919.383	14682
919.494	14887
919.604	14963
919.715	14682
919.826	14644
919.936	14765
920.047	14750
920.157	14777
920.267	14994
920.378	14788
920.488	14731
920.598	14941
920.708	15017
920.818	14857
920.928	14849
921.038	15001
921.148	15036
921.258	14655
921.368	14617
921.477	14537
921.587	14431
921.697	14362
921.806	14495
921.916	14313
922.025	14187
922.134	14130
922.244	14035
922.353	14084
922.462	14024
922.571	14031
922.68	13772
922.789	13750
922.898	13753
923.007	13693
923.116	13765
923.224	13795
923.333	13784
923.442	13597
923.55	13613
923.659	13590
923.767	13662
923.876	13552
923.984	13651
924.092	13468
924.201	13575
924.309	13495
924.417	13613
924.525	13495
924.633	13457
924.741	14396
924.849	13232
924.956	13373
925.064	13168
925.172	13133
925.279	13209
925.387	13114
925.494	13221
925.602	13274
925.709	13247
925.816	13046
925.924	13088
926.031	13160
926.138	13164
926.245	13244
926.352	13031
926.459	13236
926.566	13145
926.673	13076
926.779	12954
926.886	12905
926.993	12920
927.099	12806
927.206	12681
927.312	12669
927.419	12684
927.525	12681
927.631	12745
927.737	12570
927.843	12612
927.95	12532
928.056	12570
928.162	12521
928.267	12532
928.373	13171
928.479	12582
928.585	12346
928.69	12559
928.796	12528
928.901	12410
929.007	12239
929.112	12384
929.218	12407
929.323	12300
929.428	12213
929.533	12391
929.638	12167
929.743	12182
929.848	12296
929.953	12216
930.058	12144
930.163	11809
930.267	11988
930.372	12076
930.477	11958
930.581	12072
930.685	12011
930.79	11863
930.894	11901
930.998	11821
931.103	11923
931.207	11634
931.311	11493
931.415	11436
931.519	11178
931.623	11136
