Data from test_V78500241_715.txt Node
Date: Fri Mar 25 15:14:50 CST 2022
User: usil
Spectrometer: V785-0024
Trigger mode: 0
Integration Time (sec): 4.000000E-1
Scans to average: 1
Nonlinearity correction enabled: false
Boxcar width: 0
Storing dark spectrum: false
XAxis mode: Wavelengths
Number of Pixels in Spectrum: 1024
>>>>>Begin Spectral Data<<<<<
801.071	28006
801.214	28097
801.356	27694
801.499	27690
801.641	27610
801.783	27507
801.926	27355
802.068	27587
802.211	27458
802.353	27291
802.496	27199
802.638	27195
802.78	27096
802.923	27051
803.065	27176
803.208	27138
803.35	27199
803.492	27321
803.635	27245
803.777	27313
803.919	27241
804.061	27526
804.204	27302
804.346	27283
804.488	27256
804.63	27268
804.773	27245
804.915	27249
805.057	27477
805.199	27386
805.341	27389
805.483	27450
805.626	27439
805.768	27077
805.91	27435
806.052	27458
806.194	27439
806.336	27625
806.478	27469
806.62	27504
806.762	27644
806.904	27625
807.046	28124
807.188	27930
807.33	27861
807.472	28051
807.614	27819
807.756	27884
807.898	27739
808.04	27793
808.182	27747
808.324	27781
808.465	27747
808.607	27876
808.749	27968
808.891	28162
809.033	28169
809.174	28253
809.316	28238
809.458	28188
809.6	28173
809.741	28428
809.883	28318
810.025	28523
810.166	28413
810.308	28519
810.45	28310
810.591	28375
810.733	28097
810.875	28154
811.016	28101
811.158	27907
811.299	28253
811.441	28204
811.582	28246
811.724	28101
811.865	28128
812.007	28051
812.148	28109
812.29	28131
812.431	28386
812.573	28519
812.714	28485
812.855	28580
812.997	28778
813.138	28869
813.279	28675
813.421	28755
813.562	28710
813.703	28462
813.845	28272
813.986	28032
814.127	28017
814.268	27876
814.41	27808
814.551	27804
814.692	28002
814.833	27785
814.974	27850
815.115	27831
815.256	27831
815.397	27739
815.539	27793
815.68	27701
815.821	27629
815.962	27549
816.103	27591
816.244	27538
816.385	27526
816.526	27389
816.666	27237
816.807	27127
816.948	27218
817.089	27230
817.23	27389
817.371	27142
817.512	27157
817.653	27184
817.793	27066
817.934	27161
818.075	27169
818.216	27157
818.356	27119
818.497	27055
818.638	26804
818.778	26887
818.919	26940
819.06	26921
819.2	27051
819.341	27112
819.481	27138
819.622	27218
819.762	27557
819.903	27427
820.043	27306
820.184	27355
820.324	27173
820.465	27241
820.605	27256
820.746	27165
820.886	27138
821.026	27165
821.167	27222
821.307	27294
821.447	27131
821.588	26963
821.728	26956
821.868	26697
822.008	26659
822.149	26632
822.289	26724
822.429	26313
822.569	26309
822.709	26240
822.849	26157
822.99	26077
823.13	26130
823.27	26073
823.41	25856
823.55	25841
823.69	25940
823.83	25925
823.97	25742
824.11	25738
824.25	25666
824.389	25689
824.529	25883
824.669	25784
824.809	25906
824.949	25731
825.089	25909
825.228	25822
825.368	25460
825.508	25506
825.648	25620
825.787	25647
825.927	25772
826.067	25422
826.206	25559
826.346	25742
826.485	25613
826.625	25639
826.765	25830
826.904	25582
827.044	25472
827.183	25316
827.323	25301
827.462	25499
827.601	25476
827.741	25308
827.88	25434
828.02	25236
828.159	25316
828.298	25293
828.437	25441
828.577	25331
828.716	25346
828.855	25293
828.994	25145
829.134	25107
829.273	25164
829.412	24901
829.551	25050
829.69	24977
829.829	25103
829.968	25232
830.107	25084
830.246	25072
830.385	25031
830.524	25004
830.663	24916
830.802	24837
830.941	24696
831.08	24627
831.219	24730
831.357	24795
831.496	24817
831.635	24551
831.774	24582
831.913	24525
832.051	24525
832.19	24441
832.329	24456
832.467	24327
832.606	24304
832.744	24315
832.883	24247
833.022	24194
833.16	24350
833.299	24410
833.437	24376
833.576	24437
833.714	24589
833.852	24334
833.991	24574
834.129	24467
834.267	24346
834.406	24403
834.544	24517
834.682	24509
834.821	24296
834.959	24582
835.097	24467
835.235	24498
835.373	24372
835.511	24391
835.65	24296
835.788	24357
835.926	24171
836.064	24174
836.202	24079
836.34	24304
836.478	24277
836.615	24224
836.753	24186
836.891	24384
837.029	24281
837.167	24106
837.305	24239
837.443	24152
837.58	23969
837.718	24174
837.856	24155
837.993	24076
838.131	24068
838.269	23866
838.406	24064
838.544	23840
838.681	23718
838.819	23676
838.956	23573
839.094	23551
839.231	23604
839.369	23737
839.506	23946
839.643	23783
839.781	23562
839.918	23497
840.055	23562
840.193	23463
840.33	23455
840.467	23440
840.604	23478
840.742	23649
840.879	23318
841.016	23467
841.153	23197
841.29	23562
841.427	23398
841.564	23486
841.701	23356
841.838	23421
841.975	23356
842.112	23410
842.249	23356
842.385	23231
842.522	23467
842.659	23258
842.796	23181
842.933	23269
843.069	23151
843.206	23140
843.343	23185
843.479	23242
843.616	23170
843.752	22900
843.889	23060
844.025	23185
844.162	23060
844.298	23147
844.435	22976
844.571	23067
844.708	23048
844.844	23067
844.98	23090
845.117	23147
845.253	22984
845.389	22767
845.525	22892
845.661	22900
845.798	22733
845.934	22805
846.07	22691
846.206	22797
846.342	22774
846.478	22649
846.614	22523
846.75	22402
846.886	22363
847.022	22462
847.158	22352
847.294	22443
847.429	22386
847.565	22451
847.701	22584
847.837	22249
847.972	22249
848.108	22337
848.244	22280
848.379	22135
848.515	22032
848.65	22063
848.786	22090
848.921	22029
849.057	22120
849.192	22055
849.328	22074
849.463	22059
849.598	22006
849.734	21854
849.869	21816
850.004	21869
850.14	21751
850.275	21759
850.41	21724
850.545	21770
850.68	21766
850.815	21835
850.95	21728
851.085	21869
851.22	21869
851.355	21899
851.49	21865
851.625	21774
851.76	21800
851.895	21759
852.03	21648
852.165	21770
852.299	21804
852.434	21949
852.569	21797
852.703	21759
852.838	21922
852.973	21915
853.107	21991
853.242	21804
853.376	21724
853.511	21591
853.645	21622
853.78	21724
853.914	21618
854.048	21629
854.183	21538
854.317	21671
854.451	21648
854.585	21660
854.72	21603
854.854	21675
854.988	21599
855.122	21690
855.256	21496
855.39	21633
855.524	21709
855.658	21667
855.792	21572
855.926	21622
856.06	21667
856.194	21705
856.327	21660
856.461	21568
856.595	21618
856.729	21534
856.862	21793
856.996	21625
857.13	21785
857.263	21724
857.397	21595
857.53	21637
857.664	21614
857.797	21728
857.931	21728
858.064	21682
858.197	21724
858.331	21648
858.464	21637
858.597	21698
858.731	21549
858.864	21564
858.997	21625
859.13	21599
859.263	21644
859.396	21663
859.529	21595
859.662	21538
859.795	21667
859.928	21583
860.061	21618
860.194	21701
860.327	21690
860.46	21572
860.592	21747
860.725	21861
860.858	21774
860.99	21641
861.123	21618
861.256	21583
861.388	21641
861.521	22386
861.653	21545
861.786	21420
861.918	21424
862.05	21492
862.183	21568
862.315	21629
862.447	21561
862.58	21526
862.712	21416
862.844	21260
862.976	21416
863.108	21431
863.24	21736
863.372	21329
863.504	21321
863.636	21302
863.768	21386
863.9	21378
864.032	21226
864.164	21252
864.296	21344
864.428	21431
864.559	21367
864.691	21397
864.823	21279
864.954	21272
865.086	21348
865.217	21283
865.349	21230
865.48	21214
865.612	21203
865.743	21249
865.875	21351
866.006	21283
866.137	21237
866.269	21241
866.4	21207
866.531	21199
866.662	21013
866.793	21222
866.924	21119
867.055	21252
867.186	21127
867.317	21195
867.448	21058
867.579	20982
867.71	21237
867.841	21047
867.972	21135
868.103	21043
868.233	21070
868.364	21184
868.495	21184
868.625	21397
868.756	21458
868.886	21393
869.017	21435
869.147	21507
869.278	21572
869.408	21344
869.539	21386
869.669	21416
869.799	21420
869.929	21545
870.06	21530
870.19	21679
870.32	21633
870.45	21770
870.58	21865
870.71	21827
870.84	21903
870.97	21827
871.1	21766
871.23	21953
871.36	22017
871.489	21842
871.619	22029
871.749	21975
871.879	21956
872.008	22124
872.138	21918
872.267	21797
872.397	21816
872.526	21816
872.656	21892
872.785	21751
872.915	21873
873.044	22101
873.173	21899
873.303	22051
873.432	22086
873.561	22139
873.69	22036
873.819	22013
873.948	22131
874.077	22010
874.206	21888
874.335	21941
874.464	22131
874.593	22204
874.722	22128
874.851	22158
874.979	22150
875.108	22261
875.237	22291
875.365	22070
875.494	22158
875.623	22318
875.751	22074
875.88	22329
876.008	22314
876.136	22352
876.265	22626
876.393	22656
876.521	22725
876.65	22637
876.778	22691
876.906	22599
877.034	22481
877.162	22519
877.29	22360
877.418	22637
877.546	22626
877.674	22542
877.802	22611
877.93	22443
878.058	22546
878.185	22451
878.313	22417
878.441	22516
878.568	22268
878.696	22344
878.824	22550
878.951	22634
879.079	22744
879.206	22847
879.333	22755
879.461	22481
879.588	22691
879.715	22584
879.842	22778
879.97	22653
880.097	22478
880.224	22284
880.351	22280
880.478	22424
880.605	22287
880.732	22367
880.859	22577
880.986	22489
881.112	22333
881.239	22306
881.366	22055
881.493	22051
881.619	21854
881.746	21937
881.872	21884
881.999	21960
882.125	21869
882.252	21991
882.378	21854
882.505	22036
882.631	21911
882.757	21698
882.883	21701
883.01	21564
883.136	21538
883.262	21595
883.388	21511
883.514	21739
883.64	21561
883.766	21671
883.892	21302
884.018	21431
884.143	21587
884.269	21709
884.395	21348
884.52	21279
884.646	21226
884.772	21230
884.897	21275
885.023	21287
885.148	21237
885.274	21332
885.399	21424
885.524	21325
885.65	21405
885.775	21412
885.9	21275
886.025	21332
886.15	21424
886.275	21329
886.4	21222
886.525	21298
886.65	21275
886.775	21176
886.9	21252
887.025	21488
887.149	21272
887.274	21119
887.399	21108
887.523	21096
887.648	21001
887.773	21013
887.897	21123
888.021	21093
888.146	21108
888.27	21032
888.395	21142
888.519	21055
888.643	21020
888.767	21104
888.891	20902
889.015	20842
889.139	20967
889.263	20876
889.387	20952
889.511	21131
889.635	20853
889.759	20758
889.883	20807
890.006	20933
890.13	20956
890.254	20724
890.377	20716
890.501	20556
890.624	20545
890.748	20636
890.871	20450
890.995	20328
891.118	20358
891.241	20423
891.364	20469
891.488	20533
891.611	20317
891.734	20434
891.857	20442
891.98	20396
892.103	20377
892.226	20396
892.349	20396
892.471	20187
892.594	20275
892.717	20256
892.839	20408
892.962	20362
893.085	20446
893.207	20278
893.33	20199
893.452	20210
893.575	20446
893.697	20381
893.819	20488
893.941	20511
894.064	20366
894.186	20244
894.308	20149
894.43	20324
894.552	20442
894.674	20473
894.796	20290
894.918	20278
895.04	20218
895.161	20278
895.283	20400
895.405	20282
895.526	20374
895.648	20206
895.769	20233
895.891	20374
896.012	20412
896.134	20393
896.255	20362
896.376	20244
896.498	20305
896.619	20317
896.74	20206
896.861	20290
896.982	20609
897.103	20769
897.224	20655
897.345	20583
897.466	20370
897.587	20419
897.708	20667
897.828	20598
897.949	20412
898.07	20362
898.19	20583
898.311	20651
898.431	20530
898.552	20450
898.672	20663
898.792	20541
898.913	20476
899.033	20286
899.153	20389
899.273	20271
899.393	20244
899.513	20206
899.633	20206
899.753	20317
899.873	20298
899.993	20202
900.113	20206
900.232	20271
900.352	20103
900.472	20122
900.591	20195
900.711	19982
900.83	19928
900.95	20111
901.069	20065
901.189	19944
901.308	19696
901.427	19632
901.546	19582
901.665	19613
901.784	19628
901.904	19483
902.023	19453
902.141	19126
902.26	19171
902.379	19221
902.498	19080
902.617	19107
902.735	19065
902.854	19061
902.973	19126
903.091	18875
903.21	18825
903.328	18726
903.446	18791
903.565	18631
903.683	18536
903.801	18502
903.919	18570
904.038	18593
904.156	18414
904.274	18433
904.392	18422
904.51	18475
904.627	18369
904.745	18391
904.863	18426
904.981	18235
905.098	18026
905.216	18121
905.334	18087
905.451	18030
905.569	18102
905.686	17988
905.803	18155
905.921	17874
906.038	17954
906.155	17878
906.272	17802
906.389	17741
906.506	17520
906.623	17634
906.74	17592
906.857	17455
906.974	17356
907.091	17589
907.208	17615
907.324	17532
907.441	17467
907.557	17299
907.674	17345
907.79	17296
907.907	17322
908.023	17250
908.139	17254
908.256	17223
908.372	17136
908.488	17204
908.604	17102
908.72	16968
908.836	16999
908.952	17090
909.068	17037
909.184	17045
909.3	16911
909.415	17006
909.531	16961
909.647	16752
909.762	16645
909.878	16615
909.993	16740
910.108	16721
910.224	16645
910.339	16706
910.454	16577
910.57	16542
910.685	16466
910.8	16675
910.915	16675
911.03	16584
911.145	16371
911.259	16200
911.374	16249
911.489	16242
911.604	16242
911.718	16036
911.833	16044
911.947	16036
912.062	15903
912.176	15979
912.291	16010
912.405	16021
912.519	16204
912.633	16128
912.748	16006
912.862	16010
912.976	15823
913.09	15823
913.204	15747
913.318	15941
913.431	15949
913.545	15930
913.659	15941
913.772	15755
913.886	15774
914	15656
914.113	15812
914.226	15850
914.34	15652
914.453	15553
914.566	15759
914.68	15701
914.793	15530
914.906	15367
915.019	15272
915.132	15207
915.245	15207
915.358	15370
915.47	15260
915.583	15226
915.696	15252
915.809	15332
915.921	15408
916.034	15169
916.146	15127
916.259	15058
916.371	15214
916.483	15123
916.595	15074
916.708	15150
916.82	15089
916.932	15077
917.044	15066
917.156	15020
917.268	14864
917.38	14864
917.491	14868
917.603	14925
917.715	14921
917.826	14967
917.938	14823
918.049	14716
918.161	14880
918.272	14998
918.384	14979
918.495	14876
918.606	14705
918.717	14556
918.828	14746
918.939	14800
919.05	14575
919.161	14743
919.272	14480
919.383	14533
919.494	14648
919.604	14826
919.715	14632
919.826	14579
919.936	14678
920.047	14682
920.157	14708
920.267	14708
920.378	14594
920.488	14590
920.598	14838
920.708	14906
920.818	14731
920.928	14765
921.038	14937
921.148	14796
921.258	14602
921.368	14415
921.477	14282
921.587	14358
921.697	14206
921.806	14362
921.916	14221
922.025	14073
922.134	13970
922.244	13959
922.353	13925
922.462	13811
922.571	13712
922.68	13620
922.789	13578
922.898	13632
923.007	13556
923.116	13624
923.224	13666
923.333	13514
923.442	13419
923.55	13422
923.659	13419
923.767	13514
923.876	13422
923.984	13434
924.092	13297
924.201	13354
924.309	13327
924.417	13430
924.525	13358
924.633	13236
924.741	14130
924.849	13072
924.956	13259
925.064	13107
925.172	13046
925.279	13034
925.387	13069
925.494	12966
925.602	13145
925.709	13129
925.816	13008
925.924	12977
926.031	13053
926.138	12970
926.245	12970
926.352	12905
926.459	12977
926.566	13065
926.673	12916
926.779	12798
926.886	12810
926.993	12627
927.099	12700
927.206	12589
927.312	12525
927.419	12658
927.525	12532
927.631	12566
927.737	12585
927.843	12536
927.95	12452
928.056	12388
928.162	12437
928.267	12475
928.373	13118
928.479	12551
928.585	12330
928.69	12479
928.796	12475
928.901	12239
929.007	12186
929.112	12232
929.218	12152
929.323	12266
929.428	12167
929.533	12292
929.638	12019
929.743	12106
929.848	12148
929.953	12148
930.058	12030
930.163	11809
930.267	11855
930.372	12026
930.477	11707
930.581	11992
930.685	11904
930.79	11718
930.894	11699
930.998	11611
931.103	11889
931.207	11512
931.311	11402
931.415	11326
931.519	11113
931.623	11086
