Data from test_V78500241_3555.txt Node
Date: Fri Mar 25 15:34:36 CST 2022
User: usil
Spectrometer: V785-0024
Trigger mode: 0
Integration Time (sec): 4.000000E-1
Scans to average: 1
Nonlinearity correction enabled: false
Boxcar width: 0
Storing dark spectrum: false
XAxis mode: Wavelengths
Number of Pixels in Spectrum: 1024
>>>>>Begin Spectral Data<<<<<
801.071	27370
801.214	27405
801.356	26914
801.499	26823
801.641	26811
801.783	26800
801.926	26857
802.068	26724
802.211	26682
802.353	26602
802.496	26739
802.638	26518
802.78	26568
802.923	26396
803.065	26446
803.208	26412
803.35	26461
803.492	26594
803.635	26617
803.777	26457
803.919	26507
804.061	26796
804.204	26750
804.346	26526
804.488	26632
804.63	26613
804.773	26442
804.915	26568
805.057	26777
805.199	26568
805.341	26659
805.483	26804
805.626	26785
805.768	26613
805.91	26648
806.052	26648
806.194	26594
806.336	26845
806.478	26754
806.62	26739
806.762	26853
806.904	26868
807.046	27176
807.188	27074
807.33	27165
807.472	27112
807.614	27028
807.756	27093
807.898	27058
808.04	26937
808.182	26849
808.324	27096
808.465	27017
808.607	27119
808.749	27408
808.891	27466
809.033	27408
809.174	27454
809.316	27230
809.458	27275
809.6	27230
809.741	27382
809.883	27431
810.025	27561
810.166	27595
810.308	27557
810.45	27603
810.591	27443
810.733	27260
810.875	27370
811.016	27214
811.158	27291
811.299	27313
811.441	27564
811.582	27462
811.724	27256
811.865	27241
812.007	27268
812.148	27302
812.29	27397
812.431	27351
812.573	27629
812.714	27675
812.855	27778
812.997	27918
813.138	28074
813.279	27945
813.421	27861
813.562	27728
813.703	27587
813.845	27374
813.986	27226
814.127	27039
814.268	27001
814.41	27017
814.551	26963
814.692	27119
814.833	26948
814.974	26929
815.115	26921
815.256	26902
815.397	26853
815.539	26758
815.68	26674
815.821	26693
815.962	26823
816.103	26686
816.244	26552
816.385	26724
816.526	26453
816.666	26267
816.807	26172
816.948	26298
817.089	26206
817.23	26195
817.371	26164
817.512	26336
817.653	26161
817.793	26145
817.934	26096
818.075	26294
818.216	26298
818.356	26275
818.497	26187
818.638	26016
818.778	26119
818.919	25978
819.06	26046
819.2	26103
819.341	26164
819.481	26309
819.622	26320
819.762	26488
819.903	26640
820.043	26400
820.184	26400
820.324	26339
820.465	26488
820.605	26355
820.746	26225
820.886	26145
821.026	26275
821.167	26278
821.307	26286
821.447	26195
821.588	26237
821.728	26077
821.868	25833
822.008	25613
822.149	25635
822.289	25693
822.429	25499
822.569	25301
822.709	25327
822.849	25293
822.99	25320
823.13	25114
823.27	25042
823.41	25050
823.55	25000
823.69	25061
823.83	25145
823.97	25057
824.11	24783
824.25	24741
824.389	24863
824.529	24871
824.669	24791
824.809	24882
824.949	24951
825.089	24943
825.228	24935
825.368	24703
825.508	24654
825.648	24734
825.787	24654
825.927	24722
826.067	24726
826.206	24654
826.346	24741
826.485	24722
826.625	24745
826.765	24825
826.904	24703
827.044	24494
827.183	24536
827.323	24327
827.462	24471
827.601	24486
827.741	24296
827.88	24494
828.02	24342
828.159	24483
828.298	24426
828.437	24486
828.577	24296
828.716	24597
828.855	24323
828.994	24174
829.134	24091
829.273	24102
829.412	24121
829.551	24159
829.69	24015
829.829	24079
829.968	24281
830.107	24186
830.246	24155
830.385	24003
830.524	24038
830.663	23939
830.802	23874
830.941	23748
831.08	23653
831.219	23767
831.357	23809
831.496	23999
831.635	23592
831.774	23615
831.913	23676
832.051	23630
832.19	23573
832.329	23630
832.467	23471
832.606	23436
832.744	23402
832.883	23356
833.022	23356
833.16	23444
833.299	23452
833.437	23535
833.576	23448
833.714	23630
833.852	23646
833.991	23638
834.129	23566
834.267	23528
834.406	23516
834.544	23554
834.682	23547
834.821	23524
834.959	23531
835.097	23448
835.235	23551
835.373	23524
835.511	23528
835.65	23440
835.788	23398
835.926	23136
836.064	23140
836.202	23117
836.34	23330
836.478	23444
836.615	23463
836.753	23478
836.891	23395
837.029	23356
837.167	23356
837.305	23216
837.443	23231
837.58	23216
837.718	23364
837.856	23162
837.993	23022
838.131	23174
838.269	23143
838.406	23231
838.544	23086
838.681	22991
838.819	22774
838.956	22664
839.094	22653
839.231	22736
839.369	22763
839.506	23014
839.643	22885
839.781	22763
839.918	22656
840.055	22653
840.193	22622
840.33	22611
840.467	22656
840.604	22596
840.742	22725
840.879	22527
841.016	22504
841.153	22516
841.29	22675
841.427	22603
841.564	22698
841.701	22523
841.838	22656
841.975	22500
842.112	22523
842.249	22459
842.385	22390
842.522	22596
842.659	22398
842.796	22424
842.933	22287
843.069	22303
843.206	22322
843.343	22451
843.479	22382
843.616	22223
843.752	22223
843.889	22207
844.025	22341
844.162	22006
844.298	22219
844.435	22154
844.571	22025
844.708	22204
844.844	22348
844.98	22314
845.117	22223
845.253	21968
845.389	22055
845.525	21972
845.661	22078
845.798	21812
845.934	21979
846.07	21861
846.206	21857
846.342	21998
846.478	21850
846.614	21755
846.75	21576
846.886	21694
847.022	21629
847.158	21542
847.294	21625
847.429	21675
847.565	21660
847.701	21838
847.837	21336
847.972	21408
848.108	21435
848.244	21302
848.379	21245
848.515	21207
848.65	21214
848.786	21218
848.921	21176
849.057	21291
849.192	21275
849.328	21222
849.463	21184
849.598	21176
849.734	21116
849.869	21066
850.004	20891
850.14	20948
850.275	20994
850.41	20788
850.545	20861
850.68	20868
850.815	20948
850.95	20948
851.085	21176
851.22	21142
851.355	20994
851.49	20880
851.625	20925
851.76	20963
851.895	20963
852.03	20891
852.165	20963
852.299	20994
852.434	21112
852.569	21077
852.703	20887
852.838	20994
852.973	21108
853.107	21119
853.242	20902
853.376	20868
853.511	20781
853.645	20769
853.78	20857
853.914	20796
854.048	20792
854.183	20811
854.317	20826
854.451	20956
854.585	20769
854.72	20971
854.854	20994
854.988	20845
855.122	20739
855.256	20727
855.39	20811
855.524	20933
855.658	20872
855.792	20929
855.926	20792
856.06	20864
856.194	20880
856.327	20716
856.461	20750
856.595	20720
856.729	20762
856.862	20864
856.996	20861
857.13	20986
857.263	20914
857.397	20872
857.53	20804
857.664	20800
857.797	20918
857.931	20853
858.064	20960
858.197	20861
858.331	20762
858.464	20727
858.597	20735
858.731	20720
858.864	20724
858.997	20826
859.13	20834
859.263	20830
859.396	20887
859.529	20842
859.662	20830
859.795	20739
859.928	20826
860.061	20941
860.194	20952
860.327	20872
860.46	20796
860.592	20948
860.725	21089
860.858	20929
860.99	20861
861.123	20678
861.256	20792
861.388	20807
861.521	21545
861.653	20686
861.786	20598
861.918	20598
862.05	20773
862.183	20670
862.315	20765
862.447	20804
862.58	20705
862.712	20621
862.844	20503
862.976	20651
863.108	20659
863.24	20876
863.372	20438
863.504	20590
863.636	20522
863.768	20629
863.9	20640
864.032	20366
864.164	20488
864.296	20682
864.428	20720
864.559	20629
864.691	20590
864.823	20533
864.954	20537
865.086	20457
865.217	20446
865.349	20339
865.48	20370
865.612	20362
865.743	20541
865.875	20434
866.006	20374
866.137	20374
866.269	20404
866.4	20590
866.531	20465
866.662	20385
866.793	20446
866.924	20343
867.055	20434
867.186	20473
867.317	20244
867.448	20244
867.579	20324
867.71	20237
867.841	20229
867.972	20298
868.103	20358
868.233	20336
868.364	20324
868.495	20484
868.625	20598
868.756	20674
868.886	20461
869.017	20499
869.147	20560
869.278	20777
869.408	20571
869.539	20606
869.669	20720
869.799	20651
869.929	20598
870.06	20663
870.19	20963
870.32	20914
870.45	20948
870.58	20872
870.71	21051
870.84	21195
870.97	20971
871.1	20956
871.23	21096
871.36	21119
871.489	21112
871.619	21146
871.749	21169
871.879	21176
872.008	21378
872.138	21180
872.267	21173
872.397	21138
872.526	21009
872.656	21028
872.785	21077
872.915	21161
873.044	21184
873.173	21241
873.303	21317
873.432	21260
873.561	21386
873.69	21351
873.819	21287
873.948	21389
874.077	21142
874.206	21287
874.335	21252
874.464	21367
874.593	21511
874.722	21431
874.851	21469
874.979	21542
875.108	21523
875.237	21431
875.365	21435
875.494	21462
875.623	21568
875.751	21466
875.88	21492
876.008	21576
876.136	21648
876.265	21888
876.393	21972
876.521	22025
876.65	21953
876.778	21816
876.906	21728
877.034	21785
877.162	21808
877.29	21663
877.418	21884
877.546	21800
877.674	21793
877.802	21781
877.93	21709
878.058	21743
878.185	21743
878.313	21682
878.441	21850
878.568	21618
878.696	21838
878.824	21956
878.951	21892
879.079	22013
879.206	22124
879.333	22006
879.461	21831
879.588	21835
879.715	21903
879.842	22120
879.97	21903
880.097	21568
880.224	21709
880.351	21736
880.478	21846
880.605	21694
880.732	21663
880.859	21831
880.986	21644
881.112	21747
881.239	21542
881.366	21340
881.493	21325
881.619	21336
881.746	21287
881.872	21291
881.999	21184
882.125	21211
882.252	21252
882.378	21279
882.505	21374
882.631	21203
882.757	20960
882.883	21017
883.01	20952
883.136	20815
883.262	20887
883.388	20746
883.514	20872
883.64	20887
883.766	20880
883.892	20792
884.018	20815
884.143	21001
884.269	20849
884.395	20746
884.52	20583
884.646	20659
884.772	20507
884.897	20575
885.023	20636
885.148	20724
885.274	20712
885.399	20670
885.524	20583
885.65	20545
885.775	20530
885.9	20583
886.025	20750
886.15	20617
886.275	20530
886.4	20541
886.525	20556
886.65	20469
886.775	20434
886.9	20693
887.025	20857
887.149	20689
887.274	20396
887.399	20396
887.523	20278
887.648	20294
887.773	20248
887.897	20412
888.021	20362
888.146	20294
888.27	20457
888.395	20461
888.519	20385
888.643	20396
888.767	20465
888.891	20324
889.015	20172
889.139	20225
889.263	20111
889.387	20358
889.511	20336
889.635	20275
889.759	20157
889.883	20088
890.006	20073
890.13	20362
890.254	20092
890.377	20092
890.501	19822
890.624	19921
890.748	20062
890.871	19871
890.995	19696
891.118	19632
891.241	19750
891.364	19769
891.488	19864
891.611	19704
891.734	19677
891.857	19696
891.98	19769
892.103	19742
892.226	19909
892.349	19632
892.471	19487
892.594	19795
892.717	19750
892.839	19609
892.962	19837
893.085	19727
893.207	19586
893.33	19476
893.452	19647
893.575	19689
893.697	19632
893.819	19841
893.941	19791
894.064	19723
894.186	19529
894.308	19605
894.43	19772
894.552	19849
894.674	19620
894.796	19567
894.918	19670
895.04	19563
895.161	19795
895.283	19628
895.405	19514
895.526	19700
895.648	19681
895.769	19628
895.891	19624
896.012	19700
896.134	19510
896.255	19674
896.376	19586
896.498	19765
896.619	19616
896.74	19632
896.861	19685
896.982	20035
897.103	19989
897.224	19993
897.345	19921
897.466	19928
897.587	19883
897.708	20081
897.828	19986
897.949	19932
898.07	19655
898.19	19757
898.311	20035
898.431	19849
898.552	19837
898.672	19959
898.792	19955
898.913	19925
899.033	19742
899.153	19772
899.273	19696
899.393	19609
899.513	19647
899.633	19746
899.753	19761
899.873	19624
899.993	19632
900.113	19567
900.232	19559
900.352	19552
900.472	19544
900.591	19377
900.711	19514
900.83	19441
900.95	19445
901.069	19438
901.189	19434
901.308	19046
901.427	19015
901.546	18985
901.665	18977
901.784	18905
901.904	18886
902.023	18795
902.141	18654
902.26	18665
902.379	18616
902.498	18483
902.617	18384
902.735	18608
902.854	18555
902.973	18391
903.091	18228
903.21	18186
903.328	18213
903.446	18121
903.565	17988
903.683	18045
903.801	17882
903.919	17996
904.038	17939
904.156	17794
904.274	17878
904.392	17821
904.51	17889
904.627	17722
904.745	17863
904.863	17821
904.981	17661
905.098	17486
905.216	17429
905.334	17486
905.451	17493
905.569	17444
905.686	17436
905.803	17501
905.921	17318
906.038	17341
906.155	17208
906.272	17105
906.389	17159
906.506	17025
906.623	17006
906.74	17071
906.857	16915
906.974	16919
907.091	17181
907.208	17140
907.324	17041
907.441	16854
907.557	16778
907.674	16675
907.79	16641
907.907	16687
908.023	16809
908.139	16759
908.256	16710
908.372	16653
908.488	16489
908.604	16489
908.72	16360
908.836	16512
908.952	16402
909.068	16577
909.184	16554
909.3	16360
909.415	16455
909.531	16424
909.647	16234
909.762	16086
909.878	16032
909.993	16143
910.108	16116
910.224	16067
910.339	16032
910.454	15987
910.57	15945
910.685	15819
910.8	16150
910.915	16173
911.03	15983
911.145	15804
911.259	15800
911.374	15816
911.489	15705
911.604	15705
911.718	15454
911.833	15526
911.947	15405
912.062	15272
912.176	15473
912.291	15492
912.405	15504
912.519	15599
912.633	15694
912.748	15504
912.862	15435
912.976	15359
913.09	15241
913.204	15241
913.318	15344
913.431	15469
913.545	15351
913.659	15412
913.772	15249
913.886	15249
914	15097
914.113	15268
914.226	15150
914.34	15176
914.453	14998
914.566	15112
914.68	15020
914.793	14956
914.906	14781
915.019	14853
915.132	14667
915.245	14731
915.358	14731
915.47	14746
915.583	14823
915.696	14739
915.809	14834
915.921	14815
916.034	14682
916.146	14602
916.259	14625
916.371	14769
916.483	14670
916.595	14602
916.708	14560
916.82	14594
916.932	14545
917.044	14514
917.156	14503
917.268	14412
917.38	14454
917.491	14450
917.603	14423
917.715	14499
917.826	14495
917.938	14450
918.049	14320
918.161	14408
918.272	14423
918.384	14499
918.495	14362
918.606	14286
918.717	14237
918.828	14138
918.939	14172
919.05	14020
919.161	14202
919.272	14035
919.383	14145
919.494	14161
919.604	14423
919.715	14210
919.826	14050
919.936	14111
920.047	14248
920.157	14168
920.267	14400
920.378	14206
920.488	14218
920.598	14305
920.708	14404
920.818	14347
920.928	14229
921.038	14461
921.148	14434
921.258	14153
921.368	14088
921.477	13913
921.587	14020
921.697	13784
921.806	14005
921.916	13871
922.025	13647
922.134	13597
922.244	13518
922.353	13582
922.462	13438
922.571	13453
922.68	13335
922.789	13289
922.898	13289
923.007	13225
923.116	13209
923.224	13282
923.333	13206
923.442	13198
923.55	13019
923.659	13152
923.767	13149
923.876	13019
923.984	13076
924.092	12897
924.201	13053
924.309	12996
924.417	13042
924.525	12901
924.633	12943
924.741	13742
924.849	12741
924.956	12859
925.064	12722
925.172	12635
925.279	12646
925.387	12722
925.494	12703
925.602	12722
925.709	12768
925.816	12623
925.924	12623
926.031	12711
926.138	12582
926.245	12616
926.352	12551
926.459	12627
926.566	12772
926.673	12597
926.779	12376
926.886	12414
926.993	12289
927.099	12262
927.206	12254
927.312	12060
927.419	12315
927.525	12277
927.631	12369
927.737	12114
927.843	12129
927.95	11961
928.056	12041
928.162	12125
928.267	12030
928.373	12703
928.479	12216
928.585	11874
928.69	12087
928.796	12060
928.901	11847
929.007	11840
929.112	11878
929.218	11935
929.323	11798
929.428	11798
929.533	11885
929.638	11703
929.743	11714
929.848	11878
929.953	11767
930.058	11661
930.163	11547
930.267	11547
930.372	11604
930.477	11433
930.581	11752
930.685	11551
930.79	11429
930.894	11326
930.998	11410
931.103	11539
931.207	11166
931.311	11060
931.415	10991
931.519	10824
931.623	10828
