Data from test_V78500241_2037.txt Node
Date: Fri Mar 25 15:24:02 CST 2022
User: usil
Spectrometer: V785-0024
Trigger mode: 0
Integration Time (sec): 4.000000E-1
Scans to average: 1
Nonlinearity correction enabled: false
Boxcar width: 0
Storing dark spectrum: false
XAxis mode: Wavelengths
Number of Pixels in Spectrum: 1024
>>>>>Begin Spectral Data<<<<<
801.071	27762
801.214	27728
801.356	27530
801.499	27424
801.641	27370
801.783	27439
801.926	27435
802.068	27317
802.211	27344
802.353	27214
802.496	27051
802.638	27039
802.78	26883
802.923	26914
803.065	26872
803.208	26842
803.35	27070
803.492	27096
803.635	27161
803.777	27138
803.919	27233
804.061	27564
804.204	27176
804.346	27089
804.488	27032
804.63	27195
804.773	27203
804.915	27176
805.057	27226
805.199	27188
805.341	27374
805.483	27367
805.626	27401
805.768	27184
805.91	27298
806.052	27348
806.194	27298
806.336	27367
806.478	27443
806.62	27382
806.762	27519
806.904	27660
807.046	27884
807.188	27732
807.33	27720
807.472	27667
807.614	27545
807.756	27762
807.898	27625
808.04	27591
808.182	27321
808.324	27542
808.465	27724
808.607	27854
808.749	27960
808.891	28143
809.033	27907
809.174	28013
809.316	27899
809.458	27804
809.6	27934
809.741	28093
809.883	28131
810.025	28257
810.166	28177
810.308	28265
810.45	28070
810.591	28192
810.733	27975
810.875	27934
811.016	27819
811.158	27816
811.299	27865
811.441	27975
811.582	28051
811.724	27907
811.865	27812
812.007	27991
812.148	27983
812.29	27991
812.431	28257
812.573	28196
812.714	28223
812.855	28413
812.997	28459
813.138	28694
813.279	28538
813.421	28440
813.562	28462
813.703	28268
813.845	28181
813.986	27850
814.127	27804
814.268	27656
814.41	27572
814.551	27519
814.692	27679
814.833	27553
814.974	27553
815.115	27618
815.256	27500
815.397	27485
815.539	27477
815.68	27279
815.821	27374
815.962	27382
816.103	27363
816.244	27245
816.385	27077
816.526	27123
816.666	27062
816.807	26838
816.948	26849
817.089	26998
817.23	26952
817.371	26781
817.512	26956
817.653	26792
817.793	26823
817.934	26720
818.075	26705
818.216	26940
818.356	26910
818.497	26830
818.638	26537
818.778	26629
818.919	26571
819.06	26705
819.2	26781
819.341	26899
819.481	26887
819.622	27127
819.762	27135
819.903	27173
820.043	27005
820.184	26971
820.324	26990
820.465	27169
820.605	27135
820.746	26918
820.886	26781
821.026	26914
821.167	26910
821.307	27017
821.447	26899
821.588	26883
821.728	26632
821.868	26537
822.008	26473
822.149	26412
822.289	26385
822.429	26130
822.569	26062
822.709	26020
822.849	25898
822.99	25997
823.13	25833
823.27	25746
823.41	25750
823.55	25609
823.69	25639
823.83	25746
823.97	25575
824.11	25537
824.25	25403
824.389	25582
824.529	25597
824.669	25586
824.809	25674
824.949	25620
825.089	25582
825.228	25609
825.368	25365
825.508	25415
825.648	25422
825.787	25407
825.927	25540
826.067	25308
826.206	25343
826.346	25415
826.485	25388
826.625	25362
826.765	25483
826.904	25479
827.044	25194
827.183	25168
827.323	25137
827.462	25072
827.601	25187
827.741	25129
827.88	25050
828.02	24935
828.159	25004
828.298	24966
828.437	25114
828.577	25015
828.716	25190
828.855	24920
828.994	24810
829.134	24806
829.273	24894
829.412	24726
829.551	24757
829.69	24821
829.829	24909
829.968	24890
830.107	24814
830.246	24932
830.385	24642
830.524	24753
830.663	24677
830.802	24483
830.941	24350
831.08	24365
831.219	24593
831.357	24532
831.496	24661
831.635	24350
831.774	24464
831.913	24327
832.051	24232
832.19	24213
832.329	24194
832.467	24243
832.606	24045
832.744	23939
832.883	24030
833.022	23942
833.16	24095
833.299	24045
833.437	24072
833.576	24148
833.714	24136
833.852	24091
833.991	24174
834.129	24228
834.267	24201
834.406	24159
834.544	24186
834.682	24174
834.821	24087
834.959	24289
835.097	23965
835.235	24159
835.373	24022
835.511	24319
835.65	23992
835.788	24011
835.926	23931
836.064	23821
836.202	23741
836.34	23927
836.478	24060
836.615	23999
836.753	24015
836.891	24049
837.029	23847
837.167	23969
837.305	23920
837.443	23912
837.58	23733
837.718	23920
837.856	23866
837.993	23752
838.131	23798
838.269	23581
838.406	23733
838.544	23672
838.681	23509
838.819	23539
838.956	23391
839.094	23292
839.231	23277
839.369	23589
839.506	23623
839.643	23596
839.781	23330
839.918	23185
840.055	23292
840.193	23364
840.33	23128
840.467	23151
840.604	23109
840.742	23493
840.879	22968
841.016	23124
841.153	23128
841.29	23261
841.427	23204
841.564	23242
841.701	23223
841.838	23136
841.975	23018
842.112	23102
842.249	23052
842.385	22923
842.522	23185
842.659	23010
842.796	22908
842.933	22938
843.069	22869
843.206	22949
843.343	23018
843.479	22984
843.616	22843
843.752	22721
843.889	22691
844.025	22961
844.162	22778
844.298	22797
844.435	22820
844.571	22641
844.708	22702
844.844	22828
844.98	22938
845.117	22816
845.253	22721
845.389	22554
845.525	22611
845.661	22489
845.798	22497
845.934	22531
846.07	22375
846.206	22462
846.342	22462
846.478	22390
846.614	22329
846.75	22219
846.886	22116
847.022	22390
847.158	22272
847.294	22154
847.429	22246
847.565	22280
847.701	22447
847.837	21998
847.972	21823
848.108	21987
848.244	22059
848.379	21812
848.515	21911
848.65	21865
848.786	21888
848.921	21861
849.057	22044
849.192	21903
849.328	21850
849.463	21808
849.598	21736
849.734	21686
849.869	21660
850.004	21622
850.14	21667
850.275	21488
850.41	21511
850.545	21542
850.68	21507
850.815	21587
850.95	21416
851.085	21747
851.22	21656
851.355	21572
851.49	21614
851.625	21652
851.76	21431
851.895	21618
852.03	21538
852.165	21477
852.299	21477
852.434	21709
852.569	21568
852.703	21534
852.838	21622
852.973	21587
853.107	21663
853.242	21523
853.376	21348
853.511	21241
853.645	21435
853.78	21568
853.914	21241
854.048	21389
854.183	21317
854.317	21412
854.451	21568
854.585	21397
854.72	21382
854.854	21450
854.988	21329
855.122	21412
855.256	21199
855.39	21374
855.524	21568
855.658	21374
855.792	21439
855.926	21401
856.06	21428
856.194	21523
856.327	21370
856.461	21393
856.595	21420
856.729	21386
856.862	21462
856.996	21447
857.13	21572
857.263	21485
857.397	21530
857.53	21382
857.664	21553
857.797	21378
857.931	21466
858.064	21424
858.197	21458
858.331	21310
858.464	21348
858.597	21287
858.731	21310
858.864	21287
858.997	21275
859.13	21279
859.263	21435
859.396	21378
859.529	21447
859.662	21264
859.795	21283
859.928	21416
860.061	21561
860.194	21641
860.327	21431
860.46	21393
860.592	21519
860.725	21595
860.858	21450
860.99	21405
861.123	21306
861.256	21408
861.388	21397
861.521	22097
861.653	21249
861.786	21146
861.918	21302
862.05	21294
862.183	21393
862.315	21367
862.447	21408
862.58	21351
862.712	21077
862.844	21165
862.976	21188
863.108	21157
863.24	21420
863.372	21146
863.504	21085
863.636	20944
863.768	21104
863.9	21062
864.032	20979
864.164	20918
864.296	21222
864.428	21272
864.559	21135
864.691	21074
864.823	21028
864.954	21112
865.086	20971
865.217	21013
865.349	20864
865.48	20990
865.612	20994
865.743	21161
865.875	20921
866.006	20887
866.137	21020
866.269	21100
866.4	20971
866.531	20807
866.662	20769
866.793	20880
866.924	20883
867.055	20963
867.186	21009
867.317	20941
867.448	20944
867.579	20872
867.71	20773
867.841	20807
867.972	20834
868.103	20849
868.233	20921
868.364	20941
868.495	21047
868.625	21169
868.756	21180
868.886	21066
869.017	21237
869.147	21321
869.278	21344
869.408	21161
869.539	21127
869.669	21249
869.799	21188
869.929	21321
870.06	21291
870.19	21515
870.32	21386
870.45	21378
870.58	21606
870.71	21622
870.84	21515
870.97	21538
871.1	21469
871.23	21759
871.36	21732
871.489	21747
871.619	21671
871.749	21793
871.879	21857
872.008	21884
872.138	21755
872.267	21835
872.397	21641
872.526	21564
872.656	21576
872.785	21690
872.915	21804
873.044	21785
873.173	21785
873.303	21804
873.432	21743
873.561	21785
873.69	21789
873.819	21812
873.948	21812
874.077	21709
874.206	21679
874.335	21728
874.464	21812
874.593	21991
874.722	22051
874.851	21930
874.979	22109
875.108	22112
875.237	21968
875.365	21778
875.494	21949
875.623	22070
875.751	22051
875.88	21987
876.008	22173
876.136	22154
876.265	22360
876.393	22523
876.521	22455
876.65	22550
876.778	22379
876.906	22287
877.034	22356
877.162	22443
877.29	22367
877.418	22337
877.546	22440
877.674	22367
877.802	22363
877.93	22276
878.058	22253
878.185	22112
878.313	22363
878.441	22363
878.568	22097
878.696	22253
878.824	22421
878.951	22413
879.079	22485
879.206	22653
879.333	22554
879.461	22379
879.588	22360
879.715	22550
879.842	22561
879.97	22284
880.097	22200
880.224	22211
880.351	22173
880.478	22215
880.605	22078
880.732	22276
880.859	22287
880.986	22261
881.112	22112
881.239	22070
881.366	21926
881.493	21804
881.619	21713
881.746	21747
881.872	21732
881.999	21774
882.125	21713
882.252	21743
882.378	21720
882.505	21808
882.631	21583
882.757	21538
882.883	21530
883.01	21382
883.136	21458
883.262	21325
883.388	21237
883.514	21370
883.64	21443
883.766	21321
883.892	21131
884.018	21287
884.143	21378
884.269	21344
884.395	21207
884.52	21123
884.646	21051
884.772	21062
884.897	20952
885.023	21169
885.148	21108
885.274	21344
885.399	21112
885.524	21104
885.65	21096
885.775	21074
885.9	21024
886.025	21157
886.15	21055
886.275	21009
886.4	21024
886.525	21180
886.65	20990
886.775	20986
886.9	21138
887.025	21237
887.149	21096
887.274	20823
887.399	20781
887.523	20849
887.648	20792
887.773	20804
887.897	21001
888.021	20864
888.146	20823
888.27	20918
888.395	20937
888.519	20902
888.643	20979
888.767	20914
888.891	20716
889.015	20788
889.139	20807
889.263	20587
889.387	20864
889.511	20758
889.635	20811
889.759	20545
889.883	20564
890.006	20697
890.13	20689
890.254	20469
890.377	20514
890.501	20408
890.624	20351
890.748	20400
890.871	20309
890.995	20240
891.118	20126
891.241	20290
891.364	20164
891.488	20339
891.611	20164
891.734	20206
891.857	20294
891.98	20176
892.103	20298
892.226	20282
892.349	20069
892.471	20081
892.594	20153
892.717	20149
892.839	20134
892.962	20107
893.085	20164
893.207	20024
893.33	20020
893.452	20062
893.575	20111
893.697	20126
893.819	20195
893.941	20282
894.064	20275
894.186	20069
894.308	20126
894.43	20206
894.552	20278
894.674	20221
894.796	20081
894.918	20092
895.04	20050
895.161	20180
895.283	20199
895.405	20111
895.526	20115
895.648	20134
895.769	20221
895.891	20149
896.012	20237
896.134	20142
896.255	20202
896.376	20107
896.498	20084
896.619	20164
896.74	20180
896.861	20191
896.982	20438
897.103	20488
897.224	20526
897.345	20313
897.466	20180
897.587	20278
897.708	20442
897.828	20408
897.949	20259
898.07	20126
898.19	20240
898.311	20362
898.431	20206
898.552	20347
898.672	20343
898.792	20404
898.913	20560
899.033	20176
899.153	20081
899.273	19963
899.393	20020
899.513	20161
899.633	20290
899.753	20027
899.873	20039
899.993	20081
900.113	20020
900.232	20149
900.352	20111
900.472	20039
900.591	19830
900.711	19856
900.83	19822
900.95	20008
901.069	19959
901.189	19746
901.308	19529
901.427	19476
901.546	19445
901.665	19426
901.784	19369
901.904	19308
902.023	19251
902.141	19114
902.26	18977
902.379	18966
902.498	19080
902.617	18848
902.735	19046
902.854	18871
902.973	18859
903.091	18623
903.21	18623
903.328	18631
903.446	18574
903.565	18422
903.683	18414
903.801	18296
903.919	18399
904.038	18323
904.156	18178
904.274	18262
904.392	18270
904.51	18133
904.627	18224
904.745	18300
904.863	18353
904.981	18015
905.098	18022
905.216	17843
905.334	17999
905.451	17866
905.569	17863
905.686	17863
905.803	17798
905.921	17676
906.038	17684
906.155	17649
906.272	17703
906.389	17691
906.506	17444
906.623	17497
906.74	17398
906.857	17258
906.974	17193
907.091	17444
907.208	17547
907.324	17455
907.441	17250
907.557	17200
907.674	17151
907.79	17181
907.907	17052
908.023	17178
908.139	17105
908.256	17052
908.372	16896
908.488	16957
908.604	16942
908.72	16942
908.836	16847
908.952	16759
909.068	16908
909.184	16812
909.3	16778
909.415	16881
909.531	16759
909.647	16516
909.762	16478
909.878	16538
909.993	16584
910.108	16569
910.224	16451
910.339	16527
910.454	16409
910.57	16440
910.685	16333
910.8	16691
910.915	16394
911.03	16360
911.145	16158
911.259	16154
911.374	16150
911.489	16059
911.604	15956
911.718	15857
911.833	15907
911.947	15804
912.062	15770
912.176	15911
912.291	15865
912.405	15816
912.519	16044
912.633	16105
912.748	15876
912.862	15819
912.976	15690
913.09	15526
913.204	15614
913.318	15660
913.431	15751
913.545	15831
913.659	15766
913.772	15652
913.886	15587
914	15523
914.113	15435
914.226	15648
914.34	15614
914.453	15435
914.566	15519
914.68	15515
914.793	15393
914.906	15100
915.019	15112
915.132	15176
915.245	15074
915.358	15135
915.47	15089
915.583	15051
915.696	15154
915.809	15097
915.921	15203
916.034	15013
916.146	15051
916.259	15077
916.371	15051
916.483	15051
916.595	15043
916.708	15009
916.82	15013
916.932	14906
917.044	14853
917.156	14941
917.268	14735
917.38	14834
917.491	14777
917.603	14823
917.715	14842
917.826	14868
917.938	14663
918.049	14610
918.161	14796
918.272	14910
918.384	14891
918.495	14693
918.606	14579
918.717	14518
918.828	14583
918.939	14716
919.05	14450
919.161	14530
919.272	14343
919.383	14389
919.494	14598
919.604	14727
919.715	14522
919.826	14377
919.936	14469
920.047	14480
920.157	14499
920.267	14739
920.378	14533
920.488	14511
920.598	14754
920.708	14705
920.818	14746
920.928	14644
921.038	14716
921.148	14815
921.258	14377
921.368	14370
921.477	14347
921.587	14248
921.697	14126
921.806	14282
921.916	14164
922.025	13906
922.134	13860
922.244	13906
922.353	13875
922.462	13734
922.571	13738
922.68	13533
922.789	13483
922.898	13506
923.007	13453
923.116	13480
923.224	13632
923.333	13518
923.442	13335
923.55	13392
923.659	13445
923.767	13430
923.876	13308
923.984	13285
924.092	13327
924.201	13240
924.309	13350
924.417	13308
924.525	13217
924.633	13202
924.741	13970
924.849	13080
924.956	13179
925.064	13027
925.172	12913
925.279	12966
925.387	12996
925.494	12924
925.602	13084
925.709	13000
925.816	12882
925.924	12886
926.031	12943
926.138	12916
926.245	12909
926.352	12798
926.459	12848
926.566	12878
926.673	12772
926.779	12719
926.886	12665
926.993	12563
927.099	12540
927.206	12517
927.312	12483
927.419	12532
927.525	12483
927.631	12528
927.737	12407
927.843	12395
927.95	12258
928.056	12292
928.162	12399
928.267	12311
928.373	13000
928.479	12448
928.585	12197
928.69	12266
928.796	12319
928.901	12216
929.007	12041
929.112	12228
929.218	12148
929.323	12057
929.428	12079
929.533	12247
929.638	11950
929.743	11969
929.848	12045
929.953	12064
930.058	11969
930.163	11745
930.267	11752
930.372	11923
930.477	11760
930.581	11920
930.685	11710
930.79	11627
930.894	11657
930.998	11589
931.103	11733
931.207	11345
931.311	11311
931.415	11254
931.519	11014
931.623	10980
