Data from test_V78500241_3001.txt Node
Date: Fri Mar 25 15:30:45 CST 2022
User: usil
Spectrometer: V785-0024
Trigger mode: 0
Integration Time (sec): 4.000000E-1
Scans to average: 1
Nonlinearity correction enabled: false
Boxcar width: 0
Storing dark spectrum: false
XAxis mode: Wavelengths
Number of Pixels in Spectrum: 1024
>>>>>Begin Spectral Data<<<<<
801.071	27298
801.214	27291
801.356	27024
801.499	27028
801.641	26868
801.783	26895
801.926	26853
802.068	26777
802.211	26712
802.353	26689
802.496	26621
802.638	26393
802.78	26522
802.923	26374
803.065	26446
803.208	26457
803.35	26385
803.492	26640
803.635	26537
803.777	26511
803.919	26606
804.061	26914
804.204	26830
804.346	26583
804.488	26526
804.63	26575
804.773	26583
804.915	26670
805.057	26773
805.199	26583
805.341	26739
805.483	26830
805.626	26819
805.768	26579
805.91	26754
806.052	26899
806.194	26765
806.336	26906
806.478	26648
806.62	26674
806.762	26880
806.904	26998
807.046	27351
807.188	27127
807.33	27192
807.472	27195
807.614	27051
807.756	27127
807.898	27074
808.04	26914
808.182	26971
808.324	27085
808.465	26979
808.607	27363
808.749	27245
808.891	27447
809.033	27648
809.174	27485
809.316	27408
809.458	27389
809.6	27336
809.741	27291
809.883	27367
810.025	27755
810.166	27663
810.308	27637
810.45	27519
810.591	27603
810.733	27443
810.875	27272
811.016	27302
811.158	27344
811.299	27408
811.441	27591
811.582	27591
811.724	27355
811.865	27260
812.007	27283
812.148	27348
812.29	27367
812.431	27576
812.573	27713
812.714	27705
812.855	27911
812.997	28059
813.138	28051
813.279	27994
813.421	28013
813.562	27808
813.703	27656
813.845	27511
813.986	27264
814.127	27116
814.268	27112
814.41	26998
814.551	26940
814.692	27119
814.833	26960
814.974	27058
815.115	27001
815.256	26933
815.397	26902
815.539	26804
815.68	26781
815.821	26705
815.962	26838
816.103	26743
816.244	26579
816.385	26693
816.526	26545
816.666	26465
816.807	26355
816.948	26362
817.089	26259
817.23	26252
817.371	26301
817.512	26282
817.653	26324
817.793	26187
817.934	26336
818.075	26339
818.216	26374
818.356	26206
818.497	26058
818.638	25947
818.778	25959
818.919	26016
819.06	26054
819.2	26115
819.341	26195
819.481	26351
819.622	26427
819.762	26533
819.903	26465
820.043	26488
820.184	26339
820.324	26408
820.465	26396
820.605	26450
820.746	26419
820.886	26092
821.026	26374
821.167	26370
821.307	26275
821.447	26225
821.588	26058
821.728	26195
821.868	25928
822.008	25731
822.149	25719
822.289	25712
822.429	25464
822.569	25430
822.709	25476
822.849	25278
822.99	25301
823.13	25228
823.27	25217
823.41	25084
823.55	25012
823.69	24958
823.83	25145
823.97	25107
824.11	24916
824.25	24753
824.389	24875
824.529	24962
824.669	24966
824.809	24848
824.949	24901
825.089	24787
825.228	24825
825.368	24669
825.508	24715
825.648	24757
825.787	24806
825.927	24783
826.067	24779
826.206	24559
826.346	24741
826.485	24593
826.625	24692
826.765	24760
826.904	24837
827.044	24505
827.183	24441
827.323	24369
827.462	24555
827.601	24452
827.741	24334
827.88	24502
828.02	24338
828.159	24369
828.298	24464
828.437	24483
828.577	24315
828.716	24532
828.855	24399
828.994	24121
829.134	24251
829.273	24216
829.412	24182
829.551	24194
829.69	24076
829.829	24197
829.968	24133
830.107	24167
830.246	24266
830.385	24140
830.524	23996
830.663	23916
830.802	23813
830.941	23779
831.08	23611
831.219	23809
831.357	23882
831.496	23999
831.635	23710
831.774	23646
831.913	23615
832.051	23474
832.19	23459
832.329	23562
832.467	23509
832.606	23414
832.744	23318
832.883	23391
833.022	23292
833.16	23398
833.299	23406
833.437	23239
833.576	23512
833.714	23421
833.852	23376
833.991	23581
834.129	23501
834.267	23558
834.406	23376
834.544	23486
834.682	23493
834.821	23501
834.959	23600
835.097	23288
835.235	23455
835.373	23497
835.511	23482
835.65	23379
835.788	23379
835.926	23121
836.064	23166
836.202	22972
836.34	23353
836.478	23368
836.615	23277
836.753	23414
836.891	23303
837.029	23292
837.167	23273
837.305	23185
837.443	23181
837.58	23075
837.718	23178
837.856	23162
837.993	23124
838.131	23124
838.269	22923
838.406	23010
838.544	22839
838.681	22755
838.819	22824
838.956	22577
839.094	22752
839.231	22721
839.369	22736
839.506	23086
839.643	22835
839.781	22607
839.918	22618
840.055	22573
840.193	22653
840.33	22443
840.467	22478
840.604	22656
840.742	22809
840.879	22573
841.016	22516
841.153	22462
841.29	22565
841.427	22580
841.564	22630
841.701	22618
841.838	22508
841.975	22337
842.112	22550
842.249	22405
842.385	22333
842.522	22504
842.659	22249
842.796	22287
842.933	22287
843.069	22360
843.206	22131
843.343	22382
843.479	22356
843.616	22287
843.752	22086
843.889	22093
844.025	22204
844.162	22090
844.298	22207
844.435	22040
844.571	22051
844.708	22044
844.844	22158
844.98	22139
845.117	22177
845.253	21934
845.389	21983
845.525	21964
845.661	21983
845.798	21846
845.934	21937
846.07	21812
846.206	21812
846.342	21956
846.478	21800
846.614	21564
846.75	21660
846.886	21534
847.022	21625
847.158	21504
847.294	21561
847.429	21481
847.565	21545
847.701	21766
847.837	21348
847.972	21313
848.108	21317
848.244	21367
848.379	21226
848.515	21131
848.65	21131
848.786	21116
848.921	21127
849.057	21287
849.192	21127
849.328	21226
849.463	21051
849.598	21074
849.734	20960
849.869	20994
850.004	20906
850.14	20971
850.275	20887
850.41	20861
850.545	20811
850.68	20842
850.815	20994
850.95	20823
851.085	21039
851.22	21024
851.355	20845
851.49	20941
851.625	20857
851.76	20823
851.895	20823
852.03	20807
852.165	20921
852.299	20910
852.434	20963
852.569	20910
852.703	20925
852.838	20925
852.973	20941
853.107	21055
853.242	20769
853.376	20746
853.511	20705
853.645	20693
853.78	20777
853.914	20849
854.048	20750
854.183	20750
854.317	20716
854.451	20849
854.585	20655
854.72	20788
854.854	20811
854.988	20693
855.122	20849
855.256	20606
855.39	20693
855.524	20830
855.658	20929
855.792	20750
855.926	20872
856.06	20708
856.194	20861
856.327	20716
856.461	20629
856.595	20617
856.729	20705
856.862	20857
856.996	20815
857.13	20830
857.263	20838
857.397	20933
857.53	20769
857.664	20804
857.797	20800
857.931	20796
858.064	20720
858.197	20880
858.331	20636
858.464	20583
858.597	20655
858.731	20708
858.864	20670
858.997	20609
859.13	20754
859.263	20674
859.396	20788
859.529	20693
859.662	20762
859.795	20636
859.928	20754
860.061	20941
860.194	20937
860.327	20857
860.46	20674
860.592	20895
860.725	20830
860.858	20781
860.99	20708
861.123	20613
861.256	20765
861.388	20735
861.521	21340
861.653	20476
861.786	20583
861.918	20609
862.05	20598
862.183	20617
862.315	20648
862.447	20575
862.58	20609
862.712	20461
862.844	20389
862.976	20530
863.108	20556
863.24	20914
863.372	20427
863.504	20408
863.636	20423
863.768	20560
863.9	20450
864.032	20408
864.164	20317
864.296	20518
864.428	20625
864.559	20564
864.691	20431
864.823	20351
864.954	20339
865.086	20347
865.217	20355
865.349	20187
865.48	20328
865.612	20358
865.743	20450
865.875	20374
866.006	20294
866.137	20431
866.269	20259
866.4	20313
866.531	20259
866.662	20362
866.793	20187
866.924	20206
867.055	20320
867.186	20396
867.317	20267
867.448	20218
867.579	20347
867.71	20126
867.841	20317
867.972	20275
868.103	20309
868.233	20374
868.364	20240
868.495	20377
868.625	20579
868.756	20613
868.886	20579
869.017	20530
869.147	20583
869.278	20663
869.408	20686
869.539	20465
869.669	20552
869.799	20587
869.929	20549
870.06	20670
870.19	20800
870.32	20800
870.45	20842
870.58	20864
870.71	21001
870.84	20872
870.97	20834
871.1	20785
871.23	21150
871.36	21241
871.489	21051
871.619	21131
871.749	21214
871.879	21142
872.008	21249
872.138	21077
872.267	21096
872.397	20891
872.526	20853
872.656	20929
872.785	20906
872.915	21131
873.044	21245
873.173	21096
873.303	21085
873.432	21230
873.561	21302
873.69	21176
873.819	21131
873.948	21241
874.077	21154
874.206	21017
874.335	21009
874.464	21291
874.593	21462
874.722	21355
874.851	21348
874.979	21416
875.108	21405
875.237	21363
875.365	21256
875.494	21370
875.623	21515
875.751	21344
875.88	21443
876.008	21542
876.136	21542
876.265	21778
876.393	21907
876.521	21755
876.65	21926
876.778	21873
876.906	21800
877.034	21747
877.162	21694
877.29	21816
877.418	21785
877.546	21679
877.674	21622
877.802	21698
877.93	21759
878.058	21545
878.185	21705
878.313	21793
878.441	21816
878.568	21591
878.696	21671
878.824	21816
878.951	21831
879.079	21922
879.206	22120
879.333	21884
879.461	21629
879.588	21800
879.715	21857
879.842	21949
879.97	21770
880.097	21587
880.224	21591
880.351	21610
880.478	21614
880.605	21416
880.732	21545
880.859	21736
880.986	21614
881.112	21568
881.239	21355
881.366	21420
881.493	21252
881.619	21146
881.746	21192
881.872	21036
881.999	21047
882.125	21112
882.252	21222
882.378	21127
882.505	21226
882.631	21093
882.757	20876
882.883	20933
883.01	20933
883.136	20826
883.262	20777
883.388	20716
883.514	20880
883.64	20891
883.766	20792
883.892	20659
884.018	20777
884.143	20785
884.269	20861
884.395	20632
884.52	20465
884.646	20530
884.772	20499
884.897	20412
885.023	20556
885.148	20632
885.274	20678
885.399	20602
885.524	20530
885.65	20522
885.775	20564
885.9	20393
886.025	20602
886.15	20488
886.275	20457
886.4	20351
886.525	20503
886.65	20431
886.775	20442
886.9	20507
887.025	20678
887.149	20450
887.274	20339
887.399	20237
887.523	20237
887.648	20218
887.773	20180
887.897	20446
888.021	20229
888.146	20248
888.27	20366
888.395	20343
888.519	20381
888.643	20351
888.767	20313
888.891	20202
889.015	20153
889.139	20119
889.263	20054
889.387	20138
889.511	20290
889.635	20229
889.759	20020
889.883	20005
890.006	20001
890.13	20183
890.254	19932
890.377	19921
890.501	19818
890.624	19845
890.748	19921
890.871	19708
890.995	19628
891.118	19559
891.241	19666
891.364	19658
891.488	19856
891.611	19624
891.734	19582
891.857	19769
891.98	19639
892.103	19769
892.226	19578
892.349	19605
892.471	19628
892.594	19597
892.717	19594
892.839	19563
892.962	19712
893.085	19689
893.207	19575
893.33	19502
893.452	19441
893.575	19594
893.697	19411
893.819	19734
893.941	19734
894.064	19746
894.186	19540
894.308	19525
894.43	19696
894.552	19738
894.674	19582
894.796	19419
894.918	19548
895.04	19670
895.161	19674
895.283	19712
895.405	19571
895.526	19582
895.648	19677
895.769	19556
895.891	19674
896.012	19727
896.134	19594
896.255	19605
896.376	19502
896.498	19521
896.619	19533
896.74	19510
896.861	19578
896.982	19906
897.103	19997
897.224	19974
897.345	19765
897.466	19727
897.587	19807
897.708	19921
897.828	19814
897.949	19750
898.07	19708
898.19	19784
898.311	19887
898.431	19746
898.552	19757
898.672	19913
898.792	19955
898.913	19860
899.033	19799
899.153	19632
899.273	19563
899.393	19544
899.513	19582
899.633	19571
899.753	19719
899.873	19662
899.993	19449
900.113	19495
900.232	19552
900.352	19415
900.472	19518
900.591	19324
900.711	19350
900.83	19278
900.95	19552
901.069	19453
901.189	19343
901.308	19072
901.427	19008
901.546	18966
901.665	19012
901.784	19038
901.904	18749
902.023	18753
902.141	18536
902.26	18464
902.379	18536
902.498	18388
902.617	18471
902.735	18536
902.854	18441
902.973	18391
903.091	18292
903.21	18136
903.328	18167
903.446	18106
903.565	17893
903.683	18076
903.801	17885
903.919	18022
904.038	17916
904.156	17775
904.274	17786
904.392	17672
904.51	17726
904.627	17760
904.745	17771
904.863	17813
904.981	17501
905.098	17425
905.216	17455
905.334	17474
905.451	17478
905.569	17315
905.686	17501
905.803	17311
905.921	17132
906.038	17220
906.155	17296
906.272	17147
906.389	17090
906.506	16968
906.623	16946
906.74	16889
906.857	16782
906.974	16835
907.091	17014
907.208	17181
907.324	16866
907.441	16771
907.557	16649
907.674	16622
907.79	16675
907.907	16523
908.023	16634
908.139	16558
908.256	16660
908.372	16550
908.488	16470
908.604	16481
908.72	16363
908.836	16390
908.952	16265
909.068	16470
909.184	16462
909.3	16402
909.415	16538
909.531	16470
909.647	16120
909.762	16044
909.878	16131
909.993	16139
910.108	16093
910.224	15975
910.339	16059
910.454	16017
910.57	15884
910.685	15907
910.8	16158
910.915	15998
911.03	15861
911.145	15724
911.259	15641
911.374	15747
911.489	15660
911.604	15641
911.718	15408
911.833	15443
911.947	15412
912.062	15317
912.176	15450
912.291	15625
912.405	15424
912.519	15660
912.633	15595
912.748	15526
912.862	15488
912.976	15317
913.09	15154
913.204	15214
913.318	15298
913.431	15378
913.545	15340
913.659	15321
913.772	15195
913.886	15127
914	15138
914.113	15180
914.226	15176
914.34	15116
914.453	15020
914.566	15100
914.68	14914
914.793	14857
914.906	14781
915.019	14754
915.132	14651
915.245	14678
915.358	14655
915.47	14830
915.583	14655
915.696	14743
915.809	14819
915.921	14743
916.034	14526
916.146	14602
916.259	14556
916.371	14678
916.483	14651
916.595	14469
916.708	14587
916.82	14473
916.932	14568
917.044	14454
917.156	14457
917.268	14393
917.38	14408
917.491	14454
917.603	14450
917.715	14484
917.826	14374
917.938	14320
918.049	14256
918.161	14248
918.272	14461
918.384	14438
918.495	14267
918.606	14176
918.717	14138
918.828	14199
918.939	14107
919.05	14088
919.161	14126
919.272	13906
919.383	13947
919.494	14202
919.604	14320
919.715	14149
919.826	13947
919.936	14050
920.047	14199
920.157	14130
920.267	14294
920.378	14168
920.488	14096
920.598	14199
920.708	14362
920.818	14237
920.928	14161
921.038	14362
921.148	14351
921.258	14062
921.368	14008
921.477	13868
921.587	13807
921.697	13647
921.806	13898
921.916	13753
922.025	13556
922.134	13567
922.244	13476
922.353	13590
922.462	13335
922.571	13301
922.68	13225
922.789	13225
922.898	13137
923.007	13160
923.116	13175
923.224	13114
923.333	13084
923.442	12913
923.55	12909
923.659	13080
923.767	13061
923.876	12943
923.984	13046
924.092	12878
924.201	12943
924.309	12837
924.417	12935
924.525	12753
924.633	12791
924.741	13613
924.849	12623
924.956	12791
925.064	12582
925.172	12532
925.279	12582
925.387	12604
925.494	12555
925.602	12738
925.709	12578
925.816	12471
925.924	12467
926.031	12612
926.138	12536
926.245	12578
926.352	12437
926.459	12604
926.566	12555
926.673	12452
926.779	12357
926.886	12350
926.993	12159
927.099	12178
927.206	12220
927.312	12114
927.419	12209
927.525	12083
927.631	12190
927.737	12068
927.843	12007
927.95	11855
928.056	11996
928.162	11958
928.267	12053
928.373	12563
928.479	12095
928.585	11897
928.69	11923
928.796	11946
928.901	11798
929.007	11680
929.112	11954
929.218	11779
929.323	11760
929.428	11642
929.533	11889
929.638	11649
929.743	11691
929.848	11752
929.953	11764
930.058	11661
930.163	11345
930.267	11482
930.372	11478
930.477	11425
930.581	11566
930.685	11417
930.79	11246
930.894	11273
930.998	11284
931.103	11455
931.207	11022
931.311	10881
931.415	10930
931.519	10694
931.623	10653
