Data from test_V78500241_975.txt Node
Date: Fri Mar 25 15:16:38 CST 2022
User: usil
Spectrometer: V785-0024
Trigger mode: 0
Integration Time (sec): 4.000000E-1
Scans to average: 1
Nonlinearity correction enabled: false
Boxcar width: 0
Storing dark spectrum: false
XAxis mode: Wavelengths
Number of Pixels in Spectrum: 1024
>>>>>Begin Spectral Data<<<<<
801.071	28295
801.214	28109
801.356	27922
801.499	27949
801.641	27804
801.783	27873
801.926	27880
802.068	27736
802.211	27804
802.353	27644
802.496	27351
802.638	27576
802.78	27443
802.923	27363
803.065	27370
803.208	27458
803.35	27382
803.492	27530
803.635	27698
803.777	27572
803.919	27698
804.061	27831
804.204	27736
804.346	27576
804.488	27690
804.63	27660
804.773	27511
804.915	27789
805.057	27857
805.199	27603
805.341	27774
805.483	27755
805.626	27823
805.768	27663
805.91	27720
806.052	27770
806.194	27755
806.336	28067
806.478	27747
806.62	27770
806.762	27880
806.904	28109
807.046	28329
807.188	28226
807.33	28253
807.472	28299
807.614	28162
807.756	28196
807.898	28249
808.04	28139
808.182	28051
808.324	28128
808.465	28101
808.607	28333
808.749	28466
808.891	28443
809.033	28546
809.174	28653
809.316	28489
809.458	28428
809.6	28523
809.741	28675
809.883	28729
810.025	28691
810.166	28710
810.308	28881
810.45	28759
810.591	28694
810.733	28550
810.875	28451
811.016	28485
811.158	28455
811.299	28569
811.441	28546
811.582	28653
811.724	28417
811.865	28466
812.007	28428
812.148	28466
812.29	28516
812.431	28626
812.573	28767
812.714	28820
812.855	29083
812.997	29071
813.138	29265
813.279	29151
813.421	29067
813.562	29041
813.703	28888
813.845	28683
813.986	28455
814.127	28386
814.268	28169
814.41	28333
814.551	28185
814.692	28204
814.833	28169
814.974	28215
815.115	28181
815.256	28177
815.397	28211
815.539	28090
815.68	27964
815.821	27979
815.962	28120
816.103	27968
816.244	27956
816.385	27709
816.526	27759
816.666	27538
816.807	27386
816.948	27701
817.089	27652
817.23	27545
817.371	27538
817.512	27473
817.653	27534
817.793	27500
817.934	27466
818.075	27504
818.216	27576
818.356	27412
818.497	27298
818.638	27256
818.778	27321
818.919	27427
819.06	27310
819.2	27469
819.341	27534
819.481	27572
819.622	27572
819.762	27819
819.903	27660
820.043	27751
820.184	27515
820.324	27561
820.465	27789
820.605	27637
820.746	27549
820.886	27507
821.026	27682
821.167	27568
821.307	27644
821.447	27599
821.588	27500
821.728	27359
821.868	27207
822.008	26998
822.149	27005
822.289	26906
822.429	26682
822.569	26533
822.709	26716
822.849	26716
822.99	26537
823.13	26507
823.27	26488
823.41	26393
823.55	26164
823.69	26286
823.83	26313
823.97	26343
824.11	26092
824.25	26126
824.389	26138
824.529	26294
824.669	26218
824.809	26362
824.949	26221
825.089	26210
825.228	26347
825.368	26005
825.508	26024
825.648	26024
825.787	26103
825.927	26020
826.067	25986
826.206	26164
826.346	26054
826.485	26126
826.625	26012
826.765	26077
826.904	26035
827.044	25822
827.183	25811
827.323	25750
827.462	25791
827.601	25852
827.741	25761
827.88	25822
828.02	25548
828.159	25830
828.298	25780
828.437	25837
828.577	25807
828.716	25788
828.855	25620
828.994	25575
829.134	25457
829.273	25434
829.412	25479
829.551	25335
829.69	25540
829.829	25529
829.968	25616
830.107	25529
830.246	25434
830.385	25578
830.524	25438
830.663	25308
830.802	25236
830.941	25076
831.08	25076
831.219	25202
831.357	25179
831.496	25419
831.635	25103
831.774	24981
831.913	25031
832.051	25023
832.19	24928
832.329	24909
832.467	24814
832.606	24719
832.744	24798
832.883	24825
833.022	24852
833.16	24825
833.299	24707
833.437	24848
833.576	24939
833.714	24795
833.852	24928
833.991	24970
834.129	24844
834.267	24890
834.406	24848
834.544	24821
834.682	24890
834.821	24779
834.959	25103
835.097	24711
835.235	24871
835.373	24878
835.511	24753
835.65	24856
835.788	24631
835.926	24798
836.064	24426
836.202	24555
836.34	24696
836.478	24814
836.615	24711
836.753	24646
836.891	24802
837.029	24757
837.167	24661
837.305	24642
837.443	24525
837.58	24532
837.718	24555
837.856	24407
837.993	24353
838.131	24494
838.269	24483
838.406	24418
838.544	24418
838.681	24110
838.819	24155
838.956	24083
839.094	24110
839.231	24034
839.369	24232
839.506	24273
839.643	24197
839.781	24110
839.918	23866
840.055	24117
840.193	23931
840.33	23840
840.467	23916
840.604	23954
840.742	24159
840.879	23931
841.016	23904
841.153	23767
841.29	24007
841.427	23798
841.564	23927
841.701	23904
841.838	23912
841.975	23821
842.112	23878
842.249	23691
842.385	23687
842.522	23942
842.659	23638
842.796	23638
842.933	23767
843.069	23714
843.206	23581
843.343	23589
843.479	23668
843.616	23733
843.752	23497
843.889	23539
844.025	23539
844.162	23482
844.298	23474
844.435	23444
844.571	23410
844.708	23570
844.844	23592
844.98	23630
845.117	23467
845.253	23395
845.389	23280
845.525	23376
845.661	23334
845.798	23178
845.934	23250
846.07	23220
846.206	23185
846.342	23261
846.478	23140
846.614	22938
846.75	22839
846.886	22866
847.022	22987
847.158	22885
847.294	22946
847.429	22949
847.565	22942
847.701	23083
847.837	22683
847.972	22660
848.108	22725
848.244	22603
848.379	22584
848.515	22440
848.65	22405
848.786	22580
848.921	22596
849.057	22694
849.192	22615
849.328	22592
849.463	22367
849.598	22447
849.734	22318
849.869	22337
850.004	22303
850.14	22333
850.275	22257
850.41	22310
850.545	22322
850.68	22173
850.815	22276
850.95	22249
851.085	22485
851.22	22299
851.355	22356
851.49	22253
851.625	22246
851.76	22177
851.895	22272
852.03	22234
852.165	22291
852.299	22253
852.434	22344
852.569	22299
852.703	22246
852.838	22409
852.973	22356
853.107	22390
853.242	22200
853.376	22181
853.511	22013
853.645	21934
853.78	22082
853.914	22086
854.048	21895
854.183	22116
854.317	22025
854.451	22200
854.585	22021
854.72	22112
854.854	22124
854.988	21979
855.122	22055
855.256	21918
855.39	21930
855.524	22158
855.658	22124
855.792	22029
855.926	22048
856.06	22128
856.194	22207
856.327	21998
856.461	21926
856.595	22074
856.729	21964
856.862	22128
856.996	22048
857.13	22173
857.263	22120
857.397	22204
857.53	22021
857.664	22192
857.797	22253
857.931	22215
858.064	22078
858.197	22154
858.331	22067
858.464	22032
858.597	22010
858.731	22029
858.864	22021
858.997	22128
859.13	21949
859.263	22101
859.396	22070
859.529	21994
859.662	22048
859.795	22051
859.928	22051
860.061	22101
860.194	22287
860.327	22150
860.46	22143
860.592	22230
860.725	22329
860.858	22158
860.99	22192
861.123	21991
861.256	21983
861.388	22063
861.521	22706
861.653	21907
861.786	21816
861.918	21747
862.05	21998
862.183	21869
862.315	22063
862.447	22116
862.58	21945
862.712	21854
862.844	21717
862.976	21903
863.108	21812
863.24	22204
863.372	21793
863.504	21770
863.636	21629
863.768	21739
863.9	21667
864.032	21694
864.164	21698
864.296	21797
864.428	21800
864.559	21724
864.691	21743
864.823	21778
864.954	21755
865.086	21755
865.217	21629
865.349	21599
865.48	21583
865.612	21663
865.743	21743
865.875	21717
866.006	21564
866.137	21667
866.269	21675
866.4	21553
866.531	21545
866.662	21500
866.793	21561
866.924	21530
867.055	21614
867.186	21591
867.317	21599
867.448	21614
867.579	21526
867.71	21420
867.841	21473
867.972	21576
868.103	21568
868.233	21523
868.364	21504
868.495	21709
868.625	21861
868.756	21838
868.886	21797
869.017	21892
869.147	21800
869.278	21873
869.408	21865
869.539	21827
869.669	21812
869.799	21835
869.929	21991
870.06	21884
870.19	22082
870.32	22059
870.45	22238
870.58	22101
870.71	22322
870.84	22291
870.97	22200
871.1	22394
871.23	22413
871.36	22409
871.489	22242
871.619	22352
871.749	22466
871.879	22382
872.008	22493
872.138	22421
872.267	22386
872.397	22291
872.526	22185
872.656	22246
872.785	22173
872.915	22325
873.044	22504
873.173	22417
873.303	22436
873.432	22531
873.561	22443
873.69	22428
873.819	22405
873.948	22474
874.077	22367
874.206	22352
874.335	22363
874.464	22630
874.593	22672
874.722	22561
874.851	22721
874.979	22630
875.108	22649
875.237	22569
875.365	22523
875.494	22569
875.623	22778
875.751	22683
875.88	22580
876.008	22774
876.136	22812
876.265	22908
876.393	23246
876.521	23022
876.65	23003
876.778	22892
876.906	22949
877.034	23025
877.162	22984
877.29	22869
877.418	22968
877.546	22938
877.674	22923
877.802	22900
877.93	22896
878.058	22961
878.185	22843
878.313	22934
878.441	22869
878.568	22801
878.696	22930
878.824	23033
878.951	23216
879.079	23109
879.206	23273
879.333	23162
879.461	23048
879.588	23006
879.715	23094
879.842	23307
879.97	23006
880.097	22771
880.224	22847
880.351	22927
880.478	22908
880.605	22763
880.732	22942
880.859	22930
880.986	22873
881.112	22839
881.239	22683
881.366	22478
881.493	22356
881.619	22413
881.746	22512
881.872	22303
881.999	22223
882.125	22356
882.252	22409
882.378	22363
882.505	22421
882.631	22090
882.757	22055
882.883	22074
883.01	21983
883.136	22086
883.262	21861
883.388	21918
883.514	22097
883.64	22192
883.766	21945
883.892	21899
884.018	21930
884.143	22006
884.269	22131
884.395	21774
884.52	21656
884.646	21720
884.772	21549
884.897	21549
885.023	21705
885.148	21766
885.274	21846
885.399	21781
885.524	21827
885.65	21766
885.775	21759
885.9	21766
886.025	21827
886.15	21694
886.275	21717
886.4	21580
886.525	21641
886.65	21591
886.775	21660
886.9	21789
887.025	21838
887.149	21675
887.274	21469
887.399	21443
887.523	21504
887.648	21351
887.773	21317
887.897	21485
888.021	21382
888.146	21348
888.27	21458
888.395	21622
888.519	21542
888.643	21545
888.767	21420
888.891	21435
889.015	21252
889.139	21332
889.263	21214
889.387	21416
889.511	21469
889.635	21272
889.759	21272
889.883	21222
890.006	21233
890.13	21355
890.254	21131
890.377	21142
890.501	20921
890.624	20948
890.748	21039
890.871	21020
890.995	20807
891.118	20746
891.241	20864
891.364	20746
891.488	21039
891.611	20861
891.734	20765
891.857	20868
891.98	20906
892.103	20689
892.226	20876
892.349	20746
892.471	20712
892.594	20731
892.717	20678
892.839	20640
892.962	20785
893.085	20758
893.207	20686
893.33	20594
893.452	20469
893.575	20758
893.697	20640
893.819	20826
893.941	20762
894.064	20689
894.186	20686
894.308	20613
894.43	20678
894.552	20743
894.674	20769
894.796	20495
894.918	20667
895.04	20594
895.161	20777
895.283	20697
895.405	20632
895.526	20777
895.648	20640
895.769	20678
895.891	20724
896.012	20895
896.134	20644
896.255	20602
896.376	20606
896.498	20701
896.619	20796
896.74	20625
896.861	20716
896.982	21039
897.103	21108
897.224	20864
897.345	20804
897.466	20720
897.587	20853
897.708	20963
897.828	20830
897.949	20842
898.07	20735
898.19	20830
898.311	20921
898.431	20777
898.552	20868
898.672	20895
898.792	20986
898.913	20868
899.033	20735
899.153	20705
899.273	20549
899.393	20670
899.513	20667
899.633	20590
899.753	20663
899.873	20590
899.993	20636
900.113	20457
900.232	20560
900.352	20533
900.472	20374
900.591	20301
900.711	20465
900.83	20176
900.95	20507
901.069	20579
901.189	20328
901.308	19986
901.427	19940
901.546	19921
901.665	20020
901.784	19970
901.904	19807
902.023	19685
902.141	19616
902.26	19464
902.379	19578
902.498	19384
902.617	19487
902.735	19373
902.854	19518
902.973	19335
903.091	19095
903.21	19107
903.328	19129
903.446	19008
903.565	18989
903.683	18878
903.801	18867
903.919	18806
904.038	18897
904.156	18810
904.274	18730
904.392	18650
904.51	18597
904.627	18730
904.745	18612
904.863	18692
904.981	18589
905.098	18330
905.216	18456
905.334	18429
905.451	18353
905.569	18418
905.686	18452
905.803	18441
905.921	18076
906.038	18228
906.155	18095
906.272	18087
906.389	17999
906.506	17931
906.623	17866
906.74	17901
906.857	17726
906.974	17870
907.091	17954
907.208	17904
907.324	17901
907.441	17779
907.557	17676
907.674	17638
907.79	17528
907.907	17585
908.023	17589
908.139	17566
908.256	17471
908.372	17516
908.488	17490
908.604	17318
908.72	17299
908.836	17345
908.952	17254
909.068	17356
909.184	17360
909.3	17261
909.415	17383
909.531	17220
909.647	17006
909.762	17052
909.878	16961
909.993	17045
910.108	17075
910.224	17006
910.339	16946
910.454	16889
910.57	16816
910.685	16759
910.8	17117
910.915	16923
911.03	16866
911.145	16691
911.259	16683
911.374	16561
911.489	16637
911.604	16531
911.718	16375
911.833	16337
911.947	16318
912.062	16169
912.176	16352
912.291	16360
912.405	16295
912.519	16550
912.633	16519
912.748	16386
912.862	16352
912.976	16272
913.09	16059
913.204	16090
913.318	16139
913.431	16162
913.545	16249
913.659	16181
913.772	16036
913.886	15983
914	15953
914.113	16006
914.226	16071
914.34	15960
914.453	15831
914.566	15964
914.68	15823
914.793	15823
914.906	15679
915.019	15591
915.132	15473
915.245	15572
915.358	15553
915.47	15610
915.583	15526
915.696	15599
915.809	15622
915.921	15766
916.034	15443
916.146	15454
916.259	15435
916.371	15485
916.483	15511
916.595	15336
916.708	15325
916.82	15348
916.932	15378
917.044	15344
917.156	15332
917.268	15203
917.38	15230
917.491	15043
917.603	15161
917.715	15233
917.826	15272
917.938	14944
918.049	15032
918.161	15214
918.272	15226
918.384	15222
918.495	15237
918.606	14990
918.717	14788
918.828	15001
918.939	15009
919.05	14918
919.161	14807
919.272	14648
919.383	14826
919.494	14963
919.604	15173
919.715	14986
919.826	14705
919.936	14830
920.047	14975
920.157	14842
920.267	15070
920.378	14895
920.488	14876
920.598	14963
920.708	15100
920.818	15058
920.928	14986
921.038	15199
921.148	15142
921.258	14785
921.368	14773
921.477	14678
921.587	14621
921.697	14514
921.806	14625
921.916	14461
922.025	14282
922.134	14229
922.244	14126
922.353	14256
922.462	14225
922.571	14016
922.68	13894
922.789	13940
922.898	13940
923.007	13799
923.116	13860
923.224	13883
923.333	13898
923.442	13738
923.55	13685
923.659	13757
923.767	13830
923.876	13636
923.984	13712
924.092	13651
924.201	13594
924.309	13681
924.417	13559
924.525	13586
924.633	13578
924.741	14480
924.849	13381
924.956	13457
925.064	13251
925.172	13171
925.279	13301
925.387	13274
925.494	13270
925.602	13343
925.709	13312
925.816	13156
925.924	13213
926.031	13377
926.138	13221
926.245	13221
926.352	13046
926.459	13263
926.566	13308
926.673	13160
926.779	13088
926.886	13031
926.993	12913
927.099	12821
927.206	12768
927.312	12798
927.419	12924
927.525	12802
927.631	12810
927.737	12768
927.843	12639
927.95	12517
928.056	12601
928.162	12692
928.267	12745
928.373	13320
928.479	12738
928.585	12536
928.69	12578
928.796	12623
928.901	12509
929.007	12342
929.112	12585
929.218	12502
929.323	12342
929.428	12407
929.533	12540
929.638	12327
929.743	12327
929.848	12350
929.953	12323
930.058	12152
930.163	12030
930.267	12114
930.372	12171
930.477	12038
930.581	12125
930.685	12110
930.79	11874
930.894	11901
930.998	11920
931.103	12022
931.207	11710
931.311	11558
931.415	11482
931.519	11337
931.623	11265
