Data from test_V78500241_1082.txt Node
Date: Fri Mar 25 15:17:23 CST 2022
User: usil
Spectrometer: V785-0024
Trigger mode: 0
Integration Time (sec): 4.000000E-1
Scans to average: 1
Nonlinearity correction enabled: false
Boxcar width: 0
Storing dark spectrum: false
XAxis mode: Wavelengths
Number of Pixels in Spectrum: 1024
>>>>>Begin Spectral Data<<<<<
801.071	28025
801.214	28120
801.356	27873
801.499	27808
801.641	27534
801.783	27622
801.926	27876
802.068	27610
802.211	27542
802.353	27443
802.496	27370
802.638	27294
802.78	27348
802.923	27382
803.065	27260
803.208	27275
803.35	27370
803.492	27443
803.635	27458
803.777	27374
803.919	27523
804.061	27804
804.204	27644
804.346	27447
804.488	27485
804.63	27450
804.773	27412
804.915	27568
805.057	27732
805.199	27523
805.341	27637
805.483	27701
805.626	27641
805.768	27603
805.91	27629
806.052	27682
806.194	27652
806.336	27800
806.478	27694
806.62	27816
806.762	27739
806.904	27911
807.046	28150
807.188	27960
807.33	28017
807.472	28124
807.614	27998
807.756	27968
807.898	27975
808.04	27907
808.182	27941
808.324	28051
808.465	28013
808.607	28173
808.749	28253
808.891	28447
809.033	28379
809.174	28386
809.316	28268
809.458	28150
809.6	28268
809.741	28519
809.883	28379
810.025	28687
810.166	28516
810.308	28592
810.45	28557
810.591	28413
810.733	28242
810.875	28249
811.016	28162
811.158	28169
811.299	28360
811.441	28470
811.582	28577
811.724	28382
811.865	28360
812.007	28204
812.148	28310
812.29	28417
812.431	28405
812.573	28569
812.714	28649
812.855	28866
812.997	28858
813.138	29041
813.279	28984
813.421	28847
813.562	28771
813.703	28729
813.845	28618
813.986	28287
814.127	28188
814.268	28116
814.41	28131
814.551	28002
814.692	28093
814.833	27842
814.974	27934
815.115	28029
815.256	28051
815.397	27918
815.539	27903
815.68	27895
815.821	27724
815.962	27747
816.103	27880
816.244	27713
816.385	27633
816.526	27473
816.666	27348
816.807	27336
816.948	27412
817.089	27458
817.23	27291
817.371	27344
817.512	27268
817.653	27332
817.793	27348
817.934	27306
818.075	27370
818.216	27370
818.356	27252
818.497	27313
818.638	27192
818.778	27001
818.919	27119
819.06	27161
819.2	27291
819.341	27397
819.481	27256
819.622	27515
819.762	27705
819.903	27488
820.043	27530
820.184	27336
820.324	27500
820.465	27557
820.605	27542
820.746	27469
820.886	27405
821.026	27370
821.167	27359
821.307	27412
821.447	27302
821.588	27199
821.728	27195
821.868	26952
822.008	26975
822.149	26807
822.289	26804
822.429	26556
822.569	26530
822.709	26442
822.849	26317
822.99	26225
823.13	26358
823.27	26317
823.41	26065
823.55	26024
823.69	26298
823.83	26134
823.97	26058
824.11	25890
824.25	25887
824.389	25982
824.529	26058
824.669	25974
824.809	26012
824.949	25940
825.089	26142
825.228	26103
825.368	25681
825.508	25879
825.648	25894
825.787	25845
825.927	25849
826.067	25909
826.206	25761
826.346	25856
826.485	25913
826.625	25868
826.765	25921
826.904	25921
827.044	25578
827.183	25632
827.323	25559
827.462	25521
827.601	25586
827.741	25521
827.88	25708
828.02	25479
828.159	25533
828.298	25525
828.437	25693
828.577	25548
828.716	25632
828.855	25491
828.994	25289
829.134	25198
829.273	25343
829.412	25324
829.551	25266
829.69	25430
829.829	25270
829.968	25358
830.107	25320
830.246	25278
830.385	25236
830.524	25259
830.663	25133
830.802	25012
830.941	24871
831.08	24905
831.219	25065
831.357	24844
831.496	25107
831.635	24951
831.774	24787
831.913	24844
832.051	24760
832.19	24604
832.329	24612
832.467	24471
832.606	24582
832.744	24608
832.883	24570
833.022	24502
833.16	24486
833.299	24475
833.437	24566
833.576	24612
833.714	24631
833.852	24768
833.991	24859
834.129	24673
834.267	24658
834.406	24585
834.544	24563
834.682	24760
834.821	24601
834.959	24787
835.097	24582
835.235	24719
835.373	24521
835.511	24623
835.65	24544
835.788	24471
835.926	24445
836.064	24342
836.202	24334
836.34	24475
836.478	24563
836.615	24308
836.753	24585
836.891	24555
837.029	24582
837.167	24376
837.305	24353
837.443	24483
837.58	24353
837.718	24380
837.856	24258
837.993	24266
838.131	24289
838.269	24220
838.406	24224
838.544	24220
838.681	23969
838.819	24026
838.956	23828
839.094	23912
839.231	23794
839.369	23931
839.506	24201
839.643	24110
839.781	23817
839.918	23779
840.055	23737
840.193	23672
840.33	23748
840.467	23718
840.604	23828
840.742	24018
840.879	23497
841.016	23600
841.153	23672
841.29	23737
841.427	23665
841.564	23752
841.701	23745
841.838	23657
841.975	23615
842.112	23668
842.249	23543
842.385	23482
842.522	23748
842.659	23478
842.796	23524
842.933	23429
843.069	23452
843.206	23364
843.343	23573
843.479	23463
843.616	23547
843.752	23242
843.889	23273
844.025	23318
844.162	23277
844.298	23421
844.435	23246
844.571	23311
844.708	23299
844.844	23406
844.98	23387
845.117	23474
845.253	23174
845.389	23083
845.525	23216
845.661	23090
845.798	22923
845.934	23029
846.07	22949
846.206	22961
846.342	23044
846.478	22946
846.614	22733
846.75	22744
846.886	22660
847.022	22774
847.158	22702
847.294	22615
847.429	22656
847.565	22805
847.701	22908
847.837	22390
847.972	22443
848.108	22535
848.244	22356
848.379	22310
848.515	22333
848.65	22375
848.786	22337
848.921	22344
849.057	22394
849.192	22295
849.328	22348
849.463	22314
849.598	22105
849.734	22139
849.869	22150
850.004	22017
850.14	22086
850.275	22063
850.41	21907
850.545	21930
850.68	22139
850.815	22074
850.95	22109
851.085	22257
851.22	22124
851.355	22154
851.49	22021
851.625	22055
851.76	21987
851.895	21953
852.03	21964
852.165	22040
852.299	22097
852.434	22029
852.569	22090
852.703	22101
852.838	22082
852.973	22356
853.107	22249
853.242	22078
853.376	21903
853.511	21690
853.645	21816
853.78	22002
853.914	21987
854.048	21888
854.183	21895
854.317	21922
854.451	21911
854.585	21884
854.72	21778
854.854	21892
854.988	21831
855.122	21869
855.256	21751
855.39	21812
855.524	22010
855.658	21949
855.792	21888
855.926	21911
856.06	21972
856.194	22025
856.327	21899
856.461	21736
856.595	21819
856.729	21865
856.862	21956
856.996	21869
857.13	22017
857.263	21903
857.397	21994
857.53	21937
857.664	21930
857.797	21945
857.931	21949
858.064	21895
858.197	21998
858.331	21819
858.464	21892
858.597	21827
858.731	21880
858.864	21812
858.997	21960
859.13	21846
859.263	21827
859.396	22036
859.529	21793
859.662	21850
859.795	21903
859.928	21892
860.061	22120
860.194	22090
860.327	21899
860.46	21869
860.592	22010
860.725	21956
860.858	22013
860.99	21994
861.123	21800
861.256	21949
861.388	21972
861.521	22653
861.653	21682
861.786	21720
861.918	21724
862.05	21827
862.183	21865
862.315	21869
862.447	21926
862.58	21827
862.712	21603
862.844	21629
862.976	21675
863.108	21728
863.24	22055
863.372	21545
863.504	21420
863.636	21564
863.768	21637
863.9	21599
864.032	21553
864.164	21523
864.296	21622
864.428	21671
864.559	21633
864.691	21614
864.823	21492
864.954	21500
865.086	21538
865.217	21568
865.349	21496
865.48	21469
865.612	21428
865.743	21606
865.875	21572
866.006	21481
866.137	21488
866.269	21450
866.4	21515
866.531	21367
866.662	21344
866.793	21351
866.924	21443
867.055	21428
867.186	21386
867.317	21355
867.448	21313
867.579	21435
867.71	21306
867.841	21264
867.972	21523
868.103	21401
868.233	21374
868.364	21458
868.495	21488
868.625	21755
868.756	21762
868.886	21530
869.017	21553
869.147	21736
869.278	21739
869.408	21694
869.539	21698
869.669	21690
869.799	21770
869.929	21774
870.06	21728
870.19	21941
870.32	21994
870.45	21899
870.58	22090
870.71	22074
870.84	22154
870.97	22063
871.1	22040
871.23	22188
871.36	22188
871.489	22177
871.619	22150
871.749	22211
871.879	22215
872.008	22306
872.138	22257
872.267	22211
872.397	22082
872.526	22025
872.656	22169
872.785	22048
872.915	22318
873.044	22367
873.173	22276
873.303	22234
873.432	22192
873.561	22341
873.69	22268
873.819	22166
873.948	22295
874.077	22253
874.206	22219
874.335	22211
874.464	22299
874.593	22557
874.722	22531
874.851	22504
874.979	22596
875.108	22478
875.237	22466
875.365	22402
875.494	22398
875.623	22531
875.751	22314
875.88	22417
876.008	22592
876.136	22771
876.265	22790
876.393	23056
876.521	22999
876.65	22961
876.778	22809
876.906	22649
877.034	22748
877.162	22801
877.29	22706
877.418	22763
877.546	22797
877.674	22831
877.802	22755
877.93	22702
878.058	22786
878.185	22733
878.313	22748
878.441	22725
878.568	22744
878.696	22641
878.824	22850
878.951	22847
879.079	22949
879.206	23174
879.333	22968
879.461	22858
879.588	22923
879.715	22995
879.842	23147
879.97	22900
880.097	22748
880.224	22653
880.351	22622
880.478	22660
880.605	22653
880.732	22637
880.859	22858
880.986	22622
881.112	22691
881.239	22485
881.366	22337
881.493	22352
881.619	22181
881.746	22299
881.872	22295
881.999	22010
882.125	22147
882.252	22246
882.378	22109
882.505	22230
882.631	22002
882.757	21827
882.883	22109
883.01	21888
883.136	21816
883.262	21755
883.388	21671
883.514	21846
883.64	21865
883.766	22059
883.892	21690
884.018	21660
884.143	21823
884.269	21915
884.395	21622
884.52	21523
884.646	21553
884.772	21500
884.897	21447
885.023	21534
885.148	21572
885.274	21732
885.399	21572
885.524	21549
885.65	21682
885.775	21553
885.9	21511
886.025	21545
886.15	21542
886.275	21435
886.4	21424
886.525	21504
886.65	21496
886.775	21401
886.9	21629
887.025	21789
887.149	21545
887.274	21332
887.399	21310
887.523	21325
887.648	21279
887.773	21203
887.897	21344
888.021	21393
888.146	21222
888.27	21389
888.395	21519
888.519	21439
888.643	21351
888.767	21336
888.891	21272
889.015	21150
889.139	21237
889.263	21093
889.387	21154
889.511	21325
889.635	21169
889.759	20967
889.883	20979
890.006	21074
890.13	21222
890.254	21062
890.377	21070
890.501	20864
890.624	20765
890.748	20853
890.871	20727
890.995	20636
891.118	20590
891.241	20621
891.364	20682
891.488	20823
891.611	20648
891.734	20670
891.857	20693
891.98	20746
892.103	20617
892.226	20724
892.349	20632
892.471	20381
892.594	20564
892.717	20609
892.839	20522
892.962	20541
893.085	20640
893.207	20446
893.33	20454
893.452	20526
893.575	20606
893.697	20476
893.819	20701
893.941	20667
894.064	20716
894.186	20511
894.308	20339
894.43	20609
894.552	20724
894.674	20526
894.796	20492
894.918	20518
895.04	20450
895.161	20499
895.283	20484
895.405	20549
895.526	20583
895.648	20446
895.769	20583
895.891	20537
896.012	20640
896.134	20571
896.255	20621
896.376	20450
896.498	20469
896.619	20560
896.74	20499
896.861	20507
896.982	20773
897.103	20933
897.224	20758
897.345	20781
897.466	20651
897.587	20640
897.708	20868
897.828	20804
897.949	20769
898.07	20549
898.19	20663
898.311	20842
898.431	20621
898.552	20739
898.672	20826
898.792	20720
898.913	20781
899.033	20571
899.153	20571
899.273	20457
899.393	20480
899.513	20450
899.633	20469
899.753	20514
899.873	20396
899.993	20446
900.113	20396
900.232	20552
900.352	20305
900.472	20332
900.591	20081
900.711	20290
900.83	20046
900.95	20191
901.069	20336
901.189	20081
901.308	19833
901.427	19822
901.546	19837
901.665	19909
901.784	19799
901.904	19674
902.023	19514
902.141	19453
902.26	19453
902.379	19468
902.498	19339
902.617	19259
902.735	19400
902.854	19335
902.973	19221
903.091	18985
903.21	18985
903.328	19042
903.446	18810
903.565	18852
903.683	18840
903.801	18665
903.919	18738
904.038	18715
904.156	18582
904.274	18517
904.392	18506
904.51	18612
904.627	18540
904.745	18597
904.863	18589
904.981	18388
905.098	18277
905.216	18140
905.334	18220
905.451	18270
905.569	18239
905.686	18327
905.803	18239
905.921	18087
906.038	18140
906.155	18064
906.272	17874
906.389	17988
906.506	17874
906.623	17760
906.74	17840
906.857	17638
906.974	17707
907.091	17760
907.208	17923
907.324	17737
907.441	17615
907.557	17547
907.674	17577
907.79	17425
907.907	17379
908.023	17459
908.139	17421
908.256	17326
908.372	17406
908.488	17368
908.604	17239
908.72	17250
908.836	17155
908.952	17212
909.068	17239
909.184	17280
909.3	17185
909.415	17181
909.531	17208
909.647	16873
909.762	16942
909.878	16900
909.993	16858
910.108	16854
910.224	16889
910.339	16915
910.454	16828
910.57	16672
910.685	16755
910.8	16869
910.915	16858
911.03	16683
911.145	16588
911.259	16489
911.374	16569
911.489	16348
911.604	16325
911.718	16188
911.833	16352
911.947	16181
912.062	16029
912.176	16211
912.291	16276
912.405	16246
912.519	16432
912.633	16363
912.748	16226
912.862	16181
912.976	16048
913.09	16017
913.204	16025
913.318	16032
913.431	16154
913.545	16139
913.659	16124
913.772	15979
913.886	15827
914	15835
914.113	15838
914.226	15907
914.34	15979
914.453	15739
914.566	15892
914.68	15694
914.793	15641
914.906	15450
915.019	15515
915.132	15408
915.245	15408
915.358	15420
915.47	15469
915.583	15428
915.696	15420
915.809	15553
915.921	15637
916.034	15378
916.146	15397
916.259	15336
916.371	15523
916.483	15348
916.595	15272
916.708	15298
916.82	15272
916.932	15146
917.044	15268
917.156	15268
917.268	15154
917.38	15013
917.491	15032
917.603	15024
917.715	15161
917.826	15119
917.938	14982
918.049	14845
918.161	14914
918.272	15154
918.384	15272
918.495	15009
918.606	14979
918.717	14705
918.828	14842
918.939	14853
919.05	14746
919.161	14788
919.272	14564
919.383	14705
919.494	14891
919.604	15081
919.715	14720
919.826	14712
919.936	14804
920.047	14724
920.157	14731
920.267	15005
920.378	14750
920.488	14796
920.598	14944
920.708	15081
920.818	14826
920.928	14872
921.038	15024
921.148	15001
921.258	14762
921.368	14613
921.477	14495
921.587	14549
921.697	14396
921.806	14507
921.916	14351
922.025	14180
922.134	14233
922.244	14035
922.353	14202
922.462	14012
922.571	13955
922.68	13750
922.789	13799
922.898	13845
923.007	13765
923.116	13772
923.224	13696
923.333	13704
923.442	13708
923.55	13677
923.659	13594
923.767	13670
923.876	13582
923.984	13651
924.092	13460
924.201	13586
924.309	13525
924.417	13491
924.525	13464
924.633	13400
924.741	14454
924.849	13266
924.956	13388
925.064	13209
925.172	13137
925.279	13164
925.387	13152
925.494	13187
925.602	13343
925.709	13202
925.816	13015
925.924	13103
926.031	13202
926.138	13190
926.245	13126
926.352	13053
926.459	13076
926.566	13225
926.673	13080
926.779	12935
926.886	12878
926.993	12844
927.099	12711
927.206	12734
927.312	12703
927.419	12791
927.525	12703
927.631	12745
927.737	12722
927.843	12566
927.95	12456
928.056	12582
928.162	12589
928.267	12677
928.373	13327
928.479	12631
928.585	12410
928.69	12547
928.796	12593
928.901	12448
929.007	12304
929.112	12498
929.218	12399
929.323	12327
929.428	12235
929.533	12376
929.638	12194
929.743	12243
929.848	12281
929.953	12167
930.058	12152
930.163	11939
930.267	11961
930.372	12129
930.477	11980
930.581	12186
930.685	12007
930.79	11786
930.894	11885
930.998	11802
931.103	11950
931.207	11558
931.311	11452
931.415	11455
931.519	11258
931.623	11239
