Data from test_V78500241_1743.txt Node
Date: Fri Mar 25 15:21:59 CST 2022
User: usil
Spectrometer: V785-0024
Trigger mode: 0
Integration Time (sec): 4.000000E-1
Scans to average: 1
Nonlinearity correction enabled: false
Boxcar width: 0
Storing dark spectrum: false
XAxis mode: Wavelengths
Number of Pixels in Spectrum: 1024
>>>>>Begin Spectral Data<<<<<
801.071	27709
801.214	27724
801.356	27310
801.499	27283
801.641	27291
801.783	27382
801.926	27272
802.068	27332
802.211	27192
802.353	27135
802.496	27028
802.638	26979
802.78	26830
802.923	26937
803.065	26834
803.208	26804
803.35	26868
803.492	27047
803.635	27138
803.777	26864
803.919	27112
804.061	27485
804.204	27169
804.346	27005
804.488	26914
804.63	27058
804.773	27047
804.915	27077
805.057	27108
805.199	27142
805.341	27142
805.483	27260
805.626	27146
805.768	27077
805.91	27294
806.052	27173
806.194	27161
806.336	27466
806.478	27355
806.62	27249
806.762	27405
806.904	27351
807.046	27648
807.188	27694
807.33	27644
807.472	27660
807.614	27595
807.756	27641
807.898	27485
808.04	27405
808.182	27519
808.324	27507
808.465	27519
808.607	27625
808.749	27785
808.891	27895
809.033	27869
809.174	27835
809.316	27823
809.458	27922
809.6	27964
809.741	27892
809.883	27934
810.025	28169
810.166	28002
810.308	28063
810.45	28101
810.591	27964
810.733	27812
810.875	27850
811.016	27637
811.158	27724
811.299	27926
811.441	28051
811.582	28059
811.724	27854
811.865	27793
812.007	27804
812.148	27968
812.29	27922
812.431	27941
812.573	28226
812.714	28284
812.855	28253
812.997	28489
813.138	28687
813.279	28409
813.421	28276
813.562	28337
813.703	28154
813.845	27941
813.986	27804
814.127	27705
814.268	27431
814.41	27686
814.551	27477
814.692	27644
814.833	27481
814.974	27511
815.115	27450
815.256	27389
815.397	27416
815.539	27386
815.68	27313
815.821	27378
815.962	27264
816.103	27287
816.244	27074
816.385	27226
816.526	27138
816.666	26785
816.807	26811
816.948	26960
817.089	26925
817.23	26834
817.371	26921
817.512	26830
817.653	26906
817.793	26731
817.934	26769
818.075	26914
818.216	26864
818.356	26811
818.497	26651
818.638	26537
818.778	26667
818.919	26636
819.06	26602
819.2	26701
819.341	26830
819.481	26785
819.622	26967
819.762	27039
819.903	27058
820.043	26994
820.184	26864
820.324	26960
820.465	27032
820.605	26857
820.746	26781
820.886	26788
821.026	26918
821.167	26834
821.307	26944
821.447	26682
821.588	26804
821.728	26689
821.868	26431
822.008	26214
822.149	26324
822.289	26225
822.429	26062
822.569	25982
822.709	26027
822.849	25814
822.99	25731
823.13	25712
823.27	25826
823.41	25525
823.55	25590
823.69	25533
823.83	25643
823.97	25548
824.11	25449
824.25	25453
824.389	25506
824.529	25419
824.669	25540
824.809	25582
824.949	25464
825.089	25559
825.228	25453
825.368	25240
825.508	25304
825.648	25343
825.787	25266
825.927	25335
826.067	25441
826.206	25285
826.346	25228
826.485	25362
826.625	25194
826.765	25247
826.904	25339
827.044	25069
827.183	25088
827.323	24977
827.462	25076
827.601	25061
827.741	25000
827.88	25190
828.02	24985
828.159	25019
828.298	25019
828.437	25175
828.577	24871
828.716	25057
828.855	24970
828.994	24677
829.134	24574
829.273	24852
829.412	24627
829.551	24608
829.69	24753
829.829	24753
829.968	24817
830.107	24749
830.246	24700
830.385	24726
830.524	24722
830.663	24536
830.802	24597
830.941	24319
831.08	24285
831.219	24399
831.357	24471
831.496	24593
831.635	24437
831.774	24209
831.913	24342
832.051	24026
832.19	24114
832.329	24186
832.467	24007
832.606	23954
832.744	24030
832.883	23950
833.022	23980
833.16	24007
833.299	24152
833.437	24011
833.576	24144
833.714	24083
833.852	24163
833.991	24117
834.129	24163
834.267	24152
834.406	24155
834.544	24087
834.682	24007
834.821	24083
834.959	24209
835.097	23950
835.235	24129
835.373	24140
835.511	24091
835.65	23878
835.788	24068
835.926	23634
836.064	23729
836.202	23813
836.34	23824
836.478	23946
836.615	23843
836.753	23885
836.891	24068
837.029	24018
837.167	23927
837.305	23802
837.443	23802
837.58	23843
837.718	23874
837.856	23866
837.993	23760
838.131	23821
838.269	23653
838.406	23718
838.544	23531
838.681	23414
838.819	23330
838.956	23349
839.094	23269
839.231	23273
839.369	23452
839.506	23570
839.643	23596
839.781	23170
839.918	23079
840.055	23189
840.193	23235
840.33	23155
840.467	23246
840.604	22976
840.742	23292
840.879	23025
841.016	23041
841.153	23060
841.29	23227
841.427	23098
841.564	23113
841.701	23056
841.838	23064
841.975	22991
842.112	23071
842.249	23018
842.385	22805
842.522	23117
842.659	22927
842.796	22805
842.933	23071
843.069	22858
843.206	22938
843.343	22869
843.479	22949
843.616	22911
843.752	22691
843.889	22710
844.025	22835
844.162	22672
844.298	22752
844.435	22717
844.571	22645
844.708	22660
844.844	22938
844.98	22786
845.117	22752
845.253	22527
845.389	22656
845.525	22641
845.661	22352
845.798	22375
845.934	22428
846.07	22421
846.206	22523
846.342	22535
846.478	22333
846.614	22261
846.75	22055
846.886	22078
847.022	22276
847.158	22242
847.294	22303
847.429	22147
847.565	22200
847.701	22367
847.837	21983
847.972	21884
848.108	21937
848.244	21918
848.379	21827
848.515	21690
848.65	21717
848.786	21709
848.921	21751
849.057	21831
849.192	21949
849.328	21705
849.463	21728
849.598	21698
849.734	21583
849.869	21595
850.004	21572
850.14	21534
850.275	21572
850.41	21454
850.545	21291
850.68	21557
850.815	21534
850.95	21538
851.085	21724
851.22	21568
851.355	21622
851.49	21542
851.625	21557
851.76	21412
851.895	21606
852.03	21408
852.165	21473
852.299	21466
852.434	21435
852.569	21614
852.703	21568
852.838	21583
852.973	21797
853.107	21713
853.242	21504
853.376	21412
853.511	21256
853.645	21348
853.78	21496
853.914	21359
854.048	21382
854.183	21218
854.317	21382
854.451	21572
854.585	21435
854.72	21306
854.854	21458
854.988	21389
855.122	21252
855.256	21214
855.39	21325
855.524	21405
855.658	21287
855.792	21359
855.926	21431
856.06	21370
856.194	21382
856.327	21294
856.461	21294
856.595	21245
856.729	21260
856.862	21534
856.996	21424
857.13	21439
857.263	21477
857.397	21428
857.53	21378
857.664	21370
857.797	21496
857.931	21386
858.064	21336
858.197	21447
858.331	21260
858.464	21329
858.597	21370
858.731	21294
858.864	21291
858.997	21351
859.13	21298
859.263	21348
859.396	21374
859.529	21332
859.662	21321
859.795	21245
859.928	21435
860.061	21420
860.194	21523
860.327	21420
860.46	21336
860.592	21435
860.725	21454
860.858	21504
860.99	21302
861.123	21268
861.256	21428
861.388	21332
861.521	22120
861.653	21203
861.786	21146
861.918	21249
862.05	21226
862.183	21336
862.315	21237
862.447	21370
862.58	21241
862.712	21165
862.844	21074
862.976	21154
863.108	21009
863.24	21454
863.372	21058
863.504	21043
863.636	21055
863.768	21020
863.9	21013
864.032	21013
864.164	20944
864.296	21058
864.428	21142
864.559	21036
864.691	21020
864.823	20971
864.954	21005
865.086	21058
865.217	20979
865.349	20910
865.48	21062
865.612	20921
865.743	21051
865.875	20941
866.006	20933
866.137	20937
866.269	21001
866.4	20975
866.531	20971
866.662	20849
866.793	20914
866.924	20826
867.055	20979
867.186	20910
867.317	20982
867.448	20804
867.579	20876
867.71	20785
867.841	20640
867.972	20880
868.103	20872
868.233	20826
868.364	20895
868.495	21001
868.625	21077
868.756	21180
868.886	20960
869.017	21131
869.147	21218
869.278	21287
869.408	21165
869.539	21142
869.669	21233
869.799	21245
869.929	21203
870.06	21214
870.19	21504
870.32	21283
870.45	21511
870.58	21523
870.71	21587
870.84	21534
870.97	21583
871.1	21454
871.23	21656
871.36	21625
871.489	21633
871.619	21816
871.749	21686
871.879	21846
872.008	21975
872.138	21667
872.267	21690
872.397	21637
872.526	21599
872.656	21538
872.785	21420
872.915	21717
873.044	21819
873.173	21622
873.303	21816
873.432	21884
873.561	21846
873.69	21701
873.819	21694
873.948	21915
874.077	21770
874.206	21679
874.335	21644
874.464	21854
874.593	22040
874.722	21880
874.851	21934
874.979	22063
875.108	21987
875.237	21998
875.365	21812
875.494	21945
875.623	22029
875.751	22040
875.88	22055
876.008	22143
876.136	22265
876.265	22409
876.393	22481
876.521	22424
876.65	22417
876.778	22375
876.906	22265
877.034	22246
877.162	22291
877.29	22192
877.418	22363
877.546	22432
877.674	22424
877.802	22394
877.93	22299
878.058	22261
878.185	22048
878.313	22242
878.441	22333
878.568	22105
878.696	22242
878.824	22409
878.951	22386
879.079	22523
879.206	22630
879.333	22322
879.461	22398
879.588	22405
879.715	22573
879.842	22698
879.97	22527
880.097	22097
880.224	22120
880.351	22226
880.478	22131
880.605	22196
880.732	22166
880.859	22287
880.986	22105
881.112	22158
881.239	22097
881.366	21873
881.493	21816
881.619	21774
881.746	21720
881.872	21759
881.999	21720
882.125	21603
882.252	21797
882.378	21656
882.505	21774
882.631	21530
882.757	21317
882.883	21530
883.01	21351
883.136	21401
883.262	21393
883.388	21260
883.514	21424
883.64	21462
883.766	21264
883.892	21154
884.018	21066
884.143	21359
884.269	21374
884.395	21180
884.52	21062
884.646	20925
884.772	21047
884.897	20994
885.023	21104
885.148	21252
885.274	21123
885.399	21135
885.524	21070
885.65	20975
885.775	21066
885.9	20956
886.025	21146
886.15	21157
886.275	20952
886.4	20914
886.525	21089
886.65	20876
886.775	20994
886.9	21203
887.025	21317
887.149	21100
887.274	20864
887.399	20632
887.523	20853
887.648	20796
887.773	20754
887.897	20773
888.021	20914
888.146	20777
888.27	20781
888.395	20845
888.519	20910
888.643	20872
888.767	20944
888.891	20796
889.015	20636
889.139	20648
889.263	20629
889.387	20762
889.511	20845
889.635	20708
889.759	20674
889.883	20598
890.006	20636
890.13	20746
890.254	20705
890.377	20522
890.501	20267
890.624	20221
890.748	20431
890.871	20278
890.995	20115
891.118	20062
891.241	20336
891.364	20187
891.488	20301
891.611	20202
891.734	20271
891.857	20240
891.98	20183
892.103	20176
892.226	20233
892.349	20077
892.471	19898
892.594	20206
892.717	20084
892.839	20138
892.962	20054
893.085	20084
893.207	20065
893.33	19982
893.452	19974
893.575	20187
893.697	20206
893.819	20176
893.941	20271
894.064	20210
894.186	20043
894.308	19944
894.43	20111
894.552	20256
894.674	20096
894.796	20012
894.918	20054
895.04	19989
895.161	20153
895.283	20077
895.405	20077
895.526	20024
895.648	20107
895.769	20164
895.891	20183
896.012	20195
896.134	20221
896.255	20107
896.376	20024
896.498	19982
896.619	20111
896.74	20100
896.861	20176
896.982	20301
897.103	20625
897.224	20305
897.345	20328
897.466	20149
897.587	20328
897.708	20484
897.828	20366
897.949	20355
898.07	20157
898.19	20313
898.311	20408
898.431	20278
898.552	20233
898.672	20263
898.792	20259
898.913	20275
899.033	20119
899.153	20218
899.273	19951
899.393	19925
899.513	20126
899.633	20024
899.753	20084
899.873	20062
899.993	20001
900.113	19932
900.232	19940
900.352	19883
900.472	19936
900.591	19883
900.711	19883
900.83	19830
900.95	19936
901.069	19967
901.189	19613
901.308	19464
901.427	19506
901.546	19483
901.665	19472
901.784	19464
901.904	19324
902.023	19209
902.141	19038
902.26	18973
902.379	18928
902.498	18920
902.617	18954
902.735	18947
902.854	19065
902.973	18882
903.091	18639
903.21	18612
903.328	18471
903.446	18460
903.565	18429
903.683	18494
903.801	18304
903.919	18346
904.038	18224
904.156	18163
904.274	18239
904.392	18190
904.51	18114
904.627	18163
904.745	18194
904.863	18235
904.981	17908
905.098	17840
905.216	17847
905.334	17756
905.451	17794
905.569	17805
905.686	17737
905.803	17798
905.921	17661
906.038	17783
906.155	17619
906.272	17501
906.389	17589
906.506	17486
906.623	17376
906.74	17463
906.857	17288
906.974	17364
907.091	17467
907.208	17429
907.324	17334
907.441	17261
907.557	17170
907.674	17102
907.79	17041
907.907	17143
908.023	17151
908.139	17147
908.256	16999
908.372	17018
908.488	16957
908.604	16793
908.72	16793
908.836	16744
908.952	16850
909.068	16976
909.184	16984
909.3	16797
909.415	16866
909.531	16881
909.647	16615
909.762	16626
909.878	16519
909.993	16554
910.108	16489
910.224	16432
910.339	16478
910.454	16413
910.57	16371
910.685	16333
910.8	16497
910.915	16405
911.03	16207
911.145	16192
911.259	16131
911.374	16147
911.489	16131
911.604	16067
911.718	15892
911.833	15895
911.947	15739
912.062	15713
912.176	15785
912.291	15800
912.405	15884
912.519	16017
912.633	16105
912.748	15926
912.862	15816
912.976	15709
913.09	15530
913.204	15599
913.318	15728
913.431	15751
913.545	15720
913.659	15804
913.772	15728
913.886	15458
914	15492
914.113	15580
914.226	15462
914.34	15485
914.453	15291
914.566	15488
914.68	15355
914.793	15249
914.906	15214
915.019	15070
915.132	15055
915.245	15062
915.358	15100
915.47	15032
915.583	15131
915.696	15131
915.809	15161
915.921	15169
916.034	15051
916.146	15039
916.259	14956
916.371	14998
916.483	15020
916.595	14956
916.708	14861
916.82	14956
916.932	14842
917.044	14853
917.156	14765
917.268	14731
917.38	14769
917.491	14735
917.603	14796
917.715	14864
917.826	14834
917.938	14705
918.049	14663
918.161	14708
918.272	14781
918.384	14845
918.495	14746
918.606	14473
918.717	14454
918.828	14446
918.939	14480
919.05	14434
919.161	14492
919.272	14317
919.383	14427
919.494	14526
919.604	14682
919.715	14450
919.826	14408
919.936	14503
920.047	14461
920.157	14419
920.267	14712
920.378	14514
920.488	14408
920.598	14640
920.708	14731
920.818	14598
920.928	14514
921.038	14777
921.148	14716
921.258	14442
921.368	14389
921.477	14252
921.587	14157
921.697	14107
921.806	14259
921.916	14027
922.025	13955
922.134	13818
922.244	13788
922.353	13871
922.462	13616
922.571	13670
922.68	13529
922.789	13510
922.898	13544
923.007	13480
923.116	13544
923.224	13453
923.333	13480
923.442	13274
923.55	13426
923.659	13270
923.767	13331
923.876	13251
923.984	13320
924.092	13209
924.201	13282
924.309	13194
924.417	13236
924.525	13160
924.633	13065
924.741	13913
924.849	12966
924.956	13095
925.064	12947
925.172	12943
925.279	12848
925.387	12920
925.494	12905
925.602	13015
925.709	12817
925.816	12806
925.924	12837
926.031	12970
926.138	12821
926.245	12856
926.352	12692
926.459	12901
926.566	12882
926.673	12776
926.779	12772
926.886	12703
926.993	12509
927.099	12490
927.206	12426
927.312	12399
927.419	12479
927.525	12506
927.631	12506
927.737	12361
927.843	12315
927.95	12251
928.056	12239
928.162	12289
928.267	12353
928.373	12875
928.479	12361
928.585	12144
928.69	12308
928.796	12350
928.901	12155
929.007	12060
929.112	12182
929.218	12060
929.323	12034
929.428	11950
929.533	12148
929.638	12057
929.743	11946
929.848	11973
929.953	12038
930.058	11931
930.163	11665
930.267	11661
930.372	11859
930.477	11566
930.581	11828
930.685	11779
930.79	11627
930.894	11615
930.998	11493
931.103	11756
931.207	11368
931.311	11239
931.415	11140
931.519	11029
931.623	10919
