Data from test_V78500241_1423.txt Node
Date: Fri Mar 25 15:19:45 CST 2022
User: usil
Spectrometer: V785-0024
Trigger mode: 0
Integration Time (sec): 4.000000E-1
Scans to average: 1
Nonlinearity correction enabled: false
Boxcar width: 0
Storing dark spectrum: false
XAxis mode: Wavelengths
Number of Pixels in Spectrum: 1024
>>>>>Begin Spectral Data<<<<<
801.071	28105
801.214	27926
801.356	27709
801.499	27614
801.641	27431
801.783	27393
801.926	27538
802.068	27530
802.211	27469
802.353	27363
802.496	27096
802.638	27222
802.78	27135
802.923	27093
803.065	27188
803.208	27100
803.35	27169
803.492	27310
803.635	27348
803.777	27332
803.919	27268
804.061	27564
804.204	27515
804.346	27321
804.488	27329
804.63	27268
804.773	27233
804.915	27397
805.057	27367
805.199	27401
805.341	27473
805.483	27401
805.626	27511
805.768	27405
805.91	27534
806.052	27424
806.194	27454
806.336	27572
806.478	27450
806.62	27492
806.762	27701
806.904	27838
807.046	27892
807.188	27800
807.33	27861
807.472	27899
807.614	27774
807.756	27808
807.898	27785
808.04	27736
808.182	27622
808.324	27842
808.465	27823
808.607	27884
808.749	28067
808.891	28291
809.033	28192
809.174	28200
809.316	28234
809.458	28078
809.6	28200
809.741	28390
809.883	28325
810.025	28478
810.166	28481
810.308	28341
810.45	28428
810.591	28337
810.733	28120
810.875	28169
811.016	28044
811.158	27926
811.299	28303
811.441	28348
811.582	28382
811.724	28120
811.865	28109
812.007	28036
812.148	28086
812.29	28128
812.431	28371
812.573	28599
812.714	28588
812.855	28725
812.997	28744
813.138	28854
813.279	28778
813.421	28725
813.562	28607
813.703	28557
813.845	28356
813.986	28036
814.127	27975
814.268	27743
814.41	27850
814.551	27892
814.692	27770
814.833	27576
814.974	27800
815.115	27797
815.256	27625
815.397	27736
815.539	27717
815.68	27606
815.821	27576
815.962	27667
816.103	27728
816.244	27511
816.385	27405
816.526	27283
816.666	27195
816.807	27135
816.948	27252
817.089	27275
817.23	27173
817.371	27055
817.512	27184
817.653	27329
817.793	26967
817.934	27028
818.075	27081
818.216	27116
818.356	27047
818.497	27043
818.638	26830
818.778	26804
818.919	26811
819.06	26849
819.2	27024
819.341	27096
819.481	27131
819.622	27256
819.762	27447
819.903	27249
820.043	27374
820.184	27157
820.324	27154
820.465	27279
820.605	27241
820.746	27066
820.886	27070
821.026	27214
821.167	27001
821.307	27093
821.447	27070
821.588	26975
821.728	26781
821.868	26659
822.008	26488
822.149	26609
822.289	26587
822.429	26320
822.569	26187
822.709	26202
822.849	26012
822.99	26119
823.13	26088
823.27	25917
823.41	25887
823.55	25681
823.69	25997
823.83	25951
823.97	25784
824.11	25670
824.25	25586
824.389	25700
824.529	25757
824.669	25719
824.809	25887
824.949	25799
825.089	25909
825.228	25757
825.368	25662
825.508	25472
825.648	25575
825.787	25567
825.927	25609
826.067	25605
826.206	25575
826.346	25624
826.485	25700
826.625	25457
826.765	25632
826.904	25727
827.044	25468
827.183	25346
827.323	25190
827.462	25392
827.601	25285
827.741	25297
827.88	25373
828.02	25190
828.159	25327
828.298	25320
828.437	25419
828.577	25141
828.716	25377
828.855	25301
828.994	24977
829.134	24935
829.273	25034
829.412	24920
829.551	24897
829.69	24928
829.829	24909
829.968	25133
830.107	25015
830.246	25069
830.385	24856
830.524	24932
830.663	24878
830.802	24734
830.941	24593
831.08	24540
831.219	24677
831.357	24616
831.496	24753
831.635	24578
831.774	24525
831.913	24464
832.051	24350
832.19	24304
832.329	24338
832.467	24388
832.606	24262
832.744	24216
832.883	24213
833.022	24254
833.16	24182
833.299	24235
833.437	24327
833.576	24369
833.714	24239
833.852	24414
833.991	24346
834.129	24471
834.267	24505
834.406	24338
834.544	24403
834.682	24342
834.821	24273
834.959	24350
835.097	24224
835.235	24327
835.373	24350
835.511	24258
835.65	24110
835.788	24186
835.926	23958
836.064	24030
836.202	24003
836.34	24178
836.478	24216
836.615	24079
836.753	24095
836.891	24220
837.029	24064
837.167	24079
837.305	24129
837.443	23954
837.58	23901
837.718	23992
837.856	24144
837.993	23870
838.131	23931
838.269	23866
838.406	23908
838.544	23676
838.681	23535
838.819	23653
838.956	23425
839.094	23436
839.231	23425
839.369	23661
839.506	23889
839.643	23600
839.781	23391
839.918	23383
840.055	23444
840.193	23440
840.33	23516
840.467	23391
840.604	23512
840.742	23562
840.879	23185
841.016	23174
841.153	23250
841.29	23440
841.427	23250
841.564	23402
841.701	23334
841.838	23349
841.975	23265
842.112	23265
842.249	23071
842.385	23200
842.522	23345
842.659	23200
842.796	23193
842.933	23105
843.069	23022
843.206	22965
843.343	23220
843.479	23212
843.616	23143
843.752	22949
843.889	22866
844.025	23041
844.162	22984
844.298	23022
844.435	22980
844.571	22812
844.708	22805
844.844	23014
844.98	23102
845.117	22892
845.253	22850
845.389	22786
845.525	22793
845.661	22748
845.798	22664
845.934	22641
846.07	22679
846.206	22596
846.342	22691
846.478	22691
846.614	22432
846.75	22265
846.886	22428
847.022	22344
847.158	22379
847.294	22428
847.429	22443
847.565	22268
847.701	22474
847.837	22169
847.972	22086
848.108	22177
848.244	22246
848.379	21949
848.515	21888
848.65	21827
848.786	21983
848.921	21998
849.057	21972
849.192	22070
849.328	21930
849.463	21873
849.598	21880
849.734	21793
849.869	21736
850.004	21656
850.14	21785
850.275	21876
850.41	21606
850.545	21561
850.68	21595
850.815	21827
850.95	21709
851.085	21926
851.22	21903
851.355	21675
851.49	21743
851.625	21667
851.76	21720
851.895	21705
852.03	21591
852.165	21679
852.299	21766
852.434	21800
852.569	21732
852.703	21610
852.838	21774
852.973	21747
853.107	21797
853.242	21698
853.376	21511
853.511	21351
853.645	21496
853.78	21766
853.914	21580
854.048	21526
854.183	21568
854.317	21580
854.451	21690
854.585	21675
854.72	21530
854.854	21698
854.988	21504
855.122	21545
855.256	21325
855.39	21466
855.524	21633
855.658	21549
855.792	21538
855.926	21504
856.06	21671
856.194	21660
856.327	21523
856.461	21359
856.595	21439
856.729	21557
856.862	21580
856.996	21557
857.13	21542
857.263	21572
857.397	21580
857.53	21504
857.664	21469
857.797	21656
857.931	21652
858.064	21481
858.197	21633
858.331	21557
858.464	21500
858.597	21420
858.731	21447
858.864	21481
858.997	21450
859.13	21599
859.263	21534
859.396	21660
859.529	21458
859.662	21389
859.795	21359
859.928	21473
860.061	21561
860.194	21751
860.327	21542
860.46	21576
860.592	21644
860.725	21778
860.858	21667
860.99	21549
861.123	21397
861.256	21386
861.388	21496
861.521	22063
861.653	21351
861.786	21176
861.918	21313
862.05	21325
862.183	21416
862.315	21420
862.447	21603
862.58	21450
862.712	21268
862.844	21222
862.976	21317
863.108	21222
863.24	21641
863.372	21085
863.504	21214
863.636	21233
863.768	21237
863.9	21184
864.032	21123
864.164	21230
864.296	21192
864.428	21302
864.559	21275
864.691	21329
864.823	21211
864.954	21184
865.086	21142
865.217	21157
865.349	21047
865.48	21173
865.612	21157
865.743	21272
865.875	21199
866.006	21135
866.137	21039
866.269	21237
866.4	20986
866.531	20986
866.662	20956
866.793	21020
866.924	21055
867.055	21093
867.186	21036
867.317	21005
867.448	20941
867.579	20963
867.71	20971
867.841	20914
867.972	21081
868.103	21055
868.233	20967
868.364	21100
868.495	21230
868.625	21150
868.756	21431
868.886	21306
869.017	21256
869.147	21386
869.278	21359
869.408	21344
869.539	21279
869.669	21424
869.799	21431
869.929	21458
870.06	21481
870.19	21595
870.32	21595
870.45	21576
870.58	21819
870.71	21747
870.84	21728
870.97	21778
871.1	21690
871.23	21793
871.36	21865
871.489	21739
871.619	21937
871.749	21953
871.879	21907
872.008	21975
872.138	21941
872.267	21812
872.397	21747
872.526	21724
872.656	21690
872.785	21831
872.915	21884
873.044	22044
873.173	21972
873.303	22006
873.432	21934
873.561	22048
873.69	21941
873.819	21838
873.948	22002
874.077	21892
874.206	21846
874.335	21873
874.464	21968
874.593	22055
874.722	22082
874.851	22204
874.979	22158
875.108	22158
875.237	21949
875.365	21895
875.494	22067
875.623	22166
875.751	22044
875.88	22188
876.008	22242
876.136	22325
876.265	22485
876.393	22706
876.521	22622
876.65	22527
876.778	22569
876.906	22455
877.034	22325
877.162	22398
877.29	22398
877.418	22424
877.546	22497
877.674	22512
877.802	22432
877.93	22557
878.058	22428
878.185	22276
878.313	22478
878.441	22379
878.568	22352
878.696	22375
878.824	22508
878.951	22470
879.079	22675
879.206	22725
879.333	22611
879.461	22607
879.588	22561
879.715	22596
879.842	22702
879.97	22512
880.097	22242
880.224	22295
880.351	22325
880.478	22188
880.605	22230
880.732	22188
880.859	22603
880.986	22185
881.112	22280
881.239	22006
881.366	21968
881.493	21918
881.619	21854
881.746	21831
881.872	21911
881.999	21823
882.125	21888
882.252	21808
882.378	21739
882.505	22002
882.631	21793
882.757	21557
882.883	21663
883.01	21515
883.136	21534
883.262	21511
883.388	21439
883.514	21587
883.64	21538
883.766	21515
883.892	21428
884.018	21386
884.143	21435
884.269	21553
884.395	21192
884.52	21096
884.646	21279
884.772	21108
884.897	21039
885.023	21260
885.148	21283
885.274	21386
885.399	21298
885.524	21222
885.65	21211
885.775	21096
885.9	21135
886.025	21256
886.15	21230
886.275	21089
886.4	21077
886.525	21100
886.65	21142
886.775	21024
886.9	21344
887.025	21321
887.149	21207
887.274	21024
887.399	21066
887.523	20921
887.648	20902
887.773	20868
887.897	20994
888.021	21001
888.146	20868
888.27	20979
888.395	21020
888.519	21108
888.643	20891
888.767	20979
888.891	20891
889.015	20807
889.139	20800
889.263	20872
889.387	20807
889.511	20941
889.635	20921
889.759	20735
889.883	20785
890.006	20670
890.13	20788
890.254	20739
890.377	20724
890.501	20473
890.624	20450
890.748	20522
890.871	20336
890.995	20301
891.118	20351
891.241	20362
891.364	20343
891.488	20457
891.611	20313
891.734	20309
891.857	20355
891.98	20298
892.103	20393
892.226	20351
892.349	20347
892.471	20172
892.594	20187
892.717	20195
892.839	20122
892.962	20324
893.085	20221
893.207	20248
893.33	20168
893.452	20134
893.575	20343
893.697	20191
893.819	20355
893.941	20393
894.064	20305
894.186	20259
894.308	20111
894.43	20206
894.552	20343
894.674	20282
894.796	20225
894.918	20218
895.04	20298
895.161	20183
895.283	20119
895.405	20263
895.526	20233
895.648	20191
895.769	20191
895.891	20187
896.012	20317
896.134	20290
896.255	20298
896.376	20195
896.498	20229
896.619	20119
896.74	20172
896.861	20298
896.982	20499
897.103	20655
897.224	20427
897.345	20377
897.466	20355
897.587	20415
897.708	20518
897.828	20415
897.949	20286
898.07	20248
898.19	20389
898.311	20461
898.431	20400
898.552	20370
898.672	20419
898.792	20438
898.913	20492
899.033	20377
899.153	20332
899.273	20115
899.393	20210
899.513	20183
899.633	20176
899.753	20172
899.873	20248
899.993	20229
900.113	20016
900.232	20176
900.352	20077
900.472	19944
900.591	19898
900.711	20012
900.83	19849
900.95	20005
901.069	20065
901.189	19833
901.308	19521
901.427	19502
901.546	19586
901.665	19468
901.784	19624
901.904	19354
902.023	19236
902.141	19084
902.26	18970
902.379	19133
902.498	19099
902.617	19012
902.735	19046
902.854	18951
902.973	18928
903.091	18749
903.21	18726
903.328	18795
903.446	18654
903.565	18555
903.683	18464
903.801	18452
903.919	18513
904.038	18437
904.156	18353
904.274	18292
904.392	18254
904.51	18285
904.627	18205
904.745	18357
904.863	18418
904.981	18068
905.098	18026
905.216	18038
905.334	18057
905.451	17885
905.569	18026
905.686	17916
905.803	17988
905.921	17729
906.038	17851
906.155	17745
906.272	17649
906.389	17790
906.506	17566
906.623	17535
906.74	17406
906.857	17421
906.974	17402
907.091	17562
907.208	17642
907.324	17467
907.441	17410
907.557	17178
907.674	17181
907.79	17124
907.907	17231
908.023	17193
908.139	17269
908.256	17064
908.372	17121
908.488	16919
908.604	17029
908.72	16915
908.836	16930
908.952	16915
909.068	16858
909.184	17060
909.3	16930
909.415	16968
909.531	16919
909.647	16694
909.762	16603
909.878	16550
909.993	16691
910.108	16607
910.224	16504
910.339	16687
910.454	16497
910.57	16405
910.685	16375
910.8	16672
910.915	16611
911.03	16413
911.145	16261
911.259	16188
911.374	16265
911.489	16090
911.604	16071
911.718	15812
911.833	16032
911.947	15964
912.062	15785
912.176	15930
912.291	15873
912.405	15956
912.519	16067
912.633	16105
912.748	16097
912.862	15869
912.976	15736
913.09	15580
913.204	15732
913.318	15728
913.431	15808
913.545	15808
913.659	15869
913.772	15766
913.886	15511
914	15530
914.113	15682
914.226	15755
914.34	15667
914.453	15564
914.566	15587
914.68	15587
914.793	15416
914.906	15336
915.019	15184
915.132	15184
915.245	15180
915.358	15214
915.47	15237
915.583	15104
915.696	15119
915.809	15363
915.921	15382
916.034	15112
916.146	15085
916.259	15043
916.371	15176
916.483	15108
916.595	14963
916.708	15024
916.82	15005
916.932	14925
917.044	14868
917.156	14948
917.268	14758
917.38	14861
917.491	14811
917.603	14853
917.715	14834
917.826	15001
917.938	14773
918.049	14659
918.161	14792
918.272	14891
918.384	14880
918.495	14883
918.606	14602
918.717	14495
918.828	14598
918.939	14602
919.05	14495
919.161	14560
919.272	14339
919.383	14412
919.494	14621
919.604	14705
919.715	14613
919.826	14552
919.936	14492
920.047	14575
920.157	14613
920.267	14648
920.378	14632
920.488	14514
920.598	14716
920.708	14891
920.818	14648
920.928	14667
921.038	14933
921.148	14686
921.258	14499
921.368	14381
921.477	14358
921.587	14313
921.697	14237
921.806	14294
921.916	14107
922.025	13917
922.134	14035
922.244	13868
922.353	14001
922.462	13757
922.571	13898
922.68	13685
922.789	13605
922.898	13533
923.007	13434
923.116	13639
923.224	13552
923.333	13578
923.442	13422
923.55	13373
923.659	13441
923.767	13518
923.876	13400
923.984	13464
924.092	13259
924.201	13358
924.309	13445
924.417	13388
924.525	13175
924.633	13255
924.741	14016
924.849	13088
924.956	13168
925.064	13099
925.172	12859
925.279	12981
925.387	12981
925.494	12954
925.602	13076
925.709	13057
925.816	12897
925.924	12920
926.031	12962
926.138	12924
926.245	12973
926.352	12791
926.459	13046
926.566	12973
926.673	12890
926.779	12688
926.886	12700
926.993	12570
927.099	12604
927.206	12513
927.312	12490
927.419	12551
927.525	12490
927.631	12426
927.737	12544
927.843	12357
927.95	12330
928.056	12334
928.162	12441
928.267	12410
928.373	12871
928.479	12513
928.585	12163
928.69	12281
928.796	12422
928.901	12171
929.007	12102
929.112	12239
929.218	12167
929.323	12220
929.428	12117
929.533	12304
929.638	12121
929.743	12045
929.848	12019
929.953	11999
930.058	11882
930.163	11840
930.267	11798
930.372	11946
930.477	11600
930.581	12015
930.685	11836
930.79	11627
930.894	11672
930.998	11600
931.103	11779
931.207	11433
931.311	11341
931.415	11223
931.519	11075
931.623	10995
