Data from test_V78500241_768.txt Node
Date: Fri Mar 25 15:15:12 CST 2022
User: usil
Spectrometer: V785-0024
Trigger mode: 0
Integration Time (sec): 4.000000E-1
Scans to average: 1
Nonlinearity correction enabled: false
Boxcar width: 0
Storing dark spectrum: false
XAxis mode: Wavelengths
Number of Pixels in Spectrum: 1024
>>>>>Begin Spectral Data<<<<<
801.071	28082
801.214	27926
801.356	27819
801.499	27663
801.641	27675
801.783	27648
801.926	27720
802.068	27625
802.211	27488
802.353	27397
802.496	27317
802.638	27249
802.78	27329
802.923	27135
803.065	27214
803.208	27310
803.35	27207
803.492	27485
803.635	27443
803.777	27321
803.919	27507
804.061	27762
804.204	27549
804.346	27424
804.488	27405
804.63	27622
804.773	27534
804.915	27310
805.057	27553
805.199	27538
805.341	27557
805.483	27682
805.626	27705
805.768	27412
805.91	27656
806.052	27595
806.194	27500
806.336	27808
806.478	27686
806.62	27576
806.762	27736
806.904	27888
807.046	27972
807.188	28025
807.33	27998
807.472	27987
807.614	28002
807.756	28173
807.898	27865
808.04	27945
808.182	27846
808.324	27911
808.465	28063
808.607	28082
808.749	28242
808.891	28367
809.033	28455
809.174	28405
809.316	28344
809.458	28188
809.6	28230
809.741	28398
809.883	28348
810.025	28542
810.166	28630
810.308	28615
810.45	28508
810.591	28474
810.733	28447
810.875	28299
811.016	28352
811.158	28249
811.299	28478
811.441	28557
811.582	28348
811.724	28329
811.865	28268
812.007	28219
812.148	28394
812.29	28268
812.431	28443
812.573	28588
812.714	28653
812.855	28949
812.997	28908
813.138	29193
813.279	29079
813.421	28873
813.562	28908
813.703	28793
813.845	28523
813.986	28234
814.127	28207
814.268	27956
814.41	28055
814.551	28063
814.692	28154
814.833	27998
814.974	27979
815.115	28063
815.256	28010
815.397	27968
815.539	27956
815.68	27793
815.821	27717
815.962	27728
816.103	27918
816.244	27694
816.385	27542
816.526	27576
816.666	27443
816.807	27272
816.948	27439
817.089	27481
817.23	27294
817.371	27351
817.512	27439
817.653	27302
817.793	27306
817.934	27325
818.075	27291
818.216	27424
818.356	27389
818.497	27302
818.638	27150
818.778	26971
818.919	27096
819.06	27093
819.2	27256
819.341	27378
819.481	27279
819.622	27458
819.762	27656
819.903	27420
820.043	27572
820.184	27405
820.324	27367
820.465	27469
820.605	27405
820.746	27507
820.886	27310
821.026	27412
821.167	27386
821.307	27466
821.447	27393
821.588	27104
821.728	27028
821.868	26982
822.008	26857
822.149	26830
822.289	26727
822.429	26651
822.569	26522
822.709	26495
822.849	26275
822.99	26202
823.13	26366
823.27	26126
823.41	26164
823.55	25902
823.69	26065
823.83	26130
823.97	26126
824.11	25898
824.25	25769
824.389	25955
824.529	26008
824.669	25936
824.809	25928
824.949	26016
825.089	26172
825.228	26062
825.368	25830
825.508	25700
825.648	25738
825.787	25887
825.927	26012
826.067	25894
826.206	25772
826.346	25734
826.485	25890
826.625	25761
826.765	26001
826.904	25974
827.044	25575
827.183	25548
827.323	25487
827.462	25567
827.601	25620
827.741	25438
827.88	25601
828.02	25392
828.159	25521
828.298	25529
828.437	25647
828.577	25438
828.716	25544
828.855	25582
828.994	25297
829.134	25350
829.273	25240
829.412	25209
829.551	25099
829.69	25232
829.829	25225
829.968	25403
830.107	25236
830.246	25308
830.385	25221
830.524	25156
830.663	25046
830.802	24966
830.941	24871
831.08	24878
831.219	24954
831.357	24932
831.496	25015
831.635	24894
831.774	24821
831.913	24768
832.051	24574
832.19	24661
832.329	24730
832.467	24585
832.606	24467
832.744	24422
832.883	24471
833.022	24525
833.16	24654
833.299	24528
833.437	24589
833.576	24570
833.714	24585
833.852	24669
833.991	24661
834.129	24540
834.267	24620
834.406	24631
834.544	24593
834.682	24601
834.821	24532
834.959	24726
835.097	24601
835.235	24673
835.373	24441
835.511	24593
835.65	24475
835.788	24418
835.926	24232
836.064	24262
836.202	24296
836.34	24338
836.478	24372
836.615	24391
836.753	24661
836.891	24604
837.029	24338
837.167	24441
837.305	24304
837.443	24365
837.58	24140
837.718	24182
837.856	24163
837.993	24178
838.131	24174
838.269	24049
838.406	24068
838.544	23969
838.681	23760
838.819	23794
838.956	23687
839.094	23596
839.231	23783
839.369	23916
839.506	24102
839.643	23942
839.781	23733
839.918	23623
840.055	23516
840.193	23623
840.33	23676
840.467	23452
840.604	23505
840.742	23794
840.879	23585
841.016	23501
841.153	23551
841.29	23661
841.427	23611
841.564	23471
841.701	23558
841.838	23554
841.975	23360
842.112	23474
842.249	23516
842.385	23360
842.522	23547
842.659	23444
842.796	23322
842.933	23353
843.069	23178
843.206	23212
843.343	23402
843.479	23417
843.616	23200
843.752	23147
843.889	23140
844.025	23353
844.162	23098
844.298	23258
844.435	23060
844.571	23185
844.708	23140
844.844	23299
844.98	23337
845.117	23235
845.253	23151
845.389	23121
845.525	22999
845.661	22869
845.798	22881
845.934	22980
846.07	22801
846.206	22984
846.342	22911
846.478	22911
846.614	22634
846.75	22634
846.886	22565
847.022	22797
847.158	22664
847.294	22588
847.429	22626
847.565	22584
847.701	22797
847.837	22352
847.972	22348
848.108	22470
848.244	22341
848.379	22318
848.515	22200
848.65	22162
848.786	22234
848.921	22207
849.057	22341
849.192	22382
849.328	22246
849.463	22219
849.598	22090
849.734	22025
849.869	22044
850.004	21979
850.14	21949
850.275	21979
850.41	21876
850.545	21884
850.68	21953
850.815	21884
850.95	21964
851.085	22078
851.22	21983
851.355	22017
851.49	21956
851.625	21857
851.76	21888
851.895	21869
852.03	21800
852.165	21956
852.299	22029
852.434	22044
852.569	22017
852.703	21926
852.838	21979
852.973	22002
853.107	22078
853.242	21854
853.376	21850
853.511	21641
853.645	21701
853.78	21926
853.914	21766
854.048	21652
854.183	21736
854.317	21835
854.451	21846
854.585	21667
854.72	21816
854.854	21846
854.988	21709
855.122	21793
855.256	21641
855.39	21785
855.524	21937
855.658	21759
855.792	21667
855.926	21766
856.06	21895
856.194	21865
856.327	21679
856.461	21667
856.595	21595
856.729	21797
856.862	21888
856.996	21808
857.13	21842
857.263	21903
857.397	21861
857.53	21762
857.664	21804
857.797	21781
857.931	21922
858.064	21785
858.197	21880
858.331	21625
858.464	21701
858.597	21660
858.731	21751
858.864	21625
858.997	21747
859.13	21808
859.263	21865
859.396	21983
859.529	21816
859.662	21629
859.795	21778
859.928	21709
860.061	21911
860.194	21979
860.327	21949
860.46	21880
860.592	21854
860.725	21846
860.858	21835
860.99	21831
861.123	21759
861.256	21682
861.388	21762
861.521	22447
861.653	21557
861.786	21690
861.918	21523
862.05	21637
862.183	21675
862.315	21724
862.447	21857
862.58	21633
862.712	21424
862.844	21447
862.976	21595
863.108	21507
863.24	21922
863.372	21485
863.504	21515
863.636	21481
863.768	21473
863.9	21344
864.032	21405
864.164	21382
864.296	21515
864.428	21576
864.559	21473
864.691	21443
864.823	21408
864.954	21359
865.086	21291
865.217	21329
865.349	21291
865.48	21317
865.612	21412
865.743	21523
865.875	21348
866.006	21348
866.137	21298
866.269	21351
866.4	21283
866.531	21367
866.662	21230
866.793	21222
866.924	21310
867.055	21336
867.186	21329
867.317	21268
867.448	21283
867.579	21230
867.71	21195
867.841	21173
867.972	21283
868.103	21184
868.233	21192
868.364	21230
868.495	21256
868.625	21523
868.756	21580
868.886	21557
869.017	21500
869.147	21690
869.278	21690
869.408	21618
869.539	21507
869.669	21492
869.799	21538
869.929	21701
870.06	21648
870.19	21930
870.32	21857
870.45	21918
870.58	21945
870.71	22010
870.84	21934
870.97	21926
871.1	21899
871.23	22044
871.36	22059
871.489	22078
871.619	22055
871.749	22120
871.879	22010
872.008	22253
872.138	22048
872.267	22070
872.397	21941
872.526	21972
872.656	21941
872.785	22025
872.915	22109
873.044	22257
873.173	22112
873.303	22139
873.432	22219
873.561	22360
873.69	22109
873.819	22055
873.948	22173
874.077	22150
874.206	22105
874.335	22173
874.464	22215
874.593	22337
874.722	22318
874.851	22432
874.979	22379
875.108	22413
875.237	22325
875.365	22291
875.494	22207
875.623	22405
875.751	22276
875.88	22363
876.008	22337
876.136	22588
876.265	22763
876.393	22873
876.521	22919
876.65	22839
876.778	22771
876.906	22778
877.034	22660
877.162	22687
877.29	22535
877.418	22649
877.546	22656
877.674	22847
877.802	22691
877.93	22740
878.058	22675
878.185	22637
878.313	22717
878.441	22656
878.568	22618
878.696	22672
878.824	22706
878.951	22634
879.079	22911
879.206	22911
879.333	22805
879.461	22675
879.588	22835
879.715	22942
879.842	22968
879.97	22736
880.097	22546
880.224	22561
880.351	22527
880.478	22382
880.605	22542
880.732	22485
880.859	22755
880.986	22569
881.112	22577
881.239	22455
881.366	22303
881.493	22169
881.619	22112
881.746	22169
881.872	22128
881.999	22124
882.125	22048
882.252	22105
882.378	22040
882.505	22272
882.631	21880
882.757	21797
882.883	21922
883.01	21865
883.136	21709
883.262	21728
883.388	21625
883.514	21774
883.64	21819
883.766	21663
883.892	21492
884.018	21671
884.143	21762
884.269	21838
884.395	21519
884.52	21439
884.646	21591
884.772	21355
884.897	21252
885.023	21435
885.148	21530
885.274	21469
885.399	21530
885.524	21450
885.65	21591
885.775	21576
885.9	21237
886.025	21526
886.15	21564
886.275	21424
886.4	21351
886.525	21408
886.65	21507
886.775	21279
886.9	21462
887.025	21568
887.149	21291
887.274	21211
887.399	21321
887.523	21161
887.648	21161
887.773	21058
887.897	21241
888.021	21245
888.146	21138
888.27	21332
888.395	21256
888.519	21214
888.643	21203
888.767	21077
888.891	21157
889.015	20971
889.139	21013
889.263	20975
889.387	21020
889.511	21222
889.635	21100
889.759	20944
889.883	20975
890.006	20990
890.13	20971
890.254	20823
890.377	20906
890.501	20735
890.624	20735
890.748	20849
890.871	20621
890.995	20560
891.118	20450
891.241	20511
891.364	20579
891.488	20617
891.611	20579
891.734	20659
891.857	20568
891.98	20583
892.103	20629
892.226	20511
892.349	20613
892.471	20290
892.594	20431
892.717	20484
892.839	20438
892.962	20408
893.085	20552
893.207	20423
893.33	20366
893.452	20385
893.575	20473
893.697	20343
893.819	20575
893.941	20587
894.064	20617
894.186	20366
894.308	20336
894.43	20503
894.552	20511
894.674	20617
894.796	20370
894.918	20450
895.04	20336
895.161	20518
895.283	20514
895.405	20298
895.526	20404
895.648	20446
895.769	20393
895.891	20488
896.012	20492
896.134	20469
896.255	20533
896.376	20305
896.498	20404
896.619	20560
896.74	20377
896.861	20461
896.982	20686
897.103	20891
897.224	20629
897.345	20590
897.466	20598
897.587	20674
897.708	20716
897.828	20689
897.949	20686
898.07	20522
898.19	20674
898.311	20571
898.431	20590
898.552	20579
898.672	20716
898.792	20785
898.913	20644
899.033	20564
899.153	20396
899.273	20301
899.393	20328
899.513	20499
899.633	20362
899.753	20415
899.873	20404
899.993	20351
900.113	20381
900.232	20259
900.352	20347
900.472	20218
900.591	20092
900.711	20191
900.83	20096
900.95	20161
901.069	20275
901.189	20092
901.308	19822
901.427	19704
901.546	19750
901.665	19830
901.784	19765
901.904	19639
902.023	19480
902.141	19304
902.26	19381
902.379	19312
902.498	19213
902.617	19263
902.735	19266
902.854	19175
902.973	19274
903.091	19000
903.21	18871
903.328	18859
903.446	18814
903.565	18814
903.683	18696
903.801	18707
903.919	18620
904.038	18593
904.156	18551
904.274	18532
904.392	18506
904.51	18559
904.627	18623
904.745	18578
904.863	18513
904.981	18228
905.098	18102
905.216	18129
905.334	18110
905.451	18266
905.569	18091
905.686	18254
905.803	18125
905.921	17927
906.038	17992
906.155	17980
906.272	17863
906.389	17897
906.506	17764
906.623	17726
906.74	17672
906.857	17600
906.974	17649
907.091	17627
907.208	17756
907.324	17684
907.441	17661
907.557	17356
907.674	17353
907.79	17429
907.907	17391
908.023	17376
908.139	17387
908.256	17364
908.372	17269
908.488	17318
908.604	17075
908.72	17075
908.836	17143
908.952	17113
909.068	17064
909.184	17147
909.3	17128
909.415	17174
909.531	17189
909.647	16824
909.762	16809
909.878	16835
909.993	16885
910.108	16763
910.224	16759
910.339	16744
910.454	16641
910.57	16611
910.685	16546
910.8	16733
910.915	16828
911.03	16596
911.145	16443
911.259	16390
911.374	16352
911.489	16322
911.604	16287
911.718	16154
911.833	16242
911.947	16036
912.062	16010
912.176	16071
912.291	16154
912.405	16139
912.519	16284
912.633	16276
912.748	16105
912.862	16078
912.976	15911
913.09	15922
913.204	15899
913.318	16002
913.431	16135
913.545	16010
913.659	16090
913.772	15869
913.886	15827
914	15641
914.113	15873
914.226	15880
914.34	15774
914.453	15622
914.566	15808
914.68	15663
914.793	15614
914.906	15466
915.019	15477
915.132	15511
915.245	15294
915.358	15252
915.47	15500
915.583	15408
915.696	15279
915.809	15462
915.921	15424
916.034	15351
916.146	15218
916.259	15287
916.371	15306
916.483	15218
916.595	15226
916.708	15154
916.82	15188
916.932	15237
917.044	15173
917.156	15119
917.268	14994
917.38	15020
917.491	14979
917.603	15005
917.715	15138
917.826	15142
917.938	14982
918.049	14921
918.161	14918
918.272	15100
918.384	15077
918.495	14960
918.606	14857
918.717	14682
918.828	14796
918.939	14823
919.05	14667
919.161	14777
919.272	14549
919.383	14636
919.494	14788
919.604	14941
919.715	14758
919.826	14648
919.936	14739
920.047	14853
920.157	14659
920.267	14883
920.378	14750
920.488	14693
920.598	14857
920.708	15013
920.818	14838
920.928	14731
921.038	14982
921.148	14979
921.258	14670
921.368	14556
921.477	14492
921.587	14385
921.697	14233
921.806	14419
921.916	14271
922.025	14180
922.134	14107
922.244	14031
922.353	14077
922.462	13974
922.571	14001
922.68	13715
922.789	13643
922.898	13689
923.007	13643
923.116	13677
923.224	13681
923.333	13696
923.442	13567
923.55	13597
923.659	13609
923.767	13514
923.876	13510
923.984	13533
924.092	13460
924.201	13449
924.309	13544
924.417	13540
924.525	13335
924.633	13468
924.741	14180
924.849	13175
924.956	13381
925.064	13160
925.172	13023
925.279	13149
925.387	13232
925.494	13091
925.602	13266
925.709	13270
925.816	13118
925.924	13072
926.031	13168
926.138	13038
926.245	13145
926.352	12951
926.459	13095
926.566	13129
926.673	13012
926.779	12882
926.886	12817
926.993	12791
927.099	12734
927.206	12650
927.312	12722
927.419	12700
927.525	12757
927.631	12703
927.737	12528
927.843	12578
927.95	12388
928.056	12426
928.162	12525
928.267	12517
928.373	13152
928.479	12574
928.585	12350
928.69	12414
928.796	12452
928.901	12369
929.007	12270
929.112	12334
929.218	12319
929.323	12289
929.428	12311
929.533	12315
929.638	12144
929.743	12140
929.848	12216
929.953	12254
930.058	12038
930.163	11916
930.267	11931
930.372	12030
930.477	11870
930.581	12060
930.685	11920
930.79	11794
930.894	11824
930.998	11786
931.103	11927
931.207	11535
931.311	11463
931.415	11474
931.519	11227
931.623	11166
