Data from test_V78500241_3580.txt Node
Date: Fri Mar 25 15:34:47 CST 2022
User: usil
Spectrometer: V785-0024
Trigger mode: 0
Integration Time (sec): 4.000000E-1
Scans to average: 1
Nonlinearity correction enabled: false
Boxcar width: 0
Storing dark spectrum: false
XAxis mode: Wavelengths
Number of Pixels in Spectrum: 1024
>>>>>Begin Spectral Data<<<<<
801.071	27473
801.214	27458
801.356	27089
801.499	27119
801.641	27001
801.783	26788
801.926	27013
802.068	26944
802.211	26838
802.353	26708
802.496	26686
802.638	26590
802.78	26549
802.923	26473
803.065	26438
803.208	26404
803.35	26518
803.492	26739
803.635	26785
803.777	26549
803.919	26716
804.061	27020
804.204	26834
804.346	26705
804.488	26541
804.63	26617
804.773	26606
804.915	26613
805.057	26902
805.199	26678
805.341	26727
805.483	26967
805.626	26750
805.768	26708
805.91	26697
806.052	26830
806.194	26720
806.336	27142
806.478	26796
806.62	26838
806.762	26933
806.904	27032
807.046	27222
807.188	27207
807.33	27214
807.472	27272
807.614	27165
807.756	27176
807.898	27100
808.04	26921
808.182	26982
808.324	27074
808.465	27028
808.607	27260
808.749	27393
808.891	27488
809.033	27591
809.174	27443
809.316	27310
809.458	27367
809.6	27161
809.741	27485
809.883	27557
810.025	27641
810.166	27500
810.308	27633
810.45	27652
810.591	27587
810.733	27443
810.875	27351
811.016	27355
811.158	27351
811.299	27450
811.441	27603
811.582	27671
811.724	27340
811.865	27412
812.007	27355
812.148	27184
812.29	27363
812.431	27545
812.573	27789
812.714	27762
812.855	27937
812.997	27911
813.138	28040
813.279	28150
813.421	27914
813.562	27907
813.703	27698
813.845	27663
813.986	27298
814.127	27081
814.268	27135
814.41	27127
814.551	27138
814.692	27001
814.833	26998
814.974	27081
815.115	27028
815.256	26937
815.397	26819
815.539	26925
815.68	26895
815.821	26708
815.962	26720
816.103	26811
816.244	26678
816.385	26549
816.526	26575
816.666	26389
816.807	26202
816.948	26351
817.089	26377
817.23	26351
817.371	26252
817.512	26244
817.653	26107
817.793	26206
817.934	26419
818.075	26415
818.216	26431
818.356	26309
818.497	26153
818.638	26142
818.778	26199
818.919	26062
819.06	26164
819.2	26351
819.341	26267
819.481	26206
819.622	26438
819.762	26606
819.903	26537
820.043	26351
820.184	26533
820.324	26332
820.465	26526
820.605	26385
820.746	26465
820.886	26252
821.026	26503
821.167	26374
821.307	26530
821.447	26240
821.588	26111
821.728	26062
821.868	25955
822.008	25795
822.149	25811
822.289	25811
822.429	25483
822.569	25457
822.709	25491
822.849	25270
822.99	25327
823.13	25244
823.27	25354
823.41	25118
823.55	25114
823.69	25137
823.83	25168
823.97	25023
824.11	25000
824.25	24863
824.389	24932
824.529	25057
824.669	25019
824.809	25084
824.949	25034
825.089	25088
825.228	25015
825.368	24875
825.508	24894
825.648	24741
825.787	24905
825.927	24802
826.067	24707
826.206	24859
826.346	24806
826.485	24897
826.625	24844
826.765	24859
826.904	24757
827.044	24696
827.183	24460
827.323	24521
827.462	24471
827.601	24483
827.741	24563
827.88	24635
828.02	24483
828.159	24525
828.298	24517
828.437	24540
828.577	24483
828.716	24601
828.855	24502
828.994	24277
829.134	24372
829.273	24285
829.412	24388
829.551	24205
829.69	24266
829.829	24334
829.968	24197
830.107	24289
830.246	24243
830.385	24163
830.524	24079
830.663	24133
830.802	23996
830.941	23851
831.08	23817
831.219	23977
831.357	23923
831.496	24018
831.635	23893
831.774	23722
831.913	23798
832.051	23752
832.19	23539
832.329	23638
832.467	23657
832.606	23482
832.744	23425
832.883	23501
833.022	23398
833.16	23512
833.299	23577
833.437	23573
833.576	23661
833.714	23695
833.852	23627
833.991	23467
834.129	23752
834.267	23634
834.406	23707
834.544	23710
834.682	23600
834.821	23585
834.959	23764
835.097	23547
835.235	23699
835.373	23646
835.511	23490
835.65	23566
835.788	23391
835.926	23345
836.064	23303
836.202	23429
836.34	23512
836.478	23406
836.615	23376
836.753	23455
836.891	23501
837.029	23452
837.167	23288
837.305	23356
837.443	23315
837.58	23376
837.718	23299
837.856	23349
837.993	23162
838.131	23220
838.269	23189
838.406	23132
838.544	23102
838.681	23048
838.819	22965
838.956	22713
839.094	22866
839.231	22755
839.369	22885
839.506	23185
839.643	22968
839.781	22771
839.918	22763
840.055	22725
840.193	22782
840.33	22778
840.467	22675
840.604	22793
840.742	22987
840.879	22645
841.016	22733
841.153	22535
841.29	22824
841.427	22774
841.564	22725
841.701	22634
841.838	22664
841.975	22634
842.112	22622
842.249	22603
842.385	22618
842.522	22717
842.659	22584
842.796	22455
842.933	22497
843.069	22481
843.206	22504
843.343	22554
843.479	22516
843.616	22523
843.752	22192
843.889	22356
844.025	22337
844.162	22173
844.298	22421
844.435	22162
844.571	22215
844.708	22413
844.844	22432
844.98	22440
845.117	22276
845.253	22230
845.389	22002
845.525	22109
845.661	22162
845.798	22032
845.934	22032
846.07	21953
846.206	22086
846.342	22112
846.478	22055
846.614	21739
846.75	21709
846.886	21785
847.022	21911
847.158	21732
847.294	21728
847.429	21686
847.565	21899
847.701	21968
847.837	21466
847.972	21428
848.108	21557
848.244	21614
848.379	21355
848.515	21340
848.65	21332
848.786	21332
848.921	21252
849.057	21466
849.192	21378
849.328	21294
849.463	21336
849.598	21233
849.734	21252
849.869	21146
850.004	21005
850.14	21138
850.275	21176
850.41	21062
850.545	21100
850.68	20921
850.815	21146
850.95	21081
851.085	21264
851.22	21230
851.355	21112
851.49	20971
851.625	21093
851.76	21100
851.895	21039
852.03	20975
852.165	21195
852.299	21256
852.434	21199
852.569	21062
852.703	21036
852.838	21104
852.973	21096
853.107	21188
853.242	21013
853.376	20952
853.511	20830
853.645	20849
853.78	20918
853.914	20925
854.048	20887
854.183	20914
854.317	20830
854.451	21093
854.585	20975
854.72	20937
854.854	21043
854.988	20815
855.122	21020
855.256	20788
855.39	20849
855.524	20967
855.658	20941
855.792	20891
855.926	20925
856.06	20963
856.194	20982
856.327	20857
856.461	20891
856.595	20769
856.729	20895
856.862	21013
856.996	20830
857.13	20925
857.263	21001
857.397	21028
857.53	20861
857.664	20918
857.797	20990
857.931	21009
858.064	20891
858.197	20918
858.331	20925
858.464	20743
858.597	20781
858.731	20861
858.864	20971
858.997	20876
859.13	20941
859.263	20937
859.396	21112
859.529	20758
859.662	20845
859.795	20941
859.928	20891
860.061	21009
860.194	21127
860.327	20956
860.46	20902
860.592	21104
860.725	21001
860.858	21001
860.99	20956
861.123	20887
861.256	20857
861.388	20891
861.521	21701
861.653	20781
861.786	20746
861.918	20743
862.05	20765
862.183	20861
862.315	20887
862.447	20826
862.58	20872
862.712	20598
862.844	20701
862.976	20792
863.108	20670
863.24	21043
863.372	20575
863.504	20552
863.636	20621
863.768	20556
863.9	20708
864.032	20522
864.164	20587
864.296	20632
864.428	20735
864.559	20594
864.691	20682
864.823	20689
864.954	20621
865.086	20598
865.217	20545
865.349	20381
865.48	20454
865.612	20495
865.743	20693
865.875	20594
866.006	20423
866.137	20518
866.269	20419
866.4	20457
866.531	20461
866.662	20473
866.793	20389
866.924	20423
867.055	20503
867.186	20469
867.317	20343
867.448	20415
867.579	20469
867.71	20427
867.841	20419
867.972	20457
868.103	20530
868.233	20442
868.364	20530
868.495	20537
868.625	20651
868.756	20823
868.886	20617
869.017	20678
869.147	20746
869.278	20807
869.408	20746
869.539	20804
869.669	20708
869.799	20796
869.929	20826
870.06	20826
870.19	20994
870.32	21020
870.45	21070
870.58	20902
870.71	21233
870.84	21249
870.97	21211
871.1	21127
871.23	21275
871.36	21363
871.489	21233
871.619	21336
871.749	21420
871.879	21317
872.008	21466
872.138	21386
872.267	21291
872.397	21135
872.526	21104
872.656	21157
872.785	21108
872.915	21294
873.044	21458
873.173	21397
873.303	21325
873.432	21378
873.561	21310
873.69	21222
873.819	21344
873.948	21428
874.077	21260
874.206	21245
874.335	21291
874.464	21416
874.593	21542
874.722	21492
874.851	21736
874.979	21576
875.108	21591
875.237	21538
875.365	21488
875.494	21618
875.623	21637
875.751	21587
875.88	21595
876.008	21797
876.136	21793
876.265	22006
876.393	22101
876.521	22006
876.65	22112
876.778	21968
876.906	21873
877.034	21800
877.162	21926
877.29	21846
877.418	21880
877.546	21876
877.674	21865
877.802	21949
877.93	21972
878.058	21869
878.185	21857
878.313	21892
878.441	21827
878.568	21713
878.696	21918
878.824	21972
878.951	22036
879.079	22188
879.206	22242
879.333	22021
879.461	21892
879.588	21899
879.715	22204
879.842	22314
879.97	21994
880.097	21766
880.224	21869
880.351	21895
880.478	21713
880.605	21663
880.732	21694
880.859	22002
880.986	21778
881.112	21781
881.239	21686
881.366	21443
881.493	21325
881.619	21450
881.746	21310
881.872	21336
881.999	21287
882.125	21119
882.252	21485
882.378	21272
882.505	21389
882.631	21116
882.757	21043
882.883	21165
883.01	21005
883.136	21005
883.262	20800
883.388	20906
883.514	21017
883.64	21024
883.766	20975
883.892	20762
884.018	20830
884.143	20960
884.269	21161
884.395	20773
884.52	20667
884.646	20746
884.772	20640
884.897	20689
885.023	20739
885.148	20697
885.274	20880
885.399	20746
885.524	20720
885.65	20667
885.775	20689
885.9	20708
886.025	20853
886.15	20765
886.275	20530
886.4	20625
886.525	20712
886.65	20625
886.775	20674
886.9	20644
887.025	20807
887.149	20724
887.274	20552
887.399	20450
887.523	20370
887.648	20473
887.773	20259
887.897	20530
888.021	20522
888.146	20412
888.27	20480
888.395	20461
888.519	20556
888.643	20533
888.767	20511
888.891	20438
889.015	20305
889.139	20298
889.263	20126
889.387	20461
889.511	20465
889.635	20473
889.759	20153
889.883	20225
890.006	20237
890.13	20355
890.254	20195
890.377	20161
890.501	20005
890.624	19989
890.748	20062
890.871	19955
890.995	19734
891.118	19776
891.241	19799
891.364	19784
891.488	19940
891.611	19875
891.734	19757
891.857	19936
891.98	19814
892.103	19803
892.226	19864
892.349	19746
892.471	19624
892.594	19666
892.717	19727
892.839	19696
892.962	19769
893.085	19765
893.207	19674
893.33	19731
893.452	19761
893.575	19780
893.697	19700
893.819	19932
893.941	19875
894.064	19860
894.186	19845
894.308	19750
894.43	19814
894.552	19845
894.674	19795
894.796	19784
894.918	19807
895.04	19674
895.161	19784
895.283	19734
895.405	19750
895.526	19708
895.648	19624
895.769	19803
895.891	19750
896.012	19826
896.134	19776
896.255	19750
896.376	19746
896.498	19738
896.619	19765
896.74	19769
896.861	19917
896.982	20100
897.103	20187
897.224	20031
897.345	19940
897.466	19917
897.587	19951
897.708	20046
897.828	19963
897.949	19841
898.07	19811
898.19	19913
898.311	20054
898.431	19940
898.552	19982
898.672	19993
898.792	20008
898.913	19989
899.033	19928
899.153	19864
899.273	19628
899.393	19700
899.513	19685
899.633	19605
899.753	19738
899.873	19746
899.993	19696
900.113	19643
900.232	19681
900.352	19655
900.472	19635
900.591	19434
900.711	19426
900.83	19464
900.95	19620
901.069	19563
901.189	19365
901.308	19053
901.427	19061
901.546	19072
901.665	19095
901.784	19110
901.904	18973
902.023	18817
902.141	18661
902.26	18631
902.379	18753
902.498	18563
902.617	18544
902.735	18627
902.854	18585
902.973	18536
903.091	18285
903.21	18213
903.328	18407
903.446	18133
903.565	18072
903.683	18102
903.801	17973
903.919	18091
904.038	17996
904.156	17901
904.274	17866
904.392	17897
904.51	17756
904.627	17832
904.745	17916
904.863	17889
904.981	17699
905.098	17558
905.216	17608
905.334	17505
905.451	17592
905.569	17532
905.686	17528
905.803	17486
905.921	17372
906.038	17463
906.155	17318
906.272	17185
906.389	17261
906.506	17094
906.623	17086
906.74	17056
906.857	16968
906.974	17064
907.091	17136
907.208	17159
907.324	17056
907.441	16953
907.557	16869
907.674	16816
907.79	16771
907.907	16797
908.023	16744
908.139	16710
908.256	16752
908.372	16694
908.488	16660
908.604	16577
908.72	16577
908.836	16592
908.952	16386
909.068	16523
909.184	16683
909.3	16580
909.415	16603
909.531	16424
909.647	16185
909.762	16169
909.878	16120
909.993	16234
910.108	16147
910.224	16135
910.339	16150
910.454	16051
910.57	16017
910.685	15953
910.8	16253
910.915	16154
911.03	15960
911.145	15831
911.259	15884
911.374	15865
911.489	15732
911.604	15793
911.718	15561
911.833	15530
911.947	15473
912.062	15412
912.176	15557
912.291	15618
912.405	15667
912.519	15774
912.633	15751
912.748	15519
912.862	15538
912.976	15397
913.09	15283
913.204	15332
913.318	15431
913.431	15466
913.545	15507
913.659	15439
913.772	15363
913.886	15146
914	15176
914.113	15268
914.226	15260
914.34	15294
914.453	15097
914.566	15275
914.68	15100
914.793	15051
914.906	14895
915.019	14807
915.132	14727
915.245	14853
915.358	14800
915.47	14754
915.583	14777
915.696	14762
915.809	14979
915.921	15005
916.034	14781
916.146	14724
916.259	14777
916.371	14804
916.483	14750
916.595	14689
916.708	14613
916.82	14655
916.932	14556
917.044	14667
917.156	14617
917.268	14415
917.38	14583
917.491	14438
917.603	14484
917.715	14522
917.826	14636
917.938	14381
918.049	14309
918.161	14431
918.272	14564
918.384	14492
918.495	14374
918.606	14355
918.717	14225
918.828	14214
918.939	14320
919.05	14180
919.161	14275
919.272	14046
919.383	14103
919.494	14263
919.604	14446
919.715	14172
919.826	14130
919.936	14180
920.047	14305
920.157	14221
920.267	14415
920.378	14180
920.488	14172
920.598	14393
920.708	14518
920.818	14267
920.928	14358
921.038	14431
921.148	14492
921.258	14039
921.368	14092
921.477	13955
921.587	13959
921.697	13864
921.806	14008
921.916	13887
922.025	13643
922.134	13521
922.244	13628
922.353	13689
922.462	13518
922.571	13480
922.68	13362
922.789	13282
922.898	13343
923.007	13042
923.116	13225
923.224	13236
923.333	13187
923.442	13042
923.55	13114
923.659	13179
923.767	13118
923.876	13088
923.984	13053
924.092	13008
924.201	12939
924.309	12993
924.417	12920
924.525	12905
924.633	12932
924.741	13963
924.849	12692
924.956	12821
925.064	12810
925.172	12593
925.279	12627
925.387	12734
925.494	12623
925.602	12791
925.709	12681
925.816	12623
925.924	12658
926.031	12665
926.138	12601
926.245	12734
926.352	12631
926.459	12646
926.566	12783
926.673	12585
926.779	12414
926.886	12460
926.993	12300
927.099	12216
927.206	12190
927.312	12243
927.419	12342
927.525	12266
927.631	12254
927.737	11977
927.843	12133
927.95	11988
928.056	12076
928.162	12091
928.267	12114
928.373	12650
928.479	12235
928.585	11920
928.69	12095
928.796	12064
928.901	11942
929.007	11760
929.112	11996
929.218	12038
929.323	11832
929.428	11821
929.533	11946
929.638	11710
929.743	11729
929.848	11828
929.953	11809
930.058	11642
930.163	11414
930.267	11528
930.372	11634
930.477	11554
930.581	11653
930.685	11539
930.79	11376
930.894	11455
930.998	11341
931.103	11554
931.207	11174
931.311	11109
931.415	11029
931.519	10744
931.623	10763
