Data from test_V78500241_3340.txt Node
Date: Fri Mar 25 15:33:07 CST 2022
User: usil
Spectrometer: V785-0024
Trigger mode: 0
Integration Time (sec): 4.000000E-1
Scans to average: 1
Nonlinearity correction enabled: false
Boxcar width: 0
Storing dark spectrum: false
XAxis mode: Wavelengths
Number of Pixels in Spectrum: 1024
>>>>>Begin Spectral Data<<<<<
801.071	27321
801.214	27112
801.356	26963
801.499	26864
801.641	26845
801.783	26811
801.926	26800
802.068	26746
802.211	26716
802.353	26708
802.496	26412
802.638	26412
802.78	26492
802.923	26313
803.065	26347
803.208	26351
803.35	26469
803.492	26488
803.635	26571
803.777	26408
803.919	26587
804.061	26826
804.204	26701
804.346	26564
804.488	26499
804.63	26511
804.773	26522
804.915	26762
805.057	26621
805.199	26575
805.341	26522
805.483	26830
805.626	26678
805.768	26590
805.91	26594
806.052	26739
806.194	26689
806.336	26758
806.478	26655
806.62	26629
806.762	26785
806.904	26910
807.046	27062
807.188	27058
807.33	27081
807.472	27188
807.614	26891
807.756	27039
807.898	26830
808.04	26788
808.182	26800
808.324	26887
808.465	27047
808.607	27085
808.749	27291
808.891	27363
809.033	27351
809.174	27344
809.316	27306
809.458	27374
809.6	27165
809.741	27283
809.883	27363
810.025	27408
810.166	27469
810.308	27519
810.45	27435
810.591	27564
810.733	27298
810.875	27188
811.016	27310
811.158	27199
811.299	27447
811.441	27439
811.582	27549
811.724	27393
811.865	27233
812.007	27313
812.148	27192
812.29	27268
812.431	27294
812.573	27477
812.714	27549
812.855	27759
812.997	27941
813.138	27949
813.279	27835
813.421	27682
813.562	27652
813.703	27580
813.845	27473
813.986	27214
814.127	26956
814.268	26979
814.41	27024
814.551	26826
814.692	26948
814.833	26800
814.974	26864
815.115	26914
815.256	26773
815.397	26830
815.539	26785
815.68	26590
815.821	26720
815.962	26788
816.103	26724
816.244	26613
816.385	26514
816.526	26518
816.666	26256
816.807	26122
816.948	26100
817.089	26415
817.23	26195
817.371	26020
817.512	26263
817.653	26202
817.793	26084
817.934	26149
818.075	26229
818.216	26100
818.356	26233
818.497	25966
818.638	25879
818.778	26046
818.919	25993
819.06	25932
819.2	26043
819.341	26168
819.481	26126
819.622	26377
819.762	26408
819.903	26358
820.043	26339
820.184	26301
820.324	26218
820.465	26389
820.605	26233
820.746	26237
820.886	26130
821.026	26252
821.167	26202
821.307	26240
821.447	26077
821.588	25951
821.728	25879
821.868	25765
822.008	25582
822.149	25677
822.289	25586
822.429	25335
822.569	25327
822.709	25293
822.849	25141
822.99	25137
823.13	25088
823.27	25076
823.41	24962
823.55	24996
823.69	24989
823.83	24867
823.97	24852
824.11	24779
824.25	24776
824.389	24696
824.529	24852
824.669	24791
824.809	24814
824.949	24810
825.089	24905
825.228	24707
825.368	24817
825.508	24623
825.648	24646
825.787	24772
825.927	24692
826.067	24719
826.206	24563
826.346	24745
826.485	24757
826.625	24665
826.765	24753
826.904	24738
827.044	24525
827.183	24486
827.323	24247
827.462	24353
827.601	24467
827.741	24266
827.88	24372
828.02	24178
828.159	24407
828.298	24357
828.437	24498
828.577	24205
828.716	24422
828.855	24266
828.994	24125
829.134	24155
829.273	24129
829.412	23988
829.551	23961
829.69	24076
829.829	24129
829.968	24239
830.107	24133
830.246	24098
830.385	24106
830.524	24015
830.663	23916
830.802	23874
830.941	23672
831.08	23486
831.219	23646
831.357	23714
831.496	23935
831.635	23611
831.774	23646
831.913	23535
832.051	23440
832.19	23467
832.329	23436
832.467	23330
832.606	23455
832.744	23265
832.883	23379
833.022	23356
833.16	23490
833.299	23493
833.437	23379
833.576	23376
833.714	23558
833.852	23512
833.991	23341
834.129	23501
834.267	23391
834.406	23372
834.544	23440
834.682	23353
834.821	23364
834.959	23623
835.097	23334
835.235	23493
835.373	23459
835.511	23482
835.65	23356
835.788	23315
835.926	23140
836.064	23006
836.202	23071
836.34	23227
836.478	23474
836.615	23231
836.753	23200
836.891	23277
837.029	23261
837.167	23231
837.305	23117
837.443	23246
837.58	23208
837.718	23193
837.856	23109
837.993	23075
838.131	23189
838.269	23044
838.406	22961
838.544	23056
838.681	22965
838.819	22790
838.956	22641
839.094	22645
839.231	22733
839.369	22862
839.506	22965
839.643	22771
839.781	22592
839.918	22535
840.055	22588
840.193	22538
840.33	22489
840.467	22611
840.604	22535
840.742	22744
840.879	22379
841.016	22428
841.153	22367
841.29	22611
841.427	22421
841.564	22694
841.701	22580
841.838	22382
841.975	22428
842.112	22497
842.249	22470
842.385	22402
842.522	22588
842.659	22478
842.796	22265
842.933	22325
843.069	22291
843.206	22257
843.343	22329
843.479	22299
843.616	22352
843.752	22086
843.889	22021
844.025	22204
844.162	22070
844.298	22226
844.435	22105
844.571	22211
844.708	22120
844.844	22329
844.98	22143
845.117	22173
845.253	22093
845.389	21934
845.525	22051
845.661	21861
845.798	21739
845.934	21766
846.07	21679
846.206	21911
846.342	21899
846.478	21762
846.614	21641
846.75	21610
846.886	21507
847.022	21671
847.158	21545
847.294	21641
847.429	21599
847.565	21507
847.701	21835
847.837	21264
847.972	21192
848.108	21389
848.244	21405
848.379	21154
848.515	21112
848.65	21123
848.786	21081
848.921	21184
849.057	21203
849.192	21252
849.328	21135
849.463	21230
849.598	21058
849.734	20963
849.869	21036
850.004	21013
850.14	20895
850.275	20845
850.41	20861
850.545	20948
850.68	20864
850.815	20910
850.95	20948
851.085	21017
851.22	21188
851.355	20819
851.49	20925
851.625	20785
851.76	20990
851.895	20830
852.03	20777
852.165	20880
852.299	20906
852.434	20937
852.569	20880
852.703	20975
852.838	20952
852.973	20986
853.107	21001
853.242	20910
853.376	20785
853.511	20670
853.645	20712
853.78	20815
853.914	20792
854.048	20765
854.183	20663
854.317	20849
854.451	21013
854.585	20731
854.72	20629
854.854	20796
854.988	20697
855.122	20594
855.256	20727
855.39	20762
855.524	20895
855.658	20826
855.792	20811
855.926	20731
856.06	20773
856.194	20804
856.327	20708
856.461	20465
856.595	20739
856.729	20648
856.862	20941
856.996	20872
857.13	20769
857.263	20804
857.397	20929
857.53	20716
857.664	20826
857.797	20811
857.931	20777
858.064	20720
858.197	20853
858.331	20788
858.464	20792
858.597	20693
858.731	20781
858.864	20762
858.997	20682
859.13	20819
859.263	20697
859.396	20845
859.529	20636
859.662	20743
859.795	20655
859.928	20750
860.061	20845
860.194	20998
860.327	20777
860.46	20758
860.592	20842
860.725	20861
860.858	20952
860.99	20735
861.123	20629
861.256	20731
861.388	20708
861.521	21431
861.653	20579
861.786	20473
861.918	20629
862.05	20606
862.183	20765
862.315	20785
862.447	20708
862.58	20682
862.712	20541
862.844	20313
862.976	20636
863.108	20484
863.24	20975
863.372	20389
863.504	20598
863.636	20419
863.768	20530
863.9	20533
864.032	20408
864.164	20374
864.296	20499
864.428	20488
864.559	20408
864.691	20461
864.823	20499
864.954	20427
865.086	20454
865.217	20229
865.349	20389
865.48	20328
865.612	20248
865.743	20514
865.875	20423
866.006	20290
866.137	20309
866.269	20473
866.4	20305
866.531	20275
866.662	20336
866.793	20221
866.924	20309
867.055	20244
867.186	20339
867.317	20396
867.448	20233
867.579	20225
867.71	20298
867.841	20263
867.972	20332
868.103	20309
868.233	20351
868.364	20263
868.495	20381
868.625	20465
868.756	20609
868.886	20609
869.017	20499
869.147	20602
869.278	20697
869.408	20514
869.539	20613
869.669	20636
869.799	20571
869.929	20636
870.06	20746
870.19	21070
870.32	20838
870.45	20849
870.58	20914
870.71	21146
870.84	21116
870.97	20956
871.1	20937
871.23	21131
871.36	21135
871.489	21100
871.619	21070
871.749	21043
871.879	21211
872.008	21321
872.138	21165
872.267	21074
872.397	20994
872.526	20986
872.656	20937
872.785	20986
872.915	21104
873.044	21127
873.173	21245
873.303	21245
873.432	21173
873.561	21165
873.69	21123
873.819	21233
873.948	21230
874.077	21207
874.206	21211
874.335	21055
874.464	21245
874.593	21306
874.722	21466
874.851	21431
874.979	21496
875.108	21435
875.237	21302
875.365	21378
875.494	21435
875.623	21580
875.751	21397
875.88	21526
876.008	21606
876.136	21690
876.265	21846
876.393	21941
876.521	21930
876.65	21979
876.778	21774
876.906	21709
877.034	21720
877.162	21739
877.29	21850
877.418	21835
877.546	21857
877.674	21865
877.802	21724
877.93	21682
878.058	21610
878.185	21717
878.313	21686
878.441	21850
878.568	21500
878.696	21644
878.824	21751
878.951	21926
879.079	21880
879.206	22086
879.333	22013
879.461	21873
879.588	21979
879.715	21991
879.842	22067
879.97	21800
880.097	21580
880.224	21583
880.351	21610
880.478	21572
880.605	21507
880.732	21568
880.859	21857
880.986	21568
881.112	21599
881.239	21530
881.366	21298
881.493	21348
881.619	21241
881.746	21283
881.872	21184
881.999	21135
882.125	20998
882.252	21211
882.378	21188
882.505	21237
882.631	20963
882.757	21036
882.883	20975
883.01	20948
883.136	20880
883.262	20826
883.388	20727
883.514	20864
883.64	20834
883.766	20708
883.892	20598
884.018	20716
884.143	20796
884.269	20830
884.395	20552
884.52	20560
884.646	20503
884.772	20545
884.897	20480
885.023	20644
885.148	20693
885.274	20701
885.399	20648
885.524	20484
885.65	20552
885.775	20545
885.9	20533
886.025	20549
886.15	20609
886.275	20461
886.4	20377
886.525	20518
886.65	20507
886.775	20263
886.9	20674
887.025	20739
887.149	20571
887.274	20336
887.399	20336
887.523	20320
887.648	20259
887.773	20301
887.897	20343
888.021	20404
888.146	20275
888.27	20332
888.395	20381
888.519	20221
888.643	20336
888.767	20427
888.891	20176
889.015	20092
889.139	20180
889.263	20107
889.387	20248
889.511	20214
889.635	20263
889.759	20088
889.883	20122
890.006	20164
890.13	20336
890.254	20157
890.377	20065
890.501	20012
890.624	19826
890.748	19868
890.871	19860
890.995	19693
891.118	19727
891.241	19772
891.364	19628
891.488	19723
891.611	19708
891.734	19738
891.857	19670
891.98	19651
892.103	19651
892.226	19742
892.349	19594
892.471	19487
892.594	19567
892.717	19616
892.839	19514
892.962	19658
893.085	19674
893.207	19613
893.33	19426
893.452	19457
893.575	19643
893.697	19632
893.819	19723
893.941	19936
894.064	19868
894.186	19624
894.308	19746
894.43	19605
894.552	19624
894.674	19727
894.796	19502
894.918	19575
895.04	19518
895.161	19803
895.283	19719
895.405	19594
895.526	19609
895.648	19632
895.769	19518
895.891	19616
896.012	19674
896.134	19655
896.255	19609
896.376	19510
896.498	19674
896.619	19681
896.74	19510
896.861	19632
896.982	20016
897.103	20058
897.224	19997
897.345	19772
897.466	19666
897.587	19807
897.708	20039
897.828	19871
897.949	19814
898.07	19647
898.19	19799
898.311	19944
898.431	19738
898.552	19868
898.672	19928
898.792	19921
898.913	19830
899.033	19883
899.153	19624
899.273	19548
899.393	19693
899.513	19666
899.633	19613
899.753	19533
899.873	19567
899.993	19575
900.113	19518
900.232	19548
900.352	19556
900.472	19430
900.591	19411
900.711	19358
900.83	19335
900.95	19377
901.069	19441
901.189	19285
901.308	19027
901.427	18890
901.546	18886
901.665	19019
901.784	18962
901.904	18962
902.023	18802
902.141	18509
902.26	18559
902.379	18544
902.498	18471
902.617	18456
902.735	18509
902.854	18467
902.973	18296
903.091	18194
903.21	18121
903.328	18209
903.446	17984
903.565	17954
903.683	17916
903.801	17821
903.919	17927
904.038	17813
904.156	17779
904.274	17661
904.392	17691
904.51	17687
904.627	17695
904.745	17699
904.863	17657
904.981	17566
905.098	17265
905.216	17452
905.334	17402
905.451	17436
905.569	17341
905.686	17505
905.803	17337
905.921	17181
906.038	17341
906.155	17231
906.272	17067
906.389	17185
906.506	16999
906.623	17014
906.74	16991
906.857	16843
906.974	16809
907.091	16984
907.208	16984
907.324	16953
907.441	16911
907.557	16687
907.674	16656
907.79	16584
907.907	16611
908.023	16637
908.139	16729
908.256	16626
908.372	16512
908.488	16542
908.604	16466
908.72	16516
908.836	16474
908.952	16341
909.068	16485
909.184	16523
909.3	16363
909.415	16379
909.531	16390
909.647	16188
909.762	16051
909.878	16078
909.993	16090
910.108	16101
910.224	16010
910.339	16116
910.454	16006
910.57	15869
910.685	15812
910.8	16074
910.915	16029
911.03	15873
911.145	15861
911.259	15671
911.374	15812
911.489	15648
911.604	15549
911.718	15564
911.833	15507
911.947	15462
912.062	15287
912.176	15557
912.291	15454
912.405	15485
912.519	15705
912.633	15713
912.748	15526
912.862	15401
912.976	15317
913.09	15131
913.204	15321
913.318	15310
913.431	15386
913.545	15367
913.659	15386
913.772	15287
913.886	15070
914	15097
914.113	15123
914.226	15207
914.34	15127
914.453	15039
914.566	15058
914.68	14998
914.793	14948
914.906	14712
915.019	14716
915.132	14686
915.245	14644
915.358	14746
915.47	14769
915.583	14590
915.696	14682
915.809	14937
915.921	14819
916.034	14739
916.146	14606
916.259	14522
916.371	14598
916.483	14701
916.595	14629
916.708	14583
916.82	14590
916.932	14488
917.044	14484
917.156	14469
917.268	14370
917.38	14370
917.491	14374
917.603	14328
917.715	14465
917.826	14438
917.938	14313
918.049	14248
918.161	14298
918.272	14415
918.384	14370
918.495	14343
918.606	14229
918.717	14054
918.828	14259
918.939	14248
919.05	14065
919.161	14077
919.272	13909
919.383	13917
919.494	14126
919.604	14336
919.715	14157
919.826	13974
919.936	14096
920.047	14286
920.157	14100
920.267	14313
920.378	14142
920.488	14012
920.598	14339
920.708	14457
920.818	14301
920.928	14271
921.038	14347
921.148	14332
921.258	14084
921.368	13959
921.477	13925
921.587	13791
921.697	13795
921.806	13856
921.916	13677
922.025	13533
922.134	13518
922.244	13502
922.353	13597
922.462	13369
922.571	13320
922.68	13225
922.789	13156
922.898	13232
923.007	13069
923.116	13179
923.224	13129
923.333	13149
923.442	13095
923.55	12970
923.659	12951
923.767	13000
923.876	12970
923.984	12977
924.092	12844
924.201	12890
924.309	12897
924.417	12772
924.525	12829
924.633	12875
924.741	13696
924.849	12662
924.956	12821
925.064	12589
925.172	12623
925.279	12601
925.387	12620
925.494	12635
925.602	12741
925.709	12555
925.816	12509
925.924	12479
926.031	12654
926.138	12506
926.245	12559
926.352	12498
926.459	12589
926.566	12574
926.673	12311
926.779	12342
926.886	12350
926.993	12190
927.099	12197
927.206	12178
927.312	12117
927.419	12289
927.525	12171
927.631	12209
927.737	12068
927.843	12129
927.95	11942
928.056	12064
928.162	11965
928.267	12049
928.373	12559
928.479	12041
928.585	11824
928.69	11885
928.796	11984
928.901	11904
929.007	11649
929.112	11855
929.218	11851
929.323	11790
929.428	11771
929.533	11824
929.638	11688
929.743	11623
929.848	11680
929.953	11623
930.058	11585
930.163	11455
930.267	11463
930.372	11497
930.477	11436
930.581	11653
930.685	11433
930.79	11326
930.894	11318
930.998	11292
931.103	11376
931.207	11006
931.311	10984
931.415	10866
931.519	10771
931.623	10725
