Data from test_V78500241_945.txt Node
Date: Fri Mar 25 15:16:26 CST 2022
User: usil
Spectrometer: V785-0024
Trigger mode: 0
Integration Time (sec): 4.000000E-1
Scans to average: 1
Nonlinearity correction enabled: false
Boxcar width: 0
Storing dark spectrum: false
XAxis mode: Wavelengths
Number of Pixels in Spectrum: 1024
>>>>>Begin Spectral Data<<<<<
801.071	27884
801.214	27865
801.356	27553
801.499	27507
801.641	27542
801.783	27378
801.926	27488
802.068	27382
802.211	27230
802.353	27340
802.496	27116
802.638	26994
802.78	27142
802.923	27096
803.065	26979
803.208	27131
803.35	27127
803.492	27173
803.635	27203
803.777	27146
803.919	27230
804.061	27591
804.204	27348
804.346	27062
804.488	27222
804.63	27165
804.773	27161
804.915	27340
805.057	27325
805.199	27211
805.341	27405
805.483	27545
805.626	27443
805.768	27329
805.91	27256
806.052	27393
806.194	27226
806.336	27568
806.478	27443
806.62	27488
806.762	27561
806.904	27515
807.046	27941
807.188	27804
807.33	27690
807.472	27618
807.614	27739
807.756	27793
807.898	27667
808.04	27599
808.182	27633
808.324	27644
808.465	27671
808.607	27941
808.749	28078
808.891	28211
809.033	28147
809.174	28010
809.316	27987
809.458	28116
809.6	27987
809.741	28219
809.883	28101
810.025	28329
810.166	28341
810.308	28299
810.45	28204
810.591	28230
810.733	28048
810.875	27994
811.016	27953
811.158	27857
811.299	28135
811.441	28207
811.582	28223
811.724	27911
811.865	28036
812.007	27930
812.148	28120
812.29	27934
812.431	28223
812.573	28360
812.714	28504
812.855	28519
812.997	28641
813.138	28850
813.279	28759
813.421	28687
813.562	28527
813.703	28398
813.845	28291
813.986	27964
814.127	27804
814.268	27701
814.41	27869
814.551	27770
814.692	27831
814.833	27751
814.974	27523
815.115	27774
815.256	27583
815.397	27663
815.539	27622
815.68	27530
815.821	27576
815.962	27477
816.103	27549
816.244	27397
816.385	27226
816.526	27260
816.666	27211
816.807	27074
816.948	27112
817.089	27230
817.23	27112
817.371	27013
817.512	27070
817.653	27116
817.793	27055
817.934	26948
818.075	27169
818.216	27062
818.356	26952
818.497	26914
818.638	26944
818.778	26842
818.919	26815
819.06	26796
819.2	27009
819.341	26952
819.481	26895
819.622	27176
819.762	27272
819.903	27336
820.043	27230
820.184	27123
820.324	27135
820.465	27123
820.605	27161
820.746	27184
820.886	27062
821.026	27173
821.167	27203
821.307	27294
821.447	27001
821.588	27028
821.728	26956
821.868	26708
822.008	26473
822.149	26575
822.289	26590
822.429	26362
822.569	26134
822.709	26111
822.849	26005
822.99	26073
823.13	26119
823.27	25917
823.41	25909
823.55	25795
823.69	25898
823.83	25871
823.97	25685
824.11	25696
824.25	25727
824.389	25632
824.529	25803
824.669	25830
824.809	25757
824.949	25780
825.089	25837
825.228	25731
825.368	25628
825.508	25491
825.648	25719
825.787	25597
825.927	25731
826.067	25491
826.206	25548
826.346	25540
826.485	25639
826.625	25586
826.765	25685
826.904	25647
827.044	25479
827.183	25419
827.323	25171
827.462	25320
827.601	25316
827.741	25384
827.88	25400
828.02	25183
828.159	25263
828.298	25362
828.437	25343
828.577	25221
828.716	25422
828.855	25217
828.994	24935
829.134	25031
829.273	25076
829.412	25061
829.551	24943
829.69	24977
829.829	24962
829.968	25095
830.107	25008
830.246	25099
830.385	25206
830.524	24970
830.663	24719
830.802	24738
830.941	24608
831.08	24597
831.219	24791
831.357	24650
831.496	24859
831.635	24422
831.774	24582
831.913	24483
832.051	24254
832.19	24464
832.329	24517
832.467	24407
832.606	24228
832.744	24152
832.883	24163
833.022	24224
833.16	24243
833.299	24365
833.437	24323
833.576	24441
833.714	24369
833.852	24254
833.991	24513
834.129	24566
834.267	24380
834.406	24285
834.544	24407
834.682	24308
834.821	24323
834.959	24479
835.097	24239
835.235	24395
835.373	24441
835.511	24327
835.65	24296
835.788	24125
835.926	24186
836.064	23954
836.202	24076
836.34	24194
836.478	24205
836.615	24273
836.753	24186
836.891	24228
837.029	24171
837.167	24205
837.305	24095
837.443	24041
837.58	24011
837.718	24030
837.856	24053
837.993	24015
838.131	24064
838.269	23961
838.406	23984
838.544	23817
838.681	23672
838.819	23623
838.956	23459
839.094	23421
839.231	23482
839.369	23665
839.506	23958
839.643	23687
839.781	23524
839.918	23429
840.055	23425
840.193	23520
840.33	23334
840.467	23471
840.604	23379
840.742	23646
840.879	23299
841.016	23417
841.153	23387
841.29	23478
841.427	23356
841.564	23474
841.701	23322
841.838	23448
841.975	23284
842.112	23299
842.249	23147
842.385	23147
842.522	23414
842.659	23280
842.796	23064
842.933	23109
843.069	23083
843.206	23090
843.343	23132
843.479	23159
843.616	23227
843.752	22957
843.889	23025
844.025	23166
844.162	22968
844.298	23090
844.435	22911
844.571	22957
844.708	23010
844.844	23117
844.98	23159
845.117	23140
845.253	23086
845.389	22866
845.525	22881
845.661	22869
845.798	22649
845.934	22774
846.07	22694
846.206	22748
846.342	22854
846.478	22611
846.614	22516
846.75	22440
846.886	22360
847.022	22432
847.158	22398
847.294	22386
847.429	22440
847.565	22542
847.701	22596
847.837	22204
847.972	22101
848.108	22303
848.244	22177
848.379	22086
848.515	21994
848.65	21983
848.786	22017
848.921	22040
849.057	22116
849.192	22135
849.328	22101
849.463	22032
849.598	22067
849.734	21994
849.869	21922
850.004	21816
850.14	21793
850.275	21880
850.41	21842
850.545	21785
850.68	21808
850.815	21785
850.95	21827
851.085	21968
851.22	21937
851.355	21705
851.49	21728
851.625	21755
851.76	21690
851.895	21728
852.03	21709
852.165	21652
852.299	21785
852.434	22010
852.569	21816
852.703	21762
852.838	21827
852.973	21937
853.107	21850
853.242	21747
853.376	21568
853.511	21530
853.645	21622
853.78	21705
853.914	21618
854.048	21564
854.183	21663
854.317	21583
854.451	21819
854.585	21648
854.72	21622
854.854	21660
854.988	21496
855.122	21553
855.256	21469
855.39	21500
855.524	21770
855.658	21481
855.792	21610
855.926	21591
856.06	21515
856.194	21705
856.327	21728
856.461	21469
856.595	21492
856.729	21553
856.862	21823
856.996	21667
857.13	21766
857.263	21728
857.397	21781
857.53	21549
857.664	21580
857.797	21637
857.931	21705
858.064	21599
858.197	21663
858.331	21660
858.464	21511
858.597	21603
858.731	21549
858.864	21542
858.997	21507
859.13	21652
859.263	21698
859.396	21644
859.529	21641
859.662	21625
859.795	21504
859.928	21690
860.061	21686
860.194	21724
860.327	21580
860.46	21686
860.592	21785
860.725	21762
860.858	21713
860.99	21553
861.123	21538
861.256	21534
861.388	21572
861.521	22238
861.653	21447
861.786	21416
861.918	21405
862.05	21557
862.183	21572
862.315	21553
862.447	21534
862.58	21523
862.712	21317
862.844	21260
862.976	21367
863.108	21359
863.24	21713
863.372	21256
863.504	21496
863.636	21294
863.768	21294
863.9	21340
864.032	21241
864.164	21195
864.296	21275
864.428	21462
864.559	21462
864.691	21378
864.823	21447
864.954	21241
865.086	21302
865.217	21214
865.349	21135
865.48	21211
865.612	21268
865.743	21386
865.875	21237
866.006	21093
866.137	21188
866.269	21203
866.4	21089
866.531	21127
866.662	21043
866.793	21036
866.924	21062
867.055	21268
867.186	21264
867.317	21104
867.448	21112
867.579	21066
867.71	20979
867.841	21070
867.972	21207
868.103	21085
868.233	21077
868.364	21142
868.495	21298
868.625	21310
868.756	21462
868.886	21408
869.017	21218
869.147	21530
869.278	21367
869.408	21386
869.539	21416
869.669	21553
869.799	21496
869.929	21507
870.06	21431
870.19	21637
870.32	21625
870.45	21660
870.58	21755
870.71	21972
870.84	21759
870.97	21686
871.1	21759
871.23	21915
871.36	21941
871.489	21857
871.619	21922
871.749	21945
871.879	21972
872.008	22097
872.138	21975
872.267	22048
872.397	21739
872.526	21770
872.656	21778
872.785	21774
872.915	21930
873.044	22032
873.173	22021
873.303	22036
873.432	22048
873.561	22036
873.69	21941
873.819	21907
873.948	21975
874.077	21873
874.206	22013
874.335	21960
874.464	22124
874.593	22261
874.722	22147
874.851	22147
874.979	22246
875.108	22261
875.237	22200
875.365	22032
875.494	22166
875.623	22287
875.751	22177
875.88	22329
876.008	22356
876.136	22428
876.265	22584
876.393	22740
876.521	22649
876.65	22660
876.778	22645
876.906	22519
877.034	22462
877.162	22577
877.29	22455
877.418	22626
877.546	22596
877.674	22615
877.802	22527
877.93	22569
878.058	22512
878.185	22356
878.313	22493
878.441	22565
878.568	22318
878.696	22341
878.824	22382
878.951	22771
879.079	22721
879.206	22820
879.333	22713
879.461	22596
879.588	22592
879.715	22752
879.842	22869
879.97	22637
880.097	22451
880.224	22367
880.351	22394
880.478	22344
880.605	22284
880.732	22329
880.859	22706
880.986	22268
881.112	22432
881.239	22284
881.366	22124
881.493	22006
881.619	21941
881.746	21945
881.872	21915
881.999	21918
882.125	21907
882.252	22048
882.378	21968
882.505	22105
882.631	21785
882.757	21545
882.883	21739
883.01	21762
883.136	21557
883.262	21572
883.388	21454
883.514	21599
883.64	21667
883.766	21515
883.892	21397
884.018	21492
884.143	21591
884.269	21583
884.395	21359
884.52	21192
884.646	21298
884.772	21135
884.897	21138
885.023	21252
885.148	21431
885.274	21393
885.399	21450
885.524	21351
885.65	21416
885.775	21237
885.9	21131
886.025	21298
886.15	21405
886.275	21192
886.4	21157
886.525	21230
886.65	21313
886.775	21241
886.9	21450
887.025	21477
887.149	21298
887.274	21214
887.399	21032
887.523	21096
887.648	20975
887.773	20823
887.897	21123
888.021	21028
888.146	20933
888.27	21058
888.395	21256
888.519	21009
888.643	21047
888.767	21127
888.891	21013
889.015	20895
889.139	20693
889.263	20838
889.387	21135
889.511	21089
889.635	20982
889.759	20769
889.883	20804
890.006	20754
890.13	20876
890.254	20701
890.377	20804
890.501	20568
890.624	20602
890.748	20552
890.871	20522
890.995	20396
891.118	20374
891.241	20358
891.364	20328
891.488	20503
891.611	20317
891.734	20381
891.857	20545
891.98	20389
892.103	20446
892.226	20393
892.349	20332
892.471	20229
892.594	20381
892.717	20336
892.839	20282
892.962	20336
893.085	20396
893.207	20214
893.33	20202
893.452	20343
893.575	20358
893.697	20187
893.819	20465
893.941	20480
894.064	20545
894.186	20290
894.308	20172
894.43	20412
894.552	20480
894.674	20320
894.796	20214
894.918	20225
895.04	20275
895.161	20267
895.283	20218
895.405	20202
895.526	20252
895.648	20225
895.769	20370
895.891	20438
896.012	20499
896.134	20244
896.255	20309
896.376	20286
896.498	20366
896.619	20278
896.74	20309
896.861	20343
896.982	20590
897.103	20823
897.224	20480
897.345	20454
897.466	20404
897.587	20461
897.708	20587
897.828	20533
897.949	20423
898.07	20195
898.19	20408
898.311	20613
898.431	20412
898.552	20465
898.672	20526
898.792	20537
898.913	20480
899.033	20256
899.153	20370
899.273	20233
899.393	20290
899.513	20366
899.633	20183
899.753	20244
899.873	19947
899.993	20271
900.113	20305
900.232	20130
900.352	20126
900.472	20206
900.591	20050
900.711	20081
900.83	19906
900.95	20172
901.069	20065
901.189	19955
901.308	19613
901.427	19620
901.546	19571
901.665	19689
901.784	19590
901.904	19449
902.023	19343
902.141	19213
902.26	19156
902.379	19228
902.498	19095
902.617	19137
902.735	19107
902.854	19042
902.973	19057
903.091	18787
903.21	18768
903.328	18764
903.446	18783
903.565	18601
903.683	18585
903.801	18563
903.919	18536
904.038	18521
904.156	18433
904.274	18395
904.392	18323
904.51	18304
904.627	18391
904.745	18445
904.863	18441
904.981	18186
905.098	18095
905.216	18102
905.334	18076
905.451	18117
905.569	17977
905.686	18038
905.803	17904
905.921	17904
906.038	17950
906.155	17805
906.272	17752
906.389	17691
906.506	17509
906.623	17680
906.74	17532
906.857	17345
906.974	17497
907.091	17573
907.208	17733
907.324	17528
907.441	17474
907.557	17284
907.674	17220
907.79	17284
907.907	17261
908.023	17280
908.139	17265
908.256	17254
908.372	17181
908.488	17117
908.604	16999
908.72	16820
908.836	17067
908.952	16995
909.068	16965
909.184	17086
909.3	16968
909.415	16995
909.531	16923
909.647	16736
909.762	16729
909.878	16664
909.993	16672
910.108	16660
910.224	16645
910.339	16672
910.454	16561
910.57	16455
910.685	16485
910.8	16637
910.915	16611
911.03	16519
911.145	16242
911.259	16253
911.374	16287
911.489	16215
911.604	16234
911.718	15930
911.833	16097
911.947	15838
912.062	15918
912.176	16025
912.291	15930
912.405	15861
912.519	16131
912.633	16249
912.748	16036
912.862	15937
912.976	15800
913.09	15622
913.204	15922
913.318	15827
913.431	15998
913.545	15873
913.659	15972
913.772	15793
913.886	15709
914	15660
914.113	15766
914.226	15823
914.34	15694
914.453	15595
914.566	15641
914.68	15447
914.793	15477
914.906	15401
915.019	15275
915.132	15218
915.245	15230
915.358	15230
915.47	15275
915.583	15298
915.696	15256
915.809	15393
915.921	15332
916.034	15188
916.146	15097
916.259	15097
916.371	15249
916.483	15188
916.595	15024
916.708	15146
916.82	15032
916.932	15081
917.044	15055
917.156	15043
917.268	14925
917.38	14902
917.491	14910
917.603	14853
917.715	14899
917.826	14941
917.938	14826
918.049	14705
918.161	14883
918.272	14967
918.384	14998
918.495	14864
918.606	14754
918.717	14663
918.828	14651
918.939	14701
919.05	14579
919.161	14670
919.272	14461
919.383	14522
919.494	14689
919.604	14773
919.715	14598
919.826	14533
919.936	14606
920.047	14720
920.157	14602
920.267	14800
920.378	14708
920.488	14575
920.598	14815
920.708	14861
920.818	14735
920.928	14746
921.038	14933
921.148	14876
921.258	14602
921.368	14412
921.477	14370
921.587	14309
921.697	14298
921.806	14347
921.916	14225
922.025	14027
922.134	13932
922.244	13898
922.353	13967
922.462	13799
922.571	13803
922.68	13727
922.789	13567
922.898	13700
923.007	13514
923.116	13616
923.224	13613
923.333	13609
923.442	13460
923.55	13586
923.659	13529
923.767	13445
923.876	13407
923.984	13468
924.092	13240
924.201	13396
924.309	13320
924.417	13346
924.525	13270
924.633	13400
924.741	14187
924.849	13031
924.956	13228
925.064	13080
925.172	13114
925.279	13000
925.387	13088
925.494	13046
925.602	13114
925.709	13008
925.816	12966
925.924	12981
926.031	13099
926.138	12935
926.245	12928
926.352	12966
926.459	13000
926.566	13057
926.673	12905
926.779	12772
926.886	12844
926.993	12635
927.099	12574
927.206	12532
927.312	12555
927.419	12623
927.525	12574
927.631	12715
927.737	12486
927.843	12426
927.95	12346
928.056	12376
928.162	12486
928.267	12452
928.373	13038
928.479	12414
928.585	12205
928.69	12391
928.796	12460
928.901	12258
929.007	12121
929.112	12327
929.218	12216
929.323	12178
929.428	12190
929.533	12296
929.638	12045
929.743	12068
929.848	12148
929.953	12053
930.058	12034
930.163	11813
930.267	11798
930.372	11977
930.477	11752
930.581	12015
930.685	11847
930.79	11737
930.894	11767
930.998	11729
931.103	11821
931.207	11535
931.311	11436
931.415	11277
931.519	11109
931.623	11003
