Data from test_V78500241_1622.txt Node
Date: Fri Mar 25 15:21:09 CST 2022
User: usil
Spectrometer: V785-0024
Trigger mode: 0
Integration Time (sec): 4.000000E-1
Scans to average: 1
Nonlinearity correction enabled: false
Boxcar width: 0
Storing dark spectrum: false
XAxis mode: Wavelengths
Number of Pixels in Spectrum: 1024
>>>>>Begin Spectral Data<<<<<
801.071	27914
801.214	27804
801.356	27724
801.499	27606
801.641	27481
801.783	27340
801.926	27466
802.068	27553
802.211	27447
802.353	27291
802.496	27184
802.638	27173
802.78	27142
802.923	27032
803.065	26975
803.208	26944
803.35	27237
803.492	27203
803.635	27310
803.777	27291
803.919	27291
804.061	27591
804.204	27214
804.346	27211
804.488	27184
804.63	27275
804.773	27184
804.915	27268
805.057	27351
805.199	27336
805.341	27374
805.483	27549
805.626	27370
805.768	27332
805.91	27393
806.052	27504
806.194	27462
806.336	27583
806.478	27488
806.62	27447
806.762	27534
806.904	27641
807.046	27953
807.188	27956
807.33	27827
807.472	27930
807.614	27728
807.756	27880
807.898	27755
808.04	27675
808.182	27606
808.324	27694
808.465	27538
808.607	27956
808.749	28040
808.891	28059
809.033	28196
809.174	28070
809.316	28010
809.458	28051
809.6	28044
809.741	28268
809.883	28173
810.025	28287
810.166	28417
810.308	28318
810.45	28150
810.591	28086
810.733	28093
810.875	28147
811.016	27960
811.158	27964
811.299	28002
811.441	28181
811.582	28185
811.724	27991
811.865	27972
812.007	28021
812.148	27949
812.29	27956
812.431	28219
812.573	28379
812.714	28428
812.855	28565
812.997	28694
813.138	28793
813.279	28679
813.421	28348
813.562	28413
813.703	28291
813.845	28188
813.986	28006
814.127	28013
814.268	27774
814.41	27732
814.551	27660
814.692	27743
814.833	27827
814.974	27705
815.115	27705
815.256	27580
815.397	27614
815.539	27698
815.68	27599
815.821	27488
815.962	27500
816.103	27591
816.244	27443
816.385	27370
816.526	27313
816.666	27146
816.807	27051
816.948	27043
817.089	27184
817.23	27127
817.371	27020
817.512	26979
817.653	27013
817.793	26830
817.934	27005
818.075	27104
818.216	26963
818.356	26830
818.497	26940
818.638	26823
818.778	26788
818.919	26697
819.06	26762
819.2	26857
819.341	27047
819.481	26826
819.622	27256
819.762	27359
819.903	27336
820.043	27214
820.184	27192
820.324	27028
820.465	27207
820.605	27074
820.746	27070
820.886	27108
821.026	27161
821.167	26998
821.307	27157
821.447	27055
821.588	26975
821.728	26838
821.868	26571
822.008	26571
822.149	26541
822.289	26427
822.429	26233
822.569	26309
822.709	26206
822.849	26092
822.99	26168
823.13	25860
823.27	25993
823.41	25875
823.55	25582
823.69	25925
823.83	25868
823.97	25830
824.11	25643
824.25	25647
824.389	25666
824.529	25685
824.669	25788
824.809	25761
824.949	25841
825.089	25670
825.228	25674
825.368	25441
825.508	25514
825.648	25521
825.787	25525
825.927	25400
826.067	25453
826.206	25434
826.346	25491
826.485	25472
826.625	25365
826.765	25441
826.904	25567
827.044	25263
827.183	25194
827.323	25240
827.462	25324
827.601	25194
827.741	25263
827.88	25335
828.02	25183
828.159	25103
828.298	25308
828.437	25316
828.577	25031
828.716	25304
828.855	25152
828.994	24985
829.134	25099
829.273	25004
829.412	24856
829.551	24909
829.69	24905
829.829	24897
829.968	24928
830.107	25038
830.246	24932
830.385	24947
830.524	24817
830.663	24821
830.802	24749
830.941	24627
831.08	24509
831.219	24597
831.357	24585
831.496	24726
831.635	24608
831.774	24426
831.913	24441
832.051	24388
832.19	24304
832.329	24323
832.467	24273
832.606	24205
832.744	24057
832.883	24232
833.022	24300
833.16	24281
833.299	24182
833.437	24228
833.576	24262
833.714	24270
833.852	24350
833.991	24361
834.129	24304
834.267	24258
834.406	24270
834.544	24308
834.682	24232
834.821	24266
834.959	24410
835.097	24224
835.235	24292
835.373	24213
835.511	24285
835.65	24114
835.788	24095
835.926	24022
836.064	23946
836.202	24102
836.34	24087
836.478	24197
836.615	24148
836.753	24041
836.891	24186
837.029	24140
837.167	23969
837.305	24106
837.443	24038
837.58	23973
837.718	24098
837.856	23946
837.993	23901
838.131	23859
838.269	23874
838.406	23847
838.544	23703
838.681	23604
838.819	23554
838.956	23474
839.094	23474
839.231	23490
839.369	23619
839.506	23904
839.643	23729
839.781	23551
839.918	23315
840.055	23486
840.193	23516
840.33	23353
840.467	23383
840.604	23425
840.742	23478
840.879	23162
841.016	23307
841.153	23166
841.29	23433
841.427	23235
841.564	23334
841.701	23349
841.838	23151
841.975	23147
842.112	23121
842.249	23220
842.385	23098
842.522	23261
842.659	23136
842.796	23048
842.933	23098
843.069	23105
843.206	23109
843.343	23307
843.479	23079
843.616	23060
843.752	22930
843.889	22858
844.025	22987
844.162	22904
844.298	22904
844.435	22805
844.571	22869
844.708	22873
844.844	23147
844.98	22873
845.117	22953
845.253	22854
845.389	22763
845.525	22797
845.661	22713
845.798	22767
845.934	22596
846.07	22535
846.206	22679
846.342	22675
846.478	22691
846.614	22371
846.75	22185
846.886	22405
847.022	22440
847.158	22379
847.294	22253
847.429	22466
847.565	22306
847.701	22527
847.837	22120
847.972	22139
848.108	22207
848.244	22192
848.379	22010
848.515	21892
848.65	21945
848.786	22006
848.921	21899
849.057	22036
849.192	21953
849.328	22021
849.463	22013
849.598	22021
849.734	21785
849.869	21861
850.004	21709
850.14	21778
850.275	21766
850.41	21629
850.545	21576
850.68	21671
850.815	21739
850.95	21690
851.085	21937
851.22	21709
851.355	21698
851.49	21732
851.625	21603
851.76	21732
851.895	21572
852.03	21576
852.165	21629
852.299	21682
852.434	21876
852.569	21701
852.703	21682
852.838	21823
852.973	21854
853.107	21873
853.242	21644
853.376	21576
853.511	21310
853.645	21450
853.78	21500
853.914	21595
854.048	21473
854.183	21507
854.317	21564
854.451	21762
854.585	21492
854.72	21458
854.854	21583
854.988	21561
855.122	21408
855.256	21416
855.39	21519
855.524	21519
855.658	21549
855.792	21553
855.926	21595
856.06	21564
856.194	21599
856.327	21629
856.461	21545
856.595	21454
856.729	21549
856.862	21599
856.996	21564
857.13	21530
857.263	21637
857.397	21587
857.53	21428
857.664	21496
857.797	21614
857.931	21625
858.064	21663
858.197	21724
858.331	21606
858.464	21485
858.597	21454
858.731	21473
858.864	21492
858.997	21561
859.13	21473
859.263	21469
859.396	21488
859.529	21469
859.662	21469
859.795	21382
859.928	21599
860.061	21747
860.194	21698
860.327	21690
860.46	21534
860.592	21694
860.725	21663
860.858	21637
860.99	21648
861.123	21408
861.256	21397
861.388	21587
861.521	22207
861.653	21488
861.786	21351
861.918	21313
862.05	21291
862.183	21370
862.315	21412
862.447	21648
862.58	21401
862.712	21272
862.844	21142
862.976	21317
863.108	21165
863.24	21564
863.372	21188
863.504	21180
863.636	21135
863.768	21150
863.9	21138
864.032	21252
864.164	21192
864.296	21252
864.428	21291
864.559	21230
864.691	21241
864.823	21298
864.954	21291
865.086	21279
865.217	21222
865.349	21150
865.48	21142
865.612	21089
865.743	21298
865.875	21100
866.006	21058
866.137	21184
866.269	21028
866.4	21066
866.531	21066
866.662	21032
866.793	21020
866.924	21043
867.055	21074
867.186	21062
867.317	20975
867.448	21055
867.579	21020
867.71	20956
867.841	21036
867.972	21070
868.103	21116
868.233	21013
868.364	21017
868.495	21154
868.625	21279
868.756	21424
868.886	21146
869.017	21291
869.147	21363
869.278	21416
869.408	21256
869.539	21256
869.669	21317
869.799	21252
869.929	21435
870.06	21279
870.19	21572
870.32	21473
870.45	21637
870.58	21663
870.71	21759
870.84	21793
870.97	21690
871.1	21743
871.23	21915
871.36	21873
871.489	21747
871.619	21827
871.749	21846
871.879	21873
872.008	21892
872.138	21991
872.267	21998
872.397	21869
872.526	21751
872.656	21770
872.785	21720
872.915	21956
873.044	22029
873.173	21903
873.303	22002
873.432	21979
873.561	22055
873.69	21915
873.819	21918
873.948	22010
874.077	21876
874.206	22013
874.335	21895
874.464	22006
874.593	22192
874.722	22059
874.851	22169
874.979	22238
875.108	22154
875.237	22090
875.365	22044
875.494	22162
875.623	22055
875.751	22131
875.88	22131
876.008	22253
876.136	22337
876.265	22584
876.393	22500
876.521	22615
876.65	22592
876.778	22611
876.906	22474
877.034	22436
877.162	22466
877.29	22417
877.418	22542
877.546	22561
877.674	22519
877.802	22413
877.93	22485
878.058	22367
878.185	22360
878.313	22375
878.441	22470
878.568	22303
878.696	22367
878.824	22504
878.951	22447
879.079	22672
879.206	22675
879.333	22573
879.461	22508
879.588	22698
879.715	22626
879.842	22706
879.97	22611
880.097	22344
880.224	22352
880.351	22337
880.478	22421
880.605	22219
880.732	22192
880.859	22618
880.986	22287
881.112	22306
881.239	22207
881.366	22021
881.493	22070
881.619	21926
881.746	21793
881.872	21903
881.999	21934
882.125	21793
882.252	21949
882.378	21823
882.505	22036
882.631	21785
882.757	21526
882.883	21576
883.01	21580
883.136	21534
883.262	21412
883.388	21367
883.514	21587
883.64	21641
883.766	21599
883.892	21272
884.018	21439
884.143	21401
884.269	21671
884.395	21283
884.52	21180
884.646	21218
884.772	21176
884.897	21077
885.023	21199
885.148	21321
885.274	21329
885.399	21317
885.524	21184
885.65	21184
885.775	21192
885.9	21203
886.025	21233
886.15	21123
886.275	21256
886.4	21081
886.525	21116
886.65	21135
886.775	21112
886.9	21237
887.025	21378
887.149	21207
887.274	21127
887.399	20990
887.523	20994
887.648	20929
887.773	20845
887.897	21077
888.021	21024
888.146	20853
888.27	21100
888.395	21051
888.519	21028
888.643	20914
888.767	20952
888.891	20804
889.015	20693
889.139	20689
889.263	20716
889.387	20910
889.511	20990
889.635	20845
889.759	20792
889.883	20644
890.006	20777
890.13	20891
890.254	20804
890.377	20743
890.501	20530
890.624	20549
890.748	20514
890.871	20412
890.995	20408
891.118	20389
891.241	20450
891.364	20381
891.488	20537
891.611	20374
891.734	20309
891.857	20469
891.98	20324
892.103	20237
892.226	20282
892.349	20377
892.471	20172
892.594	20309
892.717	20347
892.839	20195
892.962	20240
893.085	20267
893.207	20122
893.33	20168
893.452	20138
893.575	20336
893.697	20176
893.819	20393
893.941	20423
894.064	20446
894.186	20168
894.308	20081
894.43	20309
894.552	20473
894.674	20225
894.796	20176
894.918	20305
895.04	20202
895.161	20256
895.283	20290
895.405	20119
895.526	20336
895.648	20126
895.769	20161
895.891	20252
896.012	20320
896.134	20275
896.255	20233
896.376	20145
896.498	20282
896.619	20248
896.74	20282
896.861	20305
896.982	20412
897.103	20682
897.224	20465
897.345	20362
897.466	20415
897.587	20465
897.708	20484
897.828	20385
897.949	20408
898.07	20252
898.19	20320
898.311	20533
898.431	20362
898.552	20320
898.672	20427
898.792	20537
898.913	20427
899.033	20301
899.153	20244
899.273	20054
899.393	20172
899.513	20263
899.633	20180
899.753	20081
899.873	20176
899.993	20153
900.113	20035
900.232	20183
900.352	20005
900.472	20039
900.591	19894
900.711	19940
900.83	19955
900.95	20024
901.069	19993
901.189	19799
901.308	19712
901.427	19689
901.546	19567
901.665	19575
901.784	19548
901.904	19392
902.023	19324
902.141	19175
902.26	19061
902.379	19183
902.498	19114
902.617	19023
902.735	19118
902.854	19008
902.973	19012
903.091	18798
903.21	18646
903.328	18707
903.446	18604
903.565	18544
903.683	18471
903.801	18384
903.919	18418
904.038	18490
904.156	18350
904.274	18407
904.392	18308
904.51	18296
904.627	18136
904.745	18304
904.863	18361
904.981	18159
905.098	18110
905.216	17889
905.334	18003
905.451	17927
905.569	17988
905.686	17950
905.803	17965
905.921	17733
906.038	17855
906.155	17729
906.272	17676
906.389	17619
906.506	17623
906.623	17535
906.74	17566
906.857	17391
906.974	17440
907.091	17512
907.208	17566
907.324	17463
907.441	17364
907.557	17288
907.674	17239
907.79	17216
907.907	17151
908.023	17220
908.139	17204
908.256	17117
908.372	17128
908.488	17079
908.604	16995
908.72	16896
908.836	16927
908.952	16900
909.068	16961
909.184	17075
909.3	16858
909.415	16877
909.531	16911
909.647	16691
909.762	16596
909.878	16531
909.993	16683
910.108	16588
910.224	16607
910.339	16637
910.454	16428
910.57	16493
910.685	16295
910.8	16675
910.915	16523
911.03	16447
911.145	16284
911.259	16295
911.374	16253
911.489	16169
911.604	16124
911.718	15934
911.833	15956
911.947	15823
912.062	15816
912.176	15972
912.291	15903
912.405	16025
912.519	16135
912.633	16181
912.748	16040
912.862	15953
912.976	15717
913.09	15675
913.204	15785
913.318	15751
913.431	15880
913.545	15838
913.659	15873
913.772	15751
913.886	15686
914	15515
914.113	15564
914.226	15629
914.34	15701
914.453	15511
914.566	15652
914.68	15572
914.793	15443
914.906	15294
915.019	15161
915.132	15146
915.245	15131
915.358	15150
915.47	15230
915.583	15256
915.696	15226
915.809	15275
915.921	15279
916.034	15173
916.146	15131
916.259	15104
916.371	15233
916.483	15146
916.595	15135
916.708	15017
916.82	14994
916.932	14990
917.044	15051
917.156	14910
917.268	14944
917.38	14895
917.491	14861
917.603	14819
917.715	14998
917.826	14941
917.938	14785
918.049	14644
918.161	14762
918.272	14956
918.384	14883
918.495	14819
918.606	14629
918.717	14716
918.828	14621
918.939	14549
919.05	14575
919.161	14575
919.272	14408
919.383	14450
919.494	14674
919.604	14739
919.715	14610
919.826	14564
919.936	14556
920.047	14651
920.157	14545
920.267	14762
920.378	14648
920.488	14564
920.598	14712
920.708	14762
920.818	14754
920.928	14807
921.038	14876
921.148	14800
921.258	14560
921.368	14533
921.477	14320
921.587	14355
921.697	14199
921.806	14351
921.916	14195
922.025	14088
922.134	13894
922.244	13871
922.353	14001
922.462	13879
922.571	13856
922.68	13662
922.789	13537
922.898	13715
923.007	13548
923.116	13575
923.224	13556
923.333	13597
923.442	13472
923.55	13438
923.659	13472
923.767	13537
923.876	13308
923.984	13464
924.092	13331
924.201	13388
924.309	13327
924.417	13266
924.525	13285
924.633	13327
924.741	14252
924.849	13031
924.956	13251
925.064	13107
925.172	12970
925.279	13000
925.387	13122
925.494	12951
925.602	13164
925.709	13107
925.816	12981
925.924	12905
926.031	13118
926.138	13008
926.245	13057
926.352	12810
926.459	13046
926.566	13019
926.673	12863
926.779	12734
926.886	12730
926.993	12608
927.099	12540
927.206	12506
927.312	12521
927.419	12677
927.525	12650
927.631	12589
927.737	12544
927.843	12410
927.95	12388
928.056	12464
928.162	12414
928.267	12475
928.373	13114
928.479	12403
928.585	12308
928.69	12372
928.796	12395
928.901	12277
929.007	12129
929.112	12361
929.218	12304
929.323	12182
929.428	12064
929.533	12285
929.638	12125
929.743	12201
929.848	12095
929.953	12057
930.058	12038
930.163	11847
930.267	11824
930.372	11882
930.477	11817
930.581	12011
930.685	11851
930.79	11653
930.894	11684
930.998	11642
931.103	11813
931.207	11349
931.311	11345
931.415	11349
931.519	11151
931.623	11045
