Data from test_V78500241_3489.txt Node
Date: Fri Mar 25 15:34:09 CST 2022
User: usil
Spectrometer: V785-0024
Trigger mode: 0
Integration Time (sec): 4.000000E-1
Scans to average: 1
Nonlinearity correction enabled: false
Boxcar width: 0
Storing dark spectrum: false
XAxis mode: Wavelengths
Number of Pixels in Spectrum: 1024
>>>>>Begin Spectral Data<<<<<
801.071	27218
801.214	27112
801.356	26914
801.499	26891
801.641	26769
801.783	26750
801.926	26739
802.068	26796
802.211	26750
802.353	26609
802.496	26602
802.638	26404
802.78	26476
802.923	26374
803.065	26263
803.208	26400
803.35	26412
803.492	26492
803.635	26655
803.777	26533
803.919	26575
804.061	26708
804.204	26678
804.346	26511
804.488	26404
804.63	26556
804.773	26396
804.915	26530
805.057	26648
805.199	26625
805.341	26727
805.483	26682
805.626	26594
805.768	26488
805.91	26739
806.052	26781
806.194	26533
806.336	26830
806.478	26629
806.62	26655
806.762	26796
806.904	26895
807.046	27055
807.188	27066
807.33	27013
807.472	27157
807.614	26979
807.756	26899
807.898	27009
808.04	26845
808.182	26887
808.324	26902
808.465	26940
808.607	26971
808.749	27184
808.891	27340
809.033	27389
809.174	27249
809.316	27329
809.458	27405
809.6	27089
809.741	27207
809.883	27412
810.025	27538
810.166	27656
810.308	27614
810.45	27466
810.591	27431
810.733	27123
810.875	27173
811.016	27188
811.158	27256
811.299	27344
811.441	27317
811.582	27344
811.724	27332
811.865	27142
812.007	27310
812.148	27256
812.29	27291
812.431	27317
812.573	27500
812.714	27667
812.855	27663
812.997	27766
813.138	27827
813.279	27823
813.421	27808
813.562	27743
813.703	27633
813.845	27519
813.986	27211
814.127	27055
814.268	26952
814.41	26940
814.551	26857
814.692	27085
814.833	26864
814.974	26876
815.115	26895
815.256	26648
815.397	26804
815.539	26785
815.68	26750
815.821	26579
815.962	26648
816.103	26701
816.244	26511
816.385	26412
816.526	26305
816.666	26237
816.807	26187
816.948	26259
817.089	26332
817.23	26142
817.371	26100
817.512	26187
817.653	26252
817.793	26206
817.934	26176
818.075	26267
818.216	26259
818.356	26172
818.497	26134
818.638	25883
818.778	25928
818.919	25841
819.06	25902
819.2	25963
819.341	26180
819.481	26122
819.622	26305
819.762	26480
819.903	26514
820.043	26229
820.184	26183
820.324	26259
820.465	26286
820.605	26298
820.746	26218
820.886	26138
821.026	26225
821.167	26252
821.307	26244
821.447	26107
821.588	26065
821.728	25947
821.868	25849
822.008	25620
822.149	25753
822.289	25518
822.429	25518
822.569	25255
822.709	25396
822.849	25152
822.99	25148
823.13	25012
823.27	25156
823.41	24981
823.55	24852
823.69	24856
823.83	24962
823.97	24821
824.11	24677
824.25	24798
824.389	24639
824.529	24905
824.669	24791
824.809	24829
824.949	24681
825.089	24913
825.228	24916
825.368	24677
825.508	24684
825.648	24772
825.787	24654
825.927	24589
826.067	24639
826.206	24585
826.346	24719
826.485	24700
826.625	24688
826.765	24764
826.904	24639
827.044	24330
827.183	24475
827.323	24338
827.462	24422
827.601	24391
827.741	24418
827.88	24346
828.02	24311
828.159	24292
828.298	24308
828.437	24445
828.577	24289
828.716	24357
828.855	24228
828.994	24121
829.134	24003
829.273	24125
829.412	23965
829.551	23950
829.69	23942
829.829	23958
829.968	24076
830.107	24136
830.246	24114
830.385	23950
830.524	23950
830.663	23748
830.802	23779
830.941	23642
831.08	23634
831.219	23756
831.357	23760
831.496	23863
831.635	23608
831.774	23558
831.913	23531
832.051	23463
832.19	23402
832.329	23448
832.467	23353
832.606	23364
832.744	23360
832.883	23383
833.022	23299
833.16	23349
833.299	23452
833.437	23398
833.576	23429
833.714	23547
833.852	23398
833.991	23474
834.129	23539
834.267	23543
834.406	23509
834.544	23436
834.682	23581
834.821	23299
834.959	23592
835.097	23436
835.235	23440
835.373	23455
835.511	23455
835.65	23353
835.788	23212
835.926	23025
836.064	23094
836.202	23151
836.34	23250
836.478	23440
836.615	23299
836.753	23174
836.891	23349
837.029	23220
837.167	23330
837.305	23098
837.443	23113
837.58	23121
837.718	23181
837.856	23090
837.993	23147
838.131	23121
838.269	22965
838.406	23056
838.544	22953
838.681	22717
838.819	22653
838.956	22668
839.094	22557
839.231	22538
839.369	22763
839.506	23083
839.643	22919
839.781	22630
839.918	22687
840.055	22649
840.193	22596
840.33	22557
840.467	22588
840.604	22668
840.742	22801
840.879	22379
841.016	22538
841.153	22474
841.29	22599
841.427	22550
841.564	22508
841.701	22417
841.838	22421
841.975	22504
842.112	22493
842.249	22428
842.385	22398
842.522	22516
842.659	22417
842.796	22325
842.933	22310
843.069	22215
843.206	22276
843.343	22322
843.479	22428
843.616	22192
843.752	22120
843.889	22226
844.025	22303
844.162	21968
844.298	22185
844.435	22120
844.571	22048
844.708	22135
844.844	22150
844.98	22234
845.117	22086
845.253	21983
845.389	21842
845.525	21945
845.661	21975
845.798	21907
845.934	21861
846.07	21789
846.206	21854
846.342	21816
846.478	21816
846.614	21690
846.75	21591
846.886	21587
847.022	21705
847.158	21629
847.294	21701
847.429	21648
847.565	21515
847.701	21835
847.837	21272
847.972	21291
848.108	21389
848.244	21321
848.379	21157
848.515	21131
848.65	21184
848.786	21127
848.921	21154
849.057	21199
849.192	21169
849.328	21169
849.463	21207
849.598	21081
849.734	21074
849.869	20906
850.004	20929
850.14	20948
850.275	20986
850.41	20914
850.545	20880
850.68	20933
850.815	20956
850.95	20815
851.085	20994
851.22	21123
851.355	20971
851.49	20975
851.625	20792
851.76	20876
851.895	20956
852.03	20823
852.165	20861
852.299	20838
852.434	20971
852.569	20849
852.703	20937
852.838	21032
852.973	21089
853.107	21066
853.242	20826
853.376	20750
853.511	20716
853.645	20625
853.78	21017
853.914	20678
854.048	20731
854.183	20864
854.317	20807
854.451	20918
854.585	20819
854.72	20693
854.854	20857
854.988	20701
855.122	20632
855.256	20651
855.39	20712
855.524	20849
855.658	20762
855.792	20811
855.926	20777
856.06	20720
856.194	20800
856.327	20670
856.461	20560
856.595	20705
856.729	20663
856.862	20804
856.996	20712
857.13	20701
857.263	20967
857.397	20864
857.53	20746
857.664	20731
857.797	20788
857.931	20785
858.064	20838
858.197	20853
858.331	20788
858.464	20746
858.597	20606
858.731	20712
858.864	20811
858.997	20556
859.13	20727
859.263	20819
859.396	20785
859.529	20739
859.662	20686
859.795	20663
859.928	20777
860.061	20899
860.194	20880
860.327	20777
860.46	20811
860.592	20864
860.725	20750
860.858	20842
860.99	20731
861.123	20640
861.256	20724
861.388	20781
861.521	21420
861.653	20750
861.786	20514
861.918	20617
862.05	20552
862.183	20511
862.315	20625
862.447	20708
862.58	20606
862.712	20423
862.844	20374
862.976	20503
863.108	20454
863.24	20921
863.372	20278
863.504	20377
863.636	20408
863.768	20537
863.9	20492
864.032	20461
864.164	20495
864.296	20503
864.428	20579
864.559	20564
864.691	20556
864.823	20473
864.954	20457
865.086	20393
865.217	20358
865.349	20259
865.48	20336
865.612	20336
865.743	20530
865.875	20343
866.006	20415
866.137	20248
866.269	20301
866.4	20305
866.531	20309
866.662	20324
866.793	20332
866.924	20271
867.055	20423
867.186	20305
867.317	20233
867.448	20183
867.579	20275
867.71	20199
867.841	20271
867.972	20286
868.103	20237
868.233	20278
868.364	20473
868.495	20488
868.625	20393
868.756	20598
868.886	20339
869.017	20450
869.147	20636
869.278	20644
869.408	20495
869.539	20575
869.669	20765
869.799	20564
869.929	20663
870.06	20701
870.19	20948
870.32	20842
870.45	20914
870.58	21013
870.71	21070
870.84	21005
870.97	20925
871.1	20906
871.23	21001
871.36	20979
871.489	21081
871.619	20956
871.749	21165
871.879	21154
872.008	21127
872.138	21169
872.267	21131
872.397	20975
872.526	21058
872.656	20994
872.785	21013
872.915	21138
873.044	21169
873.173	21154
873.303	21112
873.432	21325
873.561	21264
873.69	21169
873.819	21165
873.948	21351
874.077	21104
874.206	21089
874.335	21195
874.464	21374
874.593	21424
874.722	21294
874.851	21500
874.979	21412
875.108	21473
875.237	21431
875.365	21279
875.494	21397
875.623	21485
875.751	21481
875.88	21329
876.008	21557
876.136	21553
876.265	21895
876.393	21838
876.521	21808
876.65	21781
876.778	21797
876.906	21739
877.034	21793
877.162	21857
877.29	21644
877.418	21778
877.546	21701
877.674	21819
877.802	21800
877.93	21759
878.058	21941
878.185	21656
878.313	21736
878.441	21865
878.568	21622
878.696	21641
878.824	21755
878.951	21934
879.079	22025
879.206	22128
879.333	21930
879.461	21751
879.588	21873
879.715	21880
879.842	21975
879.97	21770
880.097	21572
880.224	21652
880.351	21599
880.478	21667
880.605	21618
880.732	21603
880.859	21835
880.986	21576
881.112	21762
881.239	21439
881.366	21344
881.493	21233
881.619	21203
881.746	21142
881.872	21192
881.999	21127
882.125	21028
882.252	21222
882.378	21062
882.505	21291
882.631	21070
882.757	20998
882.883	20937
883.01	20857
883.136	20788
883.262	20754
883.388	20689
883.514	20944
883.64	20773
883.766	20800
883.892	20632
884.018	20693
884.143	20777
884.269	21020
884.395	20549
884.52	20469
884.646	20606
884.772	20526
884.897	20507
885.023	20571
885.148	20655
885.274	20632
885.399	20648
885.524	20514
885.65	20522
885.775	20446
885.9	20393
886.025	20598
886.15	20632
886.275	20541
886.4	20480
886.525	20514
886.65	20514
886.775	20389
886.9	20549
887.025	20575
887.149	20339
887.274	20320
887.399	20305
887.523	20332
887.648	20313
887.773	20103
887.897	20393
888.021	20317
888.146	20157
888.27	20408
888.395	20324
888.519	20415
888.643	20328
888.767	20309
888.891	20172
889.015	20111
889.139	20172
889.263	20199
889.387	20206
889.511	20278
889.635	20210
889.759	20199
889.883	20138
890.006	20176
890.13	20225
890.254	20054
890.377	20050
890.501	19959
890.624	19898
890.748	19963
890.871	19746
890.995	19632
891.118	19632
891.241	19674
891.364	19814
891.488	19841
891.611	19689
891.734	19666
891.857	19772
891.98	19727
892.103	19704
892.226	19734
892.349	19635
892.471	19514
892.594	19655
892.717	19582
892.839	19556
892.962	19605
893.085	19658
893.207	19681
893.33	19449
893.452	19441
893.575	19632
893.697	19449
893.819	19693
893.941	19784
894.064	19639
894.186	19552
894.308	19643
894.43	19750
894.552	19871
894.674	19708
894.796	19544
894.918	19521
895.04	19438
895.161	19750
895.283	19693
895.405	19651
895.526	19544
895.648	19571
895.769	19620
895.891	19666
896.012	19769
896.134	19719
896.255	19757
896.376	19552
896.498	19696
896.619	19761
896.74	19601
896.861	19738
896.982	19986
897.103	20126
897.224	20008
897.345	19784
897.466	19780
897.587	19837
897.708	19967
897.828	19928
897.949	19890
898.07	19594
898.19	19685
898.311	19894
898.431	19753
898.552	19955
898.672	19871
898.792	20050
898.913	19974
899.033	19681
899.153	19681
899.273	19605
899.393	19525
899.513	19590
899.633	19651
899.753	19628
899.873	19525
899.993	19761
900.113	19571
900.232	19548
900.352	19449
900.472	19525
900.591	19354
900.711	19411
900.83	19324
900.95	19415
901.069	19438
901.189	19240
901.308	19088
901.427	19008
901.546	18973
901.665	18943
901.784	18989
901.904	18890
902.023	18875
902.141	18566
902.26	18532
902.379	18650
902.498	18426
902.617	18467
902.735	18532
902.854	18403
902.973	18456
903.091	18194
903.21	18102
903.328	18106
903.446	18057
903.565	17977
903.683	17939
903.801	17843
903.919	17969
904.038	17916
904.156	17824
904.274	17885
904.392	17821
904.51	17718
904.627	17710
904.745	17843
904.863	17779
904.981	17600
905.098	17341
905.216	17364
905.334	17497
905.451	17486
905.569	17433
905.686	17395
905.803	17459
905.921	17200
906.038	17315
906.155	17178
906.272	17121
906.389	17121
906.506	16938
906.623	17041
906.74	16984
906.857	16752
906.974	16809
907.091	17010
907.208	16968
907.324	17010
907.441	16748
907.557	16641
907.674	16656
907.79	16656
907.907	16656
908.023	16645
908.139	16691
908.256	16653
908.372	16565
908.488	16580
908.604	16546
908.72	16337
908.836	16451
908.952	16356
909.068	16390
909.184	16497
909.3	16436
909.415	16272
909.531	16455
909.647	16154
909.762	16074
909.878	16105
909.993	16021
910.108	16059
910.224	16059
910.339	16078
910.454	15915
910.57	15979
910.685	15930
910.8	16128
910.915	16051
911.03	15865
911.145	15736
911.259	15701
911.374	15694
911.489	15599
911.604	15679
911.718	15408
911.833	15553
911.947	15424
912.062	15401
912.176	15488
912.291	15519
912.405	15492
912.519	15671
912.633	15682
912.748	15519
912.862	15431
912.976	15370
913.09	15188
913.204	15351
913.318	15249
913.431	15386
913.545	15359
913.659	15382
913.772	15188
913.886	15047
914	15097
914.113	15226
914.226	15268
914.34	15138
914.453	15001
914.566	15157
914.68	14963
914.793	14921
914.906	14823
915.019	14746
915.132	14701
915.245	14750
915.358	14708
915.47	14686
915.583	14720
915.696	14735
915.809	14724
915.921	14868
916.034	14667
916.146	14568
916.259	14602
916.371	14765
916.483	14640
916.595	14518
916.708	14583
916.82	14594
916.932	14476
917.044	14560
917.156	14537
917.268	14370
917.38	14419
917.491	14393
917.603	14377
917.715	14438
917.826	14434
917.938	14355
918.049	14164
918.161	14389
918.272	14465
918.384	14438
918.495	14362
918.606	14134
918.717	14138
918.828	14187
918.939	14187
919.05	14062
919.161	14134
919.272	13970
919.383	13993
919.494	14176
919.604	14336
919.715	14157
919.826	14046
919.936	14130
920.047	14202
920.157	14111
920.267	14290
920.378	14176
920.488	14046
920.598	14214
920.708	14393
920.818	14176
920.928	14225
921.038	14408
921.148	14237
921.258	14062
921.368	14024
921.477	13906
921.587	13875
921.697	13734
921.806	13830
921.916	13704
922.025	13590
922.134	13518
922.244	13480
922.353	13590
922.462	13392
922.571	13308
922.68	13331
922.789	13179
922.898	13107
923.007	13179
923.116	13240
923.224	13149
923.333	13103
923.442	13038
923.55	13004
923.659	13015
923.767	13031
923.876	12958
923.984	13061
924.092	12947
924.201	13004
924.309	12825
924.417	13004
924.525	12905
924.633	12901
924.741	13563
924.849	12623
924.956	12764
925.064	12745
925.172	12570
925.279	12662
925.387	12631
925.494	12593
925.602	12639
925.709	12604
925.816	12486
925.924	12608
926.031	12681
926.138	12566
926.245	12608
926.352	12437
926.459	12604
926.566	12627
926.673	12479
926.779	12300
926.886	12289
926.993	12235
927.099	12266
927.206	12159
927.312	12167
927.419	12228
927.525	12251
927.631	12292
927.737	12106
927.843	12057
927.95	11973
928.056	11931
928.162	12030
928.267	12064
928.373	12544
928.479	12019
928.585	11817
928.69	11973
928.796	11973
928.901	11878
929.007	11756
929.112	11901
929.218	11828
929.323	11863
929.428	11745
929.533	11874
929.638	11600
929.743	11737
929.848	11748
929.953	11665
930.058	11558
930.163	11410
930.267	11463
930.372	11539
930.477	11421
930.581	11661
930.685	11467
930.79	11368
930.894	11330
930.998	11311
931.103	11398
931.207	11113
931.311	11041
931.415	10953
931.519	10721
931.623	10736
