Data from test_V78500241_2071.txt Node
Date: Fri Mar 25 15:24:16 CST 2022
User: usil
Spectrometer: V785-0024
Trigger mode: 0
Integration Time (sec): 4.000000E-1
Scans to average: 1
Nonlinearity correction enabled: false
Boxcar width: 0
Storing dark spectrum: false
XAxis mode: Wavelengths
Number of Pixels in Spectrum: 1024
>>>>>Begin Spectral Data<<<<<
801.071	27618
801.214	27523
801.356	27564
801.499	27332
801.641	27176
801.783	27283
801.926	27367
802.068	27329
802.211	27412
802.353	27161
802.496	27096
802.638	26963
802.78	26918
802.923	26899
803.065	26815
803.208	26857
803.35	26868
803.492	26948
803.635	27157
803.777	27077
803.919	27184
804.061	27473
804.204	27096
804.346	27058
804.488	27058
804.63	27154
804.773	26963
804.915	27112
805.057	27268
805.199	27043
805.341	27173
805.483	27378
805.626	27275
805.768	27131
805.91	27237
806.052	27279
806.194	27127
806.336	27386
806.478	27214
806.62	27275
806.762	27462
806.904	27443
807.046	27667
807.188	27728
807.33	27485
807.472	27587
807.614	27622
807.756	27660
807.898	27526
808.04	27370
808.182	27500
808.324	27557
808.465	27682
808.607	27663
808.749	27956
808.891	27918
809.033	28051
809.174	27895
809.316	27831
809.458	27857
809.6	27789
809.741	27956
809.883	28021
810.025	28112
810.166	28276
810.308	28143
810.45	28006
810.591	28044
810.733	27956
810.875	27804
811.016	27648
811.158	27667
811.299	27873
811.441	28029
811.582	28036
811.724	28032
811.865	27873
812.007	27930
812.148	27937
812.29	27880
812.431	28120
812.573	28166
812.714	28226
812.855	28432
812.997	28512
813.138	28577
813.279	28394
813.421	28432
813.562	28196
813.703	28166
813.845	28044
813.986	27873
814.127	27564
814.268	27561
814.41	27603
814.551	27519
814.692	27378
814.833	27648
814.974	27523
815.115	27587
815.256	27545
815.397	27469
815.539	27427
815.68	27313
815.821	27359
815.962	27344
816.103	27378
816.244	27294
816.385	27100
816.526	27116
816.666	26952
816.807	26807
816.948	26979
817.089	26967
817.23	26944
817.371	26880
817.512	26864
817.653	26765
817.793	26606
817.934	26785
818.075	26762
818.216	26815
818.356	26743
818.497	26625
818.638	26583
818.778	26552
818.919	26503
819.06	26724
819.2	26762
819.341	26880
819.481	26811
819.622	26925
819.762	27150
819.903	26979
820.043	26914
820.184	26944
820.324	26777
820.465	26998
820.605	26910
820.746	26921
820.886	26773
821.026	26785
821.167	26845
821.307	26883
821.447	26826
821.588	26758
821.728	26686
821.868	26453
822.008	26370
822.149	26286
822.289	26157
822.429	26168
822.569	25986
822.709	25970
822.849	25639
822.99	25894
823.13	25795
823.27	25704
823.41	25689
823.55	25479
823.69	25567
823.83	25613
823.97	25521
824.11	25388
824.25	25362
824.389	25472
824.529	25578
824.669	25464
824.809	25434
824.949	25476
825.089	25628
825.228	25449
825.368	25168
825.508	25312
825.648	25304
825.787	25308
825.927	25415
826.067	25327
826.206	25255
826.346	25225
826.485	25445
826.625	25251
826.765	25384
826.904	25255
827.044	24989
827.183	24939
827.323	24947
827.462	24973
827.601	24989
827.741	24989
827.88	25050
828.02	24871
828.159	25008
828.298	24992
828.437	25099
828.577	24901
828.716	25122
828.855	24848
828.994	24654
829.134	24741
829.273	24677
829.412	24715
829.551	24669
829.69	24604
829.829	24764
829.968	24852
830.107	24688
830.246	24745
830.385	24650
830.524	24608
830.663	24486
830.802	24456
830.941	24254
831.08	24388
831.219	24300
831.357	24399
831.496	24604
831.635	24315
831.774	24022
831.913	24197
832.051	24133
832.19	24213
832.329	24091
832.467	24034
832.606	23927
832.744	24022
832.883	24026
833.022	24030
833.16	23950
833.299	24030
833.437	24110
833.576	23927
833.714	23980
833.852	24053
833.991	23939
834.129	24007
834.267	24095
834.406	24106
834.544	24190
834.682	24072
834.821	24182
834.959	24186
835.097	24079
835.235	24102
835.373	23996
835.511	23988
835.65	23821
835.788	23977
835.926	23707
836.064	23729
836.202	23680
836.34	23847
836.478	23916
836.615	23809
836.753	23809
836.891	23904
837.029	23920
837.167	23843
837.305	23912
837.443	23737
837.58	23680
837.718	23809
837.856	23699
837.993	23726
838.131	23710
838.269	23585
838.406	23657
838.544	23570
838.681	23379
838.819	23349
838.956	23261
839.094	23181
839.231	23254
839.369	23410
839.506	23585
839.643	23452
839.781	23269
839.918	22995
840.055	23147
840.193	23239
840.33	23022
840.467	23246
840.604	23143
840.742	23322
840.879	23056
841.016	23010
841.153	23022
841.29	23132
841.427	23006
841.564	23151
841.701	23090
841.838	23071
841.975	23018
842.112	22976
842.249	22805
842.385	22904
842.522	23060
842.659	22904
842.796	22953
842.933	22782
843.069	22809
843.206	22774
843.343	22995
843.479	23003
843.616	22957
843.752	22691
843.889	22702
844.025	22744
844.162	22577
844.298	22790
844.435	22645
844.571	22683
844.708	22615
844.844	22854
844.98	22786
845.117	22809
845.253	22516
845.389	22440
845.525	22554
845.661	22493
845.798	22382
845.934	22356
846.07	22223
846.206	22303
846.342	22596
846.478	22386
846.614	22207
846.75	22029
846.886	22124
847.022	22192
847.158	22287
847.294	22093
847.429	22166
847.565	22139
847.701	22424
847.837	21873
847.972	21892
848.108	21838
848.244	21953
848.379	21739
848.515	21633
848.65	21660
848.786	21660
848.921	21736
849.057	21819
849.192	21629
849.328	21808
849.463	21656
849.598	21652
849.734	21595
849.869	21606
850.004	21515
850.14	21488
850.275	21492
850.41	21359
850.545	21317
850.68	21397
850.815	21447
850.95	21469
851.085	21568
851.22	21549
851.355	21424
851.49	21530
851.625	21317
851.76	21428
851.895	21382
852.03	21374
852.165	21496
852.299	21466
852.434	21603
852.569	21523
852.703	21477
852.838	21538
852.973	21545
853.107	21481
853.242	21336
853.376	21355
853.511	21131
853.645	21207
853.78	21336
853.914	21287
854.048	21218
854.183	21310
854.317	21313
854.451	21473
854.585	21241
854.72	21260
854.854	21412
854.988	21252
855.122	21230
855.256	21123
855.39	21363
855.524	21336
855.658	21252
855.792	21268
855.926	21393
856.06	21306
856.194	21325
856.327	21359
856.461	21184
856.595	21237
856.729	21287
856.862	21340
856.996	21268
857.13	21355
857.263	21325
857.397	21428
857.53	21310
857.664	21313
857.797	21218
857.931	21363
858.064	21325
858.197	21275
858.331	21218
858.464	21218
858.597	21081
858.731	21287
858.864	21195
858.997	21123
859.13	21241
859.263	21237
859.396	21408
859.529	21317
859.662	21154
859.795	21176
859.928	21306
860.061	21420
860.194	21511
860.327	21249
860.46	21272
860.592	21393
860.725	21382
860.858	21408
860.99	21439
861.123	21207
861.256	21112
861.388	21264
861.521	21956
861.653	21123
861.786	21154
861.918	21116
862.05	21249
862.183	21218
862.315	21195
862.447	21344
862.58	21249
862.712	21074
862.844	20872
862.976	20998
863.108	21180
863.24	21294
863.372	21017
863.504	20967
863.636	21020
863.768	21157
863.9	21062
864.032	20864
864.164	21043
864.296	21089
864.428	21096
864.559	21081
864.691	20963
864.823	20857
864.954	20982
865.086	20929
865.217	20937
865.349	20826
865.48	20883
865.612	20754
865.743	20921
865.875	20883
866.006	20845
866.137	20826
866.269	20876
866.4	21005
866.531	20845
866.662	20777
866.793	20880
866.924	20864
867.055	20731
867.186	20887
867.317	20834
867.448	20731
867.579	20800
867.71	20739
867.841	20663
867.972	20876
868.103	20754
868.233	20819
868.364	20834
868.495	20925
868.625	20994
868.756	21112
868.886	21036
869.017	20948
869.147	21157
869.278	21325
869.408	21154
869.539	21028
869.669	21207
869.799	21047
869.929	21192
870.06	21176
870.19	21466
870.32	21462
870.45	21401
870.58	21477
870.71	21523
870.84	21576
870.97	21485
871.1	21458
871.23	21557
871.36	21637
871.489	21553
871.619	21603
871.749	21580
871.879	21629
872.008	21717
872.138	21641
872.267	21633
872.397	21538
872.526	21370
872.656	21496
872.785	21477
872.915	21690
873.044	21739
873.173	21660
873.303	21785
873.432	21709
873.561	21800
873.69	21682
873.819	21709
873.948	21705
874.077	21755
874.206	21583
874.335	21587
874.464	21812
874.593	21968
874.722	21831
874.851	22105
874.979	21930
875.108	21873
875.237	21747
875.365	21736
875.494	21873
875.623	21945
875.751	21937
875.88	21888
876.008	22090
876.136	22112
876.265	22295
876.393	22394
876.521	22402
876.65	22341
876.778	22268
876.906	22253
877.034	22329
877.162	22150
877.29	22253
877.418	22268
877.546	22223
877.674	22325
877.802	22204
877.93	22318
878.058	22291
878.185	22154
878.313	22147
878.441	22177
878.568	22120
878.696	22177
878.824	22325
878.951	22394
879.079	22371
879.206	22573
879.333	22337
879.461	22280
879.588	22344
879.715	22432
879.842	22424
879.97	22234
880.097	22188
880.224	22029
880.351	22067
880.478	22040
880.605	22109
880.732	22154
880.859	22371
880.986	22128
881.112	22143
881.239	22040
881.366	21812
881.493	21789
881.619	21641
881.746	21637
881.872	21538
881.999	21580
882.125	21458
882.252	21686
882.378	21705
882.505	21660
882.631	21469
882.757	21344
882.883	21492
883.01	21447
883.136	21252
883.262	21249
883.388	21131
883.514	21310
883.64	21310
883.766	21233
883.892	21192
884.018	21154
884.143	21249
884.269	21389
884.395	21062
884.52	20937
884.646	21028
884.772	20982
884.897	20849
885.023	20944
885.148	21157
885.274	21192
885.399	21089
885.524	21176
885.65	21001
885.775	20880
885.9	20918
886.025	21150
886.15	21013
886.275	20906
886.4	20910
886.525	20857
886.65	20811
886.775	20887
886.9	20971
887.025	21116
887.149	20849
887.274	20792
887.399	20754
887.523	20731
887.648	20693
887.773	20663
887.897	20876
888.021	20762
888.146	20697
888.27	20804
888.395	20910
888.519	20651
888.643	20819
888.767	20807
888.891	20697
889.015	20484
889.139	20583
889.263	20457
889.387	20568
889.511	20765
889.635	20571
889.759	20644
889.883	20488
890.006	20518
890.13	20625
890.254	20423
890.377	20381
890.501	20275
890.624	20370
890.748	20282
890.871	20145
890.995	20161
891.118	20081
891.241	20195
891.364	20046
891.488	20339
891.611	20149
891.734	20077
891.857	20149
891.98	20107
892.103	20187
892.226	20100
892.349	19909
892.471	19860
892.594	20043
892.717	20024
892.839	19925
892.962	19883
893.085	20081
893.207	20073
893.33	20012
893.452	19909
893.575	20145
893.697	20020
893.819	20149
893.941	20107
894.064	20115
894.186	19947
894.308	19902
894.43	20096
894.552	20031
894.674	20073
894.796	19951
894.918	20016
895.04	19917
895.161	20149
895.283	20103
895.405	19970
895.526	20088
895.648	19997
895.769	19887
895.891	20024
896.012	20153
896.134	20088
896.255	20142
896.376	19986
896.498	20096
896.619	20111
896.74	19951
896.861	20039
896.982	20385
897.103	20396
897.224	20301
897.345	20320
897.466	20031
897.587	20267
897.708	20366
897.828	20271
897.949	20176
898.07	19993
898.19	20202
898.311	20240
898.431	20161
898.552	20229
898.672	20275
898.792	20153
898.913	20225
899.033	20126
899.153	20115
899.273	19944
899.393	20050
899.513	20005
899.633	20001
899.753	20016
899.873	19963
899.993	20016
900.113	19864
900.232	19906
900.352	19993
900.472	19852
900.591	19921
900.711	19731
900.83	19822
900.95	19917
901.069	19944
901.189	19647
901.308	19384
901.427	19278
901.546	19301
901.665	19434
901.784	19362
901.904	19278
902.023	19179
902.141	18852
902.26	19019
902.379	18954
902.498	18863
902.617	18817
902.735	18996
902.854	18856
902.973	18768
903.091	18578
903.21	18650
903.328	18563
903.446	18536
903.565	18384
903.683	18433
903.801	18273
903.919	18216
904.038	18296
904.156	18190
904.274	18197
904.392	18072
904.51	18136
904.627	18072
904.745	18117
904.863	18163
904.981	17923
905.098	17817
905.216	17805
905.334	17798
905.451	17878
905.569	17809
905.686	17752
905.803	17855
905.921	17535
906.038	17680
906.155	17722
906.272	17368
906.389	17474
906.506	17193
906.623	17326
906.74	17318
906.857	17223
906.974	17280
907.091	17334
907.208	17474
907.324	17296
907.441	17212
907.557	17128
907.674	17109
907.79	16957
907.907	17086
908.023	17033
908.139	17105
908.256	17071
908.372	16904
908.488	16957
908.604	16664
908.72	16713
908.836	16748
908.952	16736
909.068	16736
909.184	16805
909.3	16740
909.415	16717
909.531	16752
909.647	16493
909.762	16470
909.878	16402
909.993	16535
910.108	16394
910.224	16542
910.339	16478
910.454	16432
910.57	16276
910.685	16230
910.8	16462
910.915	16409
911.03	16287
911.145	16048
911.259	16086
911.374	16090
911.489	15994
911.604	15861
911.718	15831
911.833	15876
911.947	15751
912.062	15663
912.176	15781
912.291	15778
912.405	15652
912.519	15949
912.633	15991
912.748	15789
912.862	15781
912.976	15644
913.09	15511
913.204	15694
913.318	15698
913.431	15793
913.545	15682
913.659	15682
913.772	15629
913.886	15386
914	15530
914.113	15504
914.226	15606
914.34	15496
914.453	15336
914.566	15447
914.68	15272
914.793	15249
914.906	15074
915.019	15017
915.132	14967
915.245	14967
915.358	15024
915.47	15131
915.583	15013
915.696	15036
915.809	15051
915.921	15195
916.034	14967
916.146	14929
916.259	15020
916.371	15009
916.483	15043
916.595	14804
916.708	14861
916.82	14830
916.932	14758
917.044	14849
917.156	14800
917.268	14724
917.38	14697
917.491	14720
917.603	14701
917.715	14686
917.826	14731
917.938	14598
918.049	14610
918.161	14663
918.272	14788
918.384	14735
918.495	14659
918.606	14423
918.717	14393
918.828	14511
918.939	14457
919.05	14351
919.161	14438
919.272	14248
919.383	14305
919.494	14431
919.604	14602
919.715	14415
919.826	14336
919.936	14423
920.047	14488
920.157	14374
920.267	14560
920.378	14366
920.488	14377
920.598	14560
920.708	14720
920.818	14549
920.928	14541
921.038	14678
921.148	14602
921.258	14324
921.368	14259
921.477	14164
921.587	14157
921.697	14005
921.806	14244
921.916	14062
922.025	13879
922.134	13830
922.244	13807
922.353	13841
922.462	13670
922.571	13616
922.68	13548
922.789	13460
922.898	13495
923.007	13377
923.116	13457
923.224	13506
923.333	13392
923.442	13381
923.55	13247
923.659	13331
923.767	13304
923.876	13297
923.984	13350
924.092	13133
924.201	13202
924.309	13149
924.417	13141
924.525	13103
924.633	13110
924.741	13818
924.849	12852
924.956	13050
925.064	12875
925.172	12821
925.279	12787
925.387	12928
925.494	12859
925.602	12958
925.709	12894
925.816	12779
925.924	12795
926.031	12920
926.138	12760
926.245	12806
926.352	12776
926.459	12856
926.566	12840
926.673	12779
926.779	12589
926.886	12593
926.993	12547
927.099	12448
927.206	12369
927.312	12334
927.419	12517
927.525	12441
927.631	12509
927.737	12353
927.843	12285
927.95	12136
928.056	12342
928.162	12220
928.267	12323
928.373	12913
928.479	12346
928.585	12117
928.69	12205
928.796	12190
928.901	12155
929.007	11950
929.112	12178
929.218	12083
929.323	12015
929.428	11942
929.533	12114
929.638	11798
929.743	11965
929.848	12003
929.953	11882
930.058	11802
930.163	11668
930.267	11714
930.372	11836
930.477	11623
930.581	11824
930.685	11710
930.79	11562
930.894	11611
930.998	11646
931.103	11775
931.207	11250
931.311	11216
931.415	11208
931.519	10946
931.623	10904
