Data from test_V78500241_909.txt Node
Date: Fri Mar 25 15:16:11 CST 2022
User: usil
Spectrometer: V785-0024
Trigger mode: 0
Integration Time (sec): 4.000000E-1
Scans to average: 1
Nonlinearity correction enabled: false
Boxcar width: 0
Storing dark spectrum: false
XAxis mode: Wavelengths
Number of Pixels in Spectrum: 1024
>>>>>Begin Spectral Data<<<<<
801.071	28451
801.214	28234
801.356	28036
801.499	28002
801.641	27865
801.783	27793
801.926	27972
802.068	27861
802.211	27675
802.353	27679
802.496	27610
802.638	27504
802.78	27568
802.923	27348
803.065	27389
803.208	27408
803.35	27671
803.492	27743
803.635	27648
803.777	27500
803.919	27603
804.061	28017
804.204	27899
804.346	27717
804.488	27583
804.63	27641
804.773	27625
804.915	27831
805.057	27850
805.199	27793
805.341	27850
805.483	27865
805.626	27949
805.768	27648
805.91	27793
806.052	27899
806.194	27675
806.336	28082
806.478	27964
806.62	27842
806.762	28059
806.904	28158
807.046	28363
807.188	28242
807.33	28253
807.472	28356
807.614	28226
807.756	28386
807.898	28223
808.04	28131
808.182	28249
808.324	27960
808.465	28109
808.607	28325
808.749	28500
808.891	28618
809.033	28668
809.174	28622
809.316	28398
809.458	28500
809.6	28401
809.741	28767
809.883	28592
810.025	28763
810.166	28839
810.308	28733
810.45	28778
810.591	28740
810.733	28607
810.875	28523
811.016	28489
811.158	28379
811.299	28554
811.441	28725
811.582	28626
811.724	28508
811.865	28649
812.007	28497
812.148	28641
812.29	28577
812.431	28767
812.573	28991
812.714	28888
812.855	29014
812.997	29197
813.138	29299
813.279	29303
813.421	29010
813.562	29166
813.703	28942
813.845	28744
813.986	28394
814.127	28169
814.268	28154
814.41	28341
814.551	28166
814.692	28207
814.833	28055
814.974	28207
815.115	28371
815.256	28093
815.397	28051
815.539	28093
815.68	28040
815.821	27899
815.962	28044
816.103	28074
816.244	27789
816.385	27823
816.526	27865
816.666	27747
816.807	27545
816.948	27667
817.089	27564
817.23	27644
817.371	27568
817.512	27625
817.653	27572
817.793	27530
817.934	27580
818.075	27504
818.216	27523
818.356	27492
818.497	27443
818.638	27313
818.778	27192
818.919	27298
819.06	27378
819.2	27351
819.341	27580
819.481	27507
819.622	27789
819.762	27892
819.903	27793
820.043	27759
820.184	27789
820.324	27762
820.465	27694
820.605	27671
820.746	27701
820.886	27427
821.026	27583
821.167	27538
821.307	27648
821.447	27542
821.588	27507
821.728	27435
821.868	27291
822.008	27062
822.149	26990
822.289	27028
822.429	26750
822.569	26674
822.709	26716
822.849	26629
822.99	26568
823.13	26499
823.27	26396
823.41	26366
823.55	26218
823.69	26282
823.83	26351
823.97	26130
824.11	26298
824.25	26077
824.389	26157
824.529	26210
824.669	26259
824.809	26259
824.949	26278
825.089	26225
825.228	26240
825.368	26058
825.508	26058
825.648	26145
825.787	26073
825.927	26180
826.067	26111
826.206	25970
826.346	25997
826.485	26122
826.625	25978
826.765	26206
826.904	26172
827.044	25837
827.183	25818
827.323	25746
827.462	25852
827.601	25799
827.741	25753
827.88	25879
828.02	25750
828.159	25658
828.298	25883
828.437	25894
828.577	25803
828.716	25746
828.855	25594
828.994	25495
829.134	25502
829.273	25548
829.412	25392
829.551	25419
829.69	25521
829.829	25422
829.968	25533
830.107	25457
830.246	25491
830.385	25327
830.524	25426
830.663	25255
830.802	25141
830.941	25137
831.08	25042
831.219	25099
831.357	25206
831.496	25228
831.635	25133
831.774	25050
831.913	24954
832.051	24916
832.19	24867
832.329	24962
832.467	24772
832.606	24631
832.744	24772
832.883	24749
833.022	24734
833.16	24677
833.299	24916
833.437	24852
833.576	24817
833.714	24833
833.852	24821
833.991	24749
834.129	24913
834.267	24966
834.406	24814
834.544	24707
834.682	24962
834.821	24878
834.959	24970
835.097	24783
835.235	24840
835.373	24932
835.511	24741
835.65	24734
835.788	24642
835.926	24597
836.064	24448
836.202	24551
836.34	24665
836.478	24795
836.615	24578
836.753	24684
836.891	24692
837.029	24764
837.167	24612
837.305	24620
837.443	24646
837.58	24460
837.718	24726
837.856	24544
837.993	24509
838.131	24422
838.269	24452
838.406	24342
838.544	24266
838.681	24114
838.819	24079
838.956	24003
839.094	23939
839.231	24041
839.369	24083
839.506	24445
839.643	24285
839.781	24110
839.918	23870
840.055	24079
840.193	23935
840.33	23923
840.467	24060
840.604	23874
840.742	24216
840.879	23726
841.016	23817
841.153	23805
841.29	24011
841.427	23927
841.564	23912
841.701	23843
841.838	23836
841.975	23684
842.112	23786
842.249	23638
842.385	23672
842.522	23760
842.659	23676
842.796	23611
842.933	23638
843.069	23615
843.206	23634
843.343	23665
843.479	23668
843.616	23756
843.752	23452
843.889	23330
844.025	23547
844.162	23360
844.298	23455
844.435	23368
844.571	23398
844.708	23448
844.844	23668
844.98	23551
845.117	23364
845.253	23307
845.389	23345
845.525	23231
845.661	23208
845.798	23132
845.934	23147
846.07	23086
846.206	23212
846.342	23269
846.478	23109
846.614	22972
846.75	22812
846.886	22847
847.022	22900
847.158	22873
847.294	22847
847.429	22820
847.565	22778
847.701	23193
847.837	22561
847.972	22478
848.108	22603
848.244	22782
848.379	22634
848.515	22481
848.65	22424
848.786	22531
848.921	22409
849.057	22615
849.192	22478
849.328	22577
849.463	22516
849.598	22622
849.734	22390
849.869	22261
850.004	22223
850.14	22344
850.275	22265
850.41	22059
850.545	22181
850.68	22268
850.815	22318
850.95	22287
851.085	22360
851.22	22261
851.355	22280
851.49	22303
851.625	22097
851.76	22196
851.895	22116
852.03	22109
852.165	22211
852.299	22188
852.434	22276
852.569	22185
852.703	22291
852.838	22337
852.973	22306
853.107	22303
853.242	22124
853.376	22109
853.511	21937
853.645	22109
853.78	22173
853.914	22082
854.048	21926
854.183	22082
854.317	22032
854.451	22303
854.585	22032
854.72	21975
854.854	21956
854.988	21892
855.122	22029
855.256	21827
855.39	21975
855.524	22147
855.658	22128
855.792	22158
855.926	21964
856.06	21937
856.194	22150
856.327	22051
856.461	22105
856.595	22006
856.729	22029
856.862	22032
856.996	22086
857.13	22021
857.263	22188
857.397	22051
857.53	21960
857.664	22032
857.797	22090
857.931	22196
858.064	22173
858.197	22181
858.331	21991
858.464	21884
858.597	21911
858.731	21945
858.864	21960
858.997	22002
859.13	22131
859.263	22036
859.396	22192
859.529	21953
859.662	21964
859.795	21994
859.928	22192
860.061	22147
860.194	22344
860.327	22105
860.46	22120
860.592	22105
860.725	22131
860.858	22086
860.99	22032
861.123	21979
861.256	21953
861.388	21983
861.521	22790
861.653	21930
861.786	21785
861.918	21884
862.05	21869
862.183	22002
862.315	21987
862.447	21934
862.58	21915
862.712	21759
862.844	21778
862.976	21884
863.108	21762
863.24	22109
863.372	21701
863.504	21660
863.636	21671
863.768	21770
863.9	21804
864.032	21698
864.164	21656
864.296	21793
864.428	21728
864.559	21800
864.691	21869
864.823	21778
864.954	21694
865.086	21770
865.217	21660
865.349	21549
865.48	21545
865.612	21625
865.743	21739
865.875	21720
866.006	21622
866.137	21591
866.269	21679
866.4	21625
866.531	21603
866.662	21523
866.793	21599
866.924	21572
867.055	21686
867.186	21682
867.317	21564
867.448	21515
867.579	21523
867.71	21504
867.841	21511
867.972	21492
868.103	21496
868.233	21576
868.364	21545
868.495	21660
868.625	21781
868.756	21831
868.886	21713
869.017	21732
869.147	21915
869.278	21949
869.408	21903
869.539	21823
869.669	21850
869.799	21835
869.929	21964
870.06	21926
870.19	22029
870.32	22082
870.45	22067
870.58	22135
870.71	22322
870.84	22295
870.97	22139
871.1	22329
871.23	22325
871.36	22329
871.489	22329
871.619	22386
871.749	22329
871.879	22424
872.008	22527
872.138	22447
872.267	22470
872.397	22200
872.526	22196
872.656	22291
872.785	22139
872.915	22394
873.044	22588
873.173	22246
873.303	22424
873.432	22489
873.561	22512
873.69	22466
873.819	22398
873.948	22538
874.077	22402
874.206	22314
874.335	22333
874.464	22523
874.593	22653
874.722	22478
874.851	22721
874.979	22603
875.108	22653
875.237	22622
875.365	22702
875.494	22691
875.623	22611
875.751	22508
875.88	22618
876.008	22740
876.136	22889
876.265	23010
876.393	23121
876.521	22900
876.65	22968
876.778	23018
876.906	22930
877.034	22900
877.162	22942
877.29	22869
877.418	23079
877.546	22965
877.674	23010
877.802	22824
877.93	22869
878.058	22904
878.185	22835
878.313	22866
878.441	22911
878.568	22771
878.696	22923
878.824	23071
878.951	22949
879.079	23117
879.206	23246
879.333	23208
879.461	22923
879.588	23094
879.715	23052
879.842	23166
879.97	23018
880.097	22774
880.224	22801
880.351	22752
880.478	22740
880.605	22698
880.732	22752
880.859	22896
880.986	22759
881.112	22736
881.239	22519
881.366	22504
881.493	22417
881.619	22344
881.746	22493
881.872	22386
881.999	22188
882.125	22341
882.252	22306
882.378	22276
882.505	22466
882.631	22234
882.757	22086
882.883	22154
883.01	22082
883.136	21945
883.262	21850
883.388	21857
883.514	22002
883.64	22010
883.766	21922
883.892	21876
884.018	21808
884.143	21918
884.269	22101
884.395	21667
884.52	21545
884.646	21694
884.772	21690
884.897	21580
885.023	21660
885.148	21804
885.274	21785
885.399	21861
885.524	21542
885.65	21648
885.775	21572
885.9	21705
886.025	21766
886.15	21747
886.275	21690
886.4	21485
886.525	21603
886.65	21606
886.775	21660
886.9	21675
887.025	21956
887.149	21557
887.274	21443
887.399	21416
887.523	21530
887.648	21450
887.773	21462
887.897	21496
888.021	21378
888.146	21298
888.27	21599
888.395	21538
888.519	21443
888.643	21496
888.767	21485
888.891	21389
889.015	21176
889.139	21268
889.263	21127
889.387	21291
889.511	21477
889.635	21424
889.759	21131
889.883	21157
890.006	21135
890.13	21207
890.254	21116
890.377	21233
890.501	21032
890.624	20880
890.748	21062
890.871	20876
890.995	20800
891.118	20743
891.241	20796
891.364	20754
891.488	20982
891.611	20864
891.734	20670
891.857	20864
891.98	20853
892.103	20815
892.226	20777
892.349	20640
892.471	20537
892.594	20663
892.717	20754
892.839	20602
892.962	20720
893.085	20674
893.207	20659
893.33	20446
893.452	20590
893.575	20746
893.697	20640
893.819	20842
893.941	20826
894.064	20743
894.186	20678
894.308	20514
894.43	20792
894.552	20853
894.674	20716
894.796	20549
894.918	20594
895.04	20651
895.161	20689
895.283	20602
895.405	20590
895.526	20708
895.648	20632
895.769	20583
895.891	20587
896.012	20705
896.134	20617
896.255	20712
896.376	20590
896.498	20731
896.619	20705
896.74	20640
896.861	20648
896.982	20876
897.103	21176
897.224	20948
897.345	20807
897.466	20762
897.587	20807
897.708	21028
897.828	20838
897.949	20849
898.07	20746
898.19	20800
898.311	20933
898.431	20807
898.552	20773
898.672	20982
898.792	20872
898.913	20902
899.033	20625
899.153	20587
899.273	20613
899.393	20488
899.513	20678
899.633	20636
899.753	20606
899.873	20629
899.993	20575
900.113	20511
900.232	20697
900.352	20480
900.472	20377
900.591	20317
900.711	20389
900.83	20218
900.95	20271
901.069	20446
901.189	20271
901.308	20107
901.427	19978
901.546	19993
901.665	19959
901.784	19963
901.904	19765
902.023	19632
902.141	19491
902.26	19487
902.379	19556
902.498	19415
902.617	19502
902.735	19499
902.854	19434
902.973	19381
903.091	19175
903.21	19118
903.328	19072
903.446	18954
903.565	18875
903.683	18821
903.801	18730
903.919	18795
904.038	18825
904.156	18726
904.274	18661
904.392	18658
904.51	18593
904.627	18696
904.745	18730
904.863	18783
904.981	18456
905.098	18384
905.216	18365
905.334	18338
905.451	18308
905.569	18311
905.686	18376
905.803	18388
905.921	18045
906.038	18140
906.155	18102
906.272	18019
906.389	18064
906.506	17939
906.623	17866
906.74	17901
906.857	17779
906.974	17882
907.091	17969
907.208	17859
907.324	17885
907.441	17790
907.557	17608
907.674	17638
907.79	17520
907.907	17512
908.023	17615
908.139	17562
908.256	17528
908.372	17463
908.488	17528
908.604	17299
908.72	17292
908.836	17421
908.952	17181
909.068	17326
909.184	17383
909.3	17368
909.415	17303
909.531	17193
909.647	17086
909.762	17083
909.878	16984
909.993	16949
910.108	16839
910.224	16904
910.339	17052
910.454	16862
910.57	16831
910.685	16740
910.8	17075
910.915	16942
911.03	16774
911.145	16675
911.259	16660
911.374	16592
911.489	16447
911.604	16497
911.718	16428
911.833	16341
911.947	16265
912.062	16261
912.176	16276
912.291	16371
912.405	16375
912.519	16542
912.633	16500
912.748	16356
912.862	16287
912.976	16112
913.09	16017
913.204	16177
913.318	16124
913.431	16276
913.545	16215
913.659	16230
913.772	16116
913.886	16032
914	15972
914.113	16055
914.226	16101
914.34	16063
914.453	15770
914.566	15998
914.68	15808
914.793	15762
914.906	15709
915.019	15481
915.132	15477
915.245	15530
915.358	15572
915.47	15553
915.583	15488
915.696	15553
915.809	15641
915.921	15584
916.034	15428
916.146	15405
916.259	15454
916.371	15534
916.483	15504
916.595	15431
916.708	15367
916.82	15378
916.932	15302
917.044	15329
917.156	15340
917.268	15176
917.38	15302
917.491	15184
917.603	15176
917.715	15298
917.826	15252
917.938	15176
918.049	15039
918.161	15127
918.272	15192
918.384	15264
918.495	15104
918.606	14937
918.717	14914
918.828	14963
918.939	14986
919.05	14769
919.161	14876
919.272	14823
919.383	14849
919.494	14864
919.604	15104
919.715	14937
919.826	14804
919.936	14857
920.047	14952
920.157	14899
920.267	15108
920.378	14834
920.488	14777
920.598	15070
920.708	15119
920.818	15032
920.928	14998
921.038	15081
921.148	15085
921.258	14838
921.368	14697
921.477	14602
921.587	14693
921.697	14514
921.806	14575
921.916	14450
922.025	14275
922.134	14176
922.244	14214
922.353	14294
922.462	14111
922.571	14077
922.68	13940
922.789	13822
922.898	13993
923.007	13845
923.116	13864
923.224	13909
923.333	13849
923.442	13750
923.55	13712
923.659	13696
923.767	13742
923.876	13742
923.984	13780
924.092	13613
924.201	13689
924.309	13590
924.417	13655
924.525	13533
924.633	13613
924.741	14336
924.849	13369
924.956	13491
925.064	13354
925.172	13240
925.279	13266
925.387	13354
925.494	13312
925.602	13426
925.709	13285
925.816	13179
925.924	13152
926.031	13278
926.138	13133
926.245	13270
926.352	13114
926.459	13327
926.566	13335
926.673	13072
926.779	12935
926.886	12985
926.993	12833
927.099	12905
927.206	12817
927.312	12783
927.419	12878
927.525	12753
927.631	12913
927.737	12677
927.843	12631
927.95	12547
928.056	12601
928.162	12681
928.267	12700
928.373	13171
928.479	12783
928.585	12467
928.69	12608
928.796	12582
928.901	12528
929.007	12410
929.112	12559
929.218	12494
929.323	12479
929.428	12372
929.533	12471
929.638	12273
929.743	12308
929.848	12380
929.953	12254
930.058	12228
930.163	12117
930.267	12015
930.372	12095
930.477	12053
930.581	12144
930.685	12060
930.79	11969
930.894	11942
930.998	11904
931.103	12083
931.207	11748
931.311	11585
931.415	11493
931.519	11368
931.623	11315
