Data from test_V78500241_1784.txt Node
Date: Fri Mar 25 15:22:16 CST 2022
User: usil
Spectrometer: V785-0024
Trigger mode: 0
Integration Time (sec): 4.000000E-1
Scans to average: 1
Nonlinearity correction enabled: false
Boxcar width: 0
Storing dark spectrum: false
XAxis mode: Wavelengths
Number of Pixels in Spectrum: 1024
>>>>>Begin Spectral Data<<<<<
801.071	28044
801.214	27880
801.356	27652
801.499	27572
801.641	27576
801.783	27386
801.926	27564
802.068	27663
802.211	27587
802.353	27431
802.496	27294
802.638	27157
802.78	27203
802.923	27074
803.065	27066
803.208	27108
803.35	27249
803.492	27154
803.635	27382
803.777	27291
803.919	27431
804.061	27526
804.204	27332
804.346	27321
804.488	27317
804.63	27431
804.773	27340
804.915	27519
805.057	27511
805.199	27310
805.341	27424
805.483	27511
805.626	27466
805.768	27359
805.91	27492
806.052	27466
806.194	27420
806.336	27564
806.478	27656
806.62	27705
806.762	27591
806.904	27694
807.046	28074
807.188	27911
807.33	27911
807.472	27903
807.614	27945
807.756	28010
807.898	27751
808.04	27808
808.182	27679
808.324	27724
808.465	27835
808.607	28051
808.749	28257
808.891	28101
809.033	28337
809.174	28116
809.316	27987
809.458	28158
809.6	28135
809.741	28261
809.883	28112
810.025	28386
810.166	28413
810.308	28440
810.45	28291
810.591	28413
810.733	28128
810.875	28124
811.016	28032
811.158	28078
811.299	28173
811.441	28356
811.582	28211
811.724	28059
811.865	28029
812.007	28196
812.148	28010
812.29	28200
812.431	28287
812.573	28451
812.714	28523
812.855	28672
812.997	28687
813.138	28752
813.279	28759
813.421	28611
813.562	28584
813.703	28474
813.845	28386
813.986	28090
814.127	27987
814.268	27892
814.41	27785
814.551	27808
814.692	27899
814.833	27698
814.974	27770
815.115	27755
815.256	27804
815.397	27732
815.539	27644
815.68	27637
815.821	27606
815.962	27599
816.103	27660
816.244	27481
816.385	27393
816.526	27374
816.666	27119
816.807	27093
816.948	27279
817.089	27298
817.23	27317
817.371	27013
817.512	27051
817.653	27127
817.793	27070
817.934	27127
818.075	27039
818.216	27108
818.356	26994
818.497	26910
818.638	26686
818.778	26883
818.919	26842
819.06	26861
819.2	26979
819.341	27199
819.481	27203
819.622	27291
819.762	27439
819.903	27466
820.043	27256
820.184	27291
820.324	27211
820.465	27325
820.605	27275
820.746	27237
820.886	27131
821.026	27306
821.167	27180
821.307	27165
821.447	27024
821.588	27058
821.728	26933
821.868	26716
822.008	26750
822.149	26583
822.289	26621
822.429	26358
822.569	26267
822.709	26195
822.849	26263
822.99	26107
823.13	26096
823.27	26096
823.41	25947
823.55	25784
823.69	25966
823.83	25890
823.97	25818
824.11	25655
824.25	25616
824.389	25723
824.529	25651
824.669	25814
824.809	25887
824.949	25791
825.089	25791
825.228	25822
825.368	25510
825.508	25594
825.648	25696
825.787	25761
825.927	25681
826.067	25639
826.206	25723
826.346	25556
826.485	25624
826.625	25567
826.765	25666
826.904	25582
827.044	25343
827.183	25343
827.323	25415
827.462	25438
827.601	25373
827.741	25362
827.88	25407
828.02	25297
828.159	25225
828.298	25422
828.437	25350
828.577	25327
828.716	25438
828.855	25346
828.994	24989
829.134	25080
829.273	25107
829.412	25069
829.551	25050
829.69	25019
829.829	25129
829.968	24939
830.107	25270
830.246	24977
830.385	25076
830.524	24924
830.663	24829
830.802	24894
830.941	24726
831.08	24620
831.219	24764
831.357	24669
831.496	24916
831.635	24589
831.774	24631
831.913	24486
832.051	24346
832.19	24448
832.329	24445
832.467	24369
832.606	24285
832.744	24330
832.883	24380
833.022	24083
833.16	24369
833.299	24338
833.437	24407
833.576	24433
833.714	24517
833.852	24509
833.991	24418
834.129	24532
834.267	24441
834.406	24456
834.544	24353
834.682	24471
834.821	24486
834.959	24460
835.097	24292
835.235	24597
835.373	24388
835.511	24342
835.65	24289
835.788	24174
835.926	23988
836.064	24045
836.202	23999
836.34	24281
836.478	24338
836.615	24266
836.753	24380
836.891	24384
837.029	24323
837.167	24182
837.305	24334
837.443	24114
837.58	24095
837.718	24388
837.856	24091
837.993	24022
838.131	24136
838.269	24064
838.406	24057
838.544	23973
838.681	23809
838.819	23821
838.956	23554
839.094	23490
839.231	23646
839.369	23714
839.506	23889
839.643	23878
839.781	23554
839.918	23547
840.055	23642
840.193	23600
840.33	23493
840.467	23368
840.604	23429
840.742	23726
840.879	23425
841.016	23524
841.153	23376
841.29	23657
841.427	23528
841.564	23509
841.701	23440
841.838	23376
841.975	23353
842.112	23391
842.249	23239
842.385	23292
842.522	23433
842.659	23189
842.796	23159
842.933	23113
843.069	23204
843.206	23166
843.343	23265
843.479	23284
843.616	23250
843.752	23121
843.889	23006
844.025	23117
844.162	22938
844.298	23288
844.435	23060
844.571	23025
844.708	23048
844.844	23200
844.98	23151
845.117	23083
845.253	22934
845.389	23044
845.525	22984
845.661	22885
845.798	22725
845.934	22782
846.07	22706
846.206	22782
846.342	22847
846.478	22733
846.614	22508
846.75	22512
846.886	22527
847.022	22462
847.158	22504
847.294	22519
847.429	22516
847.565	22493
847.701	22702
847.837	22310
847.972	22310
848.108	22299
848.244	22230
848.379	22166
848.515	22032
848.65	22093
848.786	21994
848.921	22082
849.057	22230
849.192	22226
849.328	22032
849.463	22086
849.598	22048
849.734	21983
849.869	21991
850.004	21812
850.14	21831
850.275	21755
850.41	21732
850.545	21846
850.68	21743
850.815	21915
850.95	21869
851.085	22036
851.22	21930
851.355	21907
851.49	21865
851.625	21774
851.76	21850
851.895	21728
852.03	21713
852.165	21774
852.299	21819
852.434	21778
852.569	21876
852.703	21876
852.838	21854
852.973	22040
853.107	21918
853.242	21857
853.376	21755
853.511	21561
853.645	21572
853.78	21816
853.914	21694
854.048	21686
854.183	21698
854.317	21778
854.451	21835
854.585	21667
854.72	21663
854.854	21622
854.988	21583
855.122	21705
855.256	21545
855.39	21686
855.524	21736
855.658	21698
855.792	21625
855.926	21599
856.06	21682
856.194	21701
856.327	21561
856.461	21561
856.595	21622
856.729	21705
856.862	21625
856.996	21686
857.13	21652
857.263	21838
857.397	21660
857.53	21587
857.664	21724
857.797	21724
857.931	21686
858.064	21785
858.197	21785
858.331	21633
858.464	21583
858.597	21538
858.731	21561
858.864	21679
858.997	21690
859.13	21713
859.263	21701
859.396	21747
859.529	21572
859.662	21610
859.795	21545
859.928	21785
860.061	21827
860.194	21880
860.327	21720
860.46	21595
860.592	21865
860.725	21804
860.858	21865
860.99	21583
861.123	21477
861.256	21606
861.388	21736
861.521	22394
861.653	21549
861.786	21469
861.918	21648
862.05	21420
862.183	21568
862.315	21519
862.447	21618
862.58	21519
862.712	21408
862.844	21386
862.976	21469
863.108	21397
863.24	21743
863.372	21348
863.504	21435
863.636	21382
863.768	21386
863.9	21332
864.032	21336
864.164	21256
864.296	21408
864.428	21458
864.559	21466
864.691	21553
864.823	21351
864.954	21405
865.086	21405
865.217	21188
865.349	21074
865.48	21241
865.612	21302
865.743	21466
865.875	21313
866.006	21306
866.137	21279
866.269	21332
866.4	21233
866.531	21142
866.662	21146
866.793	21157
866.924	21169
867.055	21332
867.186	21264
867.317	21146
867.448	21142
867.579	21051
867.71	21039
867.841	21051
867.972	21188
868.103	21138
868.233	21207
868.364	21154
868.495	21302
868.625	21298
868.756	21553
868.886	21359
869.017	21370
869.147	21580
869.278	21549
869.408	21439
869.539	21386
869.669	21557
869.799	21458
869.929	21530
870.06	21428
870.19	21785
870.32	21709
870.45	21766
870.58	21823
870.71	21926
870.84	21876
870.97	21724
871.1	21846
871.23	21994
871.36	22109
871.489	21915
871.619	21964
871.749	22124
871.879	22150
872.008	22032
872.138	21975
872.267	22013
872.397	21903
872.526	21785
872.656	21804
872.785	21975
872.915	22219
873.044	22120
873.173	22192
873.303	22048
873.432	22105
873.561	22128
873.69	22143
873.819	22158
873.948	22181
874.077	22177
874.206	22078
874.335	21930
874.464	22158
874.593	22333
874.722	22253
874.851	22238
874.979	22329
875.108	22455
875.237	22291
875.365	22291
875.494	22196
875.623	22386
875.751	22124
875.88	22246
876.008	22508
876.136	22474
876.265	22573
876.393	22675
876.521	22694
876.65	22763
876.778	22649
876.906	22637
877.034	22504
877.162	22733
877.29	22634
877.418	22668
877.546	22618
877.674	22584
877.802	22637
877.93	22561
878.058	22504
878.185	22569
878.313	22554
878.441	22565
878.568	22424
878.696	22584
878.824	22622
878.951	22694
879.079	22744
879.206	22904
879.333	22847
879.461	22683
879.588	22767
879.715	22778
879.842	22923
879.97	22592
880.097	22519
880.224	22375
880.351	22580
880.478	22500
880.605	22360
880.732	22478
880.859	22759
880.986	22443
881.112	22443
881.239	22356
881.366	22223
881.493	22017
881.619	22006
881.746	22112
881.872	21915
881.999	21911
882.125	21956
882.252	21956
882.378	21934
882.505	21941
882.631	21861
882.757	21774
882.883	21797
883.01	21736
883.136	21671
883.262	21652
883.388	21481
883.514	21644
883.64	21713
883.766	21599
883.892	21367
884.018	21473
884.143	21698
884.269	21679
884.395	21504
884.52	21408
884.646	21321
884.772	21302
884.897	21283
885.023	21268
885.148	21332
885.274	21435
885.399	21458
885.524	21439
885.65	21363
885.775	21412
885.9	21245
886.025	21382
886.15	21412
886.275	21161
886.4	21138
886.525	21245
886.65	21340
886.775	21252
886.9	21420
887.025	21481
887.149	21344
887.274	21135
887.399	21039
887.523	21036
887.648	21039
887.773	20986
887.897	21207
888.021	21131
888.146	21074
888.27	21313
888.395	21256
888.519	21123
888.643	21100
888.767	21104
888.891	21100
889.015	20933
889.139	20971
889.263	20918
889.387	20994
889.511	20952
889.635	20895
889.759	20834
889.883	20902
890.006	20937
890.13	20899
890.254	20765
890.377	20765
890.501	20651
890.624	20609
890.748	20727
890.871	20518
890.995	20393
891.118	20400
891.241	20400
891.364	20385
891.488	20594
891.611	20408
891.734	20499
891.857	20415
891.98	20446
892.103	20469
892.226	20480
892.349	20434
892.471	20278
892.594	20381
892.717	20415
892.839	20385
892.962	20336
893.085	20423
893.207	20408
893.33	20244
893.452	20362
893.575	20427
893.697	20259
893.819	20537
893.941	20454
894.064	20533
894.186	20286
894.308	20396
894.43	20457
894.552	20556
894.674	20393
894.796	20206
894.918	20385
895.04	20415
895.161	20305
895.283	20358
895.405	20298
895.526	20282
895.648	20385
895.769	20328
895.891	20396
896.012	20355
896.134	20415
896.255	20415
896.376	20301
896.498	20313
896.619	20442
896.74	20301
896.861	20423
896.982	20575
897.103	20697
897.224	20621
897.345	20549
897.466	20583
897.587	20606
897.708	20571
897.828	20594
897.949	20423
898.07	20427
898.19	20320
898.311	20590
898.431	20568
898.552	20617
898.672	20644
898.792	20587
898.913	20526
899.033	20465
899.153	20351
899.273	20317
899.393	20298
899.513	20286
899.633	20336
899.753	20412
899.873	20256
899.993	20358
900.113	20172
900.232	20286
900.352	20355
900.472	19902
900.591	20069
900.711	20119
900.83	19913
900.95	20107
901.069	20103
901.189	20027
901.308	19750
901.427	19662
901.546	19670
901.665	19571
901.784	19578
901.904	19518
902.023	19335
902.141	19225
902.26	19145
902.379	19228
902.498	19209
902.617	19129
902.735	19179
902.854	19217
902.973	19080
903.091	18924
903.21	18821
903.328	18821
903.446	18863
903.565	18719
903.683	18646
903.801	18563
903.919	18669
904.038	18540
904.156	18475
904.274	18403
904.392	18365
904.51	18258
904.627	18460
904.745	18426
904.863	18437
904.981	18186
905.098	18152
905.216	18022
905.334	18174
905.451	18057
905.569	18007
905.686	18098
905.803	18034
905.921	17916
906.038	18041
906.155	17851
906.272	17767
906.389	17737
906.506	17665
906.623	17707
906.74	17638
906.857	17512
906.974	17562
907.091	17729
907.208	17687
907.324	17722
907.441	17505
907.557	17322
907.674	17398
907.79	17284
907.907	17379
908.023	17292
908.139	17292
908.256	17223
908.372	17208
908.488	17220
908.604	17113
908.72	17162
908.836	17098
908.952	16946
909.068	17098
909.184	17147
909.3	17064
909.415	17143
909.531	16984
909.647	16805
909.762	16797
909.878	16706
909.993	16725
910.108	16778
910.224	16725
910.339	16634
910.454	16641
910.57	16596
910.685	16474
910.8	16729
910.915	16713
911.03	16535
911.145	16322
911.259	16322
911.374	16337
911.489	16226
911.604	16204
911.718	16067
911.833	16074
911.947	15964
912.062	16010
912.176	16032
912.291	15975
912.405	16074
912.519	16268
912.633	16188
912.748	16154
912.862	15956
912.976	16063
913.09	15724
913.204	15812
913.318	15892
913.431	15838
913.545	15895
913.659	16006
913.772	15819
913.886	15698
914	15656
914.113	15762
914.226	15819
914.34	15789
914.453	15587
914.566	15736
914.68	15625
914.793	15595
914.906	15363
915.019	15389
915.132	15241
915.245	15275
915.358	15230
915.47	15351
915.583	15237
915.696	15321
915.809	15287
915.921	15454
916.034	15188
916.146	15165
916.259	15104
916.371	15397
916.483	15302
916.595	15112
916.708	15043
916.82	15123
916.932	15142
917.044	15074
917.156	15089
917.268	14971
917.38	14986
917.491	14910
917.603	15013
917.715	14891
917.826	14941
917.938	14834
918.049	14701
918.161	14921
918.272	14982
918.384	15032
918.495	14906
918.606	14686
918.717	14636
918.828	14739
918.939	14705
919.05	14610
919.161	14632
919.272	14461
919.383	14530
919.494	14765
919.604	14842
919.715	14667
919.826	14499
919.936	14636
920.047	14739
920.157	14587
920.267	14872
920.378	14655
920.488	14636
920.598	14895
920.708	15028
920.818	14773
920.928	14727
921.038	14925
921.148	14861
921.258	14560
921.368	14499
921.477	14358
921.587	14450
921.697	14305
921.806	14389
921.916	14278
922.025	14012
922.134	14012
922.244	13963
922.353	14031
922.462	13909
922.571	13902
922.68	13814
922.789	13662
922.898	13662
923.007	13559
923.116	13738
923.224	13628
923.333	13609
923.442	13518
923.55	13453
923.659	13613
923.767	13563
923.876	13468
923.984	13419
924.092	13422
924.201	13468
924.309	13324
924.417	13293
924.525	13331
924.633	13350
924.741	14157
924.849	13160
924.956	13198
925.064	13133
925.172	13034
925.279	13084
925.387	13095
925.494	13145
925.602	13145
925.709	13080
925.816	12970
925.924	12973
926.031	13133
926.138	13027
926.245	13072
926.352	12863
926.459	13027
926.566	13057
926.673	12985
926.779	12821
926.886	12848
926.993	12703
927.099	12684
927.206	12627
927.312	12585
927.419	12616
927.525	12620
927.631	12692
927.737	12635
927.843	12498
927.95	12388
928.056	12407
928.162	12399
928.267	12525
928.373	13160
928.479	12467
928.585	12327
928.69	12353
928.796	12456
928.901	12353
929.007	12209
929.112	12277
929.218	12273
929.323	12247
929.428	12121
929.533	12319
929.638	12148
929.743	12163
929.848	12175
929.953	12072
930.058	12019
930.163	11897
930.267	11950
930.372	11923
930.477	11824
930.581	12053
930.685	11893
930.79	11718
930.894	11714
930.998	11688
931.103	11748
931.207	11562
931.311	11455
931.415	11379
931.519	11174
931.623	11181
