Data from test_V78500241_2134.txt Node
Date: Fri Mar 25 15:24:43 CST 2022
User: usil
Spectrometer: V785-0024
Trigger mode: 0
Integration Time (sec): 4.000000E-1
Scans to average: 1
Nonlinearity correction enabled: false
Boxcar width: 0
Storing dark spectrum: false
XAxis mode: Wavelengths
Number of Pixels in Spectrum: 1024
>>>>>Begin Spectral Data<<<<<
801.071	27686
801.214	27675
801.356	27351
801.499	27294
801.641	27306
801.783	27138
801.926	27226
802.068	27199
802.211	27119
802.353	27237
802.496	26940
802.638	26853
802.78	26906
802.923	26773
803.065	26724
803.208	26712
803.35	26960
803.492	27093
803.635	27104
803.777	27009
803.919	27169
804.061	27370
804.204	27131
804.346	27058
804.488	27032
804.63	27131
804.773	27058
804.915	27066
805.057	27055
805.199	27116
805.341	27127
805.483	27256
805.626	27256
805.768	27112
805.91	27047
806.052	27150
806.194	27051
806.336	27306
806.478	27195
806.62	27157
806.762	27260
806.904	27458
807.046	27747
807.188	27580
807.33	27629
807.472	27660
807.614	27572
807.756	27641
807.898	27462
808.04	27408
808.182	27348
808.324	27397
808.465	27709
808.607	27713
808.749	27743
808.891	27922
809.033	27876
809.174	27968
809.316	27808
809.458	27857
809.6	27618
809.741	28040
809.883	27998
810.025	28093
810.166	28204
810.308	28135
810.45	28067
810.591	28086
810.733	27861
810.875	27888
811.016	27709
811.158	27561
811.299	27945
811.441	27956
811.582	27994
811.724	27781
811.865	27835
812.007	27713
812.148	27686
812.29	27937
812.431	28002
812.573	28242
812.714	28238
812.855	28299
812.997	28398
813.138	28478
813.279	28451
813.421	28314
813.562	28325
813.703	28150
813.845	28139
813.986	27739
814.127	27656
814.268	27431
814.41	27367
814.551	27557
814.692	27511
814.833	27500
814.974	27523
815.115	27477
815.256	27519
815.397	27481
815.539	27291
815.68	27268
815.821	27173
815.962	27424
816.103	27241
816.244	27184
816.385	27096
816.526	26994
816.666	26876
816.807	26796
816.948	26762
817.089	26804
817.23	26823
817.371	26830
817.512	26598
817.653	26621
817.793	26712
817.934	26731
818.075	26792
818.216	26765
818.356	26636
818.497	26590
818.638	26541
818.778	26511
818.919	26533
819.06	26571
819.2	26750
819.341	26587
819.481	26849
819.622	26861
819.762	27135
819.903	27013
820.043	26876
820.184	26944
820.324	26902
820.465	27104
820.605	26788
820.746	26800
820.886	26853
821.026	26807
821.167	26678
821.307	26967
821.447	26724
821.588	26727
821.728	26469
821.868	26343
822.008	26294
822.149	26237
822.289	26233
822.429	26168
822.569	25917
822.709	25871
822.849	25746
822.99	25742
823.13	25704
823.27	25750
823.41	25643
823.55	25445
823.69	25502
823.83	25483
823.97	25567
824.11	25468
824.25	25324
824.389	25285
824.529	25472
824.669	25293
824.809	25472
824.949	25457
825.089	25533
825.228	25331
825.368	25293
825.508	25206
825.648	25270
825.787	25251
825.927	25228
826.067	25221
826.206	25365
826.346	25304
826.485	25247
826.625	25247
826.765	25274
826.904	25282
827.044	24958
827.183	24973
827.323	24787
827.462	25019
827.601	25008
827.741	24989
827.88	25042
828.02	24920
828.159	24970
828.298	24894
828.437	25000
828.577	24837
828.716	25057
828.855	24817
828.994	24658
829.134	24582
829.273	24661
829.412	24540
829.551	24441
829.69	24692
829.829	24601
829.968	24863
830.107	24806
830.246	24604
830.385	24517
830.524	24665
830.663	24464
830.802	24319
830.941	24296
831.08	24201
831.219	24346
831.357	24376
831.496	24456
831.635	24376
831.774	24159
831.913	24186
832.051	24030
832.19	24034
832.329	24083
832.467	23897
832.606	23889
832.744	23863
832.883	23855
833.022	23874
833.16	23973
833.299	24022
833.437	23969
833.576	23958
833.714	23931
833.852	24064
833.991	24022
834.129	24171
834.267	24018
834.406	23969
834.544	24083
834.682	23996
834.821	23923
834.959	24171
835.097	23824
835.235	24011
835.373	23996
835.511	23847
835.65	23809
835.788	23824
835.926	23764
836.064	23570
836.202	23775
836.34	23889
836.478	23847
836.615	23722
836.753	23843
836.891	23885
837.029	23779
837.167	23676
837.305	23634
837.443	23786
837.58	23665
837.718	23710
837.856	23672
837.993	23573
838.131	23680
838.269	23600
838.406	23482
838.544	23493
838.681	23284
838.819	23220
838.956	23223
839.094	23155
839.231	23185
839.369	23288
839.506	23493
839.643	23414
839.781	23086
839.918	23079
840.055	23029
840.193	22991
840.33	23006
840.467	23018
840.604	23098
840.742	23265
840.879	22942
841.016	22892
841.153	22904
841.29	23079
841.427	23067
841.564	23003
841.701	22972
841.838	22957
841.975	22858
842.112	23018
842.249	22782
842.385	22961
842.522	22934
842.659	22869
842.796	22786
842.933	22786
843.069	22729
843.206	22771
843.343	22866
843.479	22778
843.616	22828
843.752	22557
843.889	22584
844.025	22755
844.162	22508
844.298	22763
844.435	22599
844.571	22493
844.708	22542
844.844	22717
844.98	22702
845.117	22519
845.253	22424
845.389	22485
845.525	22481
845.661	22363
845.798	22299
845.934	22344
846.07	22329
846.206	22394
846.342	22329
846.478	22261
846.614	22067
846.75	22078
846.886	21945
847.022	22196
847.158	22139
847.294	21983
847.429	22059
847.565	21968
847.701	22360
847.837	21857
847.972	21656
848.108	21808
848.244	21819
848.379	21717
848.515	21530
848.65	21633
848.786	21648
848.921	21663
849.057	21812
849.192	21751
849.328	21637
849.463	21675
849.598	21538
849.734	21443
849.869	21469
850.004	21279
850.14	21462
850.275	21431
850.41	21336
850.545	21321
850.68	21298
850.815	21287
850.95	21321
851.085	21488
851.22	21450
851.355	21355
851.49	21370
851.625	21401
851.76	21275
851.895	21351
852.03	21275
852.165	21279
852.299	21454
852.434	21538
852.569	21348
852.703	21298
852.838	21306
852.973	21488
853.107	21485
853.242	21389
853.376	21218
853.511	21085
853.645	21116
853.78	21283
853.914	21260
854.048	21184
854.183	21176
854.317	21074
854.451	21348
854.585	21230
854.72	21070
854.854	21279
854.988	20982
855.122	21146
855.256	21077
855.39	21131
855.524	21207
855.658	21279
855.792	21214
855.926	21089
856.06	21154
856.194	21336
856.327	21013
856.461	21116
856.595	21184
856.729	21142
856.862	21329
856.996	21207
857.13	21351
857.263	21374
857.397	21283
857.53	21119
857.664	21218
857.797	21230
857.931	21260
858.064	21207
858.197	21359
858.331	21176
858.464	21298
858.597	21135
858.731	21096
858.864	21138
858.997	21051
859.13	21245
859.263	21264
859.396	21340
859.529	21275
859.662	21138
859.795	21184
859.928	21230
860.061	21272
860.194	21336
860.327	21359
860.46	21116
860.592	21351
860.725	21317
860.858	21252
860.99	21176
861.123	21214
861.256	21146
861.388	21146
861.521	21903
861.653	21024
861.786	20979
861.918	21081
862.05	21051
862.183	21142
862.315	21146
862.447	21161
862.58	21074
862.712	20933
862.844	20891
862.976	21043
863.108	20998
863.24	21287
863.372	20830
863.504	20769
863.636	20933
863.768	20883
863.9	20952
864.032	20872
864.164	20914
864.296	20971
864.428	21089
864.559	21013
864.691	20979
864.823	20765
864.954	20921
865.086	21005
865.217	20773
865.349	20731
865.48	20727
865.612	20845
865.743	20986
865.875	20796
866.006	20682
866.137	20819
866.269	20868
866.4	20750
866.531	20762
866.662	20636
866.793	20682
866.924	20670
867.055	20807
867.186	20765
867.317	20785
867.448	20659
867.579	20845
867.71	20701
867.841	20617
867.972	20659
868.103	20689
868.233	20651
868.364	20712
868.495	20769
868.625	21028
868.756	20994
868.886	20842
869.017	20929
869.147	21081
869.278	21146
869.408	21077
869.539	20998
869.669	21161
869.799	21017
869.929	21058
870.06	21085
870.19	21329
870.32	21393
870.45	21310
870.58	21207
870.71	21500
870.84	21424
870.97	21325
871.1	21313
871.23	21553
871.36	21473
871.489	21572
871.619	21671
871.749	21587
871.879	21549
872.008	21614
872.138	21576
872.267	21641
872.397	21435
872.526	21405
872.656	21401
872.785	21447
872.915	21610
873.044	21694
873.173	21599
873.303	21625
873.432	21641
873.561	21682
873.69	21641
873.819	21667
873.948	21682
874.077	21568
874.206	21587
874.335	21564
874.464	21698
874.593	21781
874.722	21831
874.851	21873
874.979	21781
875.108	21861
875.237	21804
875.365	21675
875.494	21816
875.623	21884
875.751	21960
875.88	21895
876.008	21972
876.136	21899
876.265	22177
876.393	22329
876.521	22230
876.65	22352
876.778	22192
876.906	22036
877.034	22177
877.162	22246
877.29	22021
877.418	22196
877.546	22204
877.674	22177
877.802	22143
877.93	22120
878.058	22173
878.185	21972
878.313	22238
878.441	22109
878.568	21930
878.696	22207
878.824	22135
878.951	22272
879.079	22238
879.206	22516
879.333	22352
879.461	22234
879.588	22276
879.715	22356
879.842	22546
879.97	22109
880.097	21880
880.224	21930
880.351	22093
880.478	21998
880.605	21899
880.732	22044
880.859	22101
880.986	22021
881.112	21918
881.239	21926
881.366	21652
881.493	21728
881.619	21580
881.746	21576
881.872	21622
881.999	21496
882.125	21412
882.252	21614
882.378	21606
882.505	21644
882.631	21367
882.757	21245
882.883	21272
883.01	21310
883.136	21157
883.262	21135
883.388	21138
883.514	21237
883.64	21279
883.766	21062
883.892	21058
884.018	20998
884.143	21127
884.269	21283
884.395	20933
884.52	20925
884.646	21005
884.772	20750
884.897	20815
885.023	20952
885.148	21131
885.274	21089
885.399	20872
885.524	20891
885.65	20918
885.775	20864
885.9	20880
886.025	20960
886.15	21013
886.275	20868
886.4	20743
886.525	20838
886.65	20762
886.775	20724
886.9	20921
887.025	21100
887.149	20887
887.274	20644
887.399	20712
887.523	20716
887.648	20697
887.773	20488
887.897	20750
888.021	20678
888.146	20754
888.27	20773
888.395	20823
888.519	20777
888.643	20705
888.767	20739
888.891	20499
889.015	20488
889.139	20442
889.263	20396
889.387	20571
889.511	20564
889.635	20571
889.759	20377
889.883	20503
890.006	20556
890.13	20598
890.254	20408
890.377	20526
890.501	20259
890.624	20134
890.748	20237
890.871	20103
890.995	20016
891.118	19963
891.241	20081
891.364	20164
891.488	20142
891.611	20149
891.734	20065
891.857	20081
891.98	20122
892.103	20180
892.226	19986
892.349	20020
892.471	19864
892.594	19955
892.717	19970
892.839	19921
892.962	19997
893.085	20149
893.207	20027
893.33	19898
893.452	19871
893.575	20046
893.697	19974
893.819	20130
893.941	20199
894.064	20039
894.186	19913
894.308	19936
894.43	20046
894.552	20221
894.674	20100
894.796	19871
894.918	19978
895.04	19932
895.161	20031
895.283	20035
895.405	19906
895.526	19902
895.648	19947
895.769	20107
895.891	20024
896.012	20157
896.134	20016
896.255	19978
896.376	19959
896.498	20027
896.619	20054
896.74	19970
896.861	20058
896.982	20282
897.103	20461
897.224	20320
897.345	20301
897.466	20199
897.587	20221
897.708	20256
897.828	20256
897.949	20142
898.07	20065
898.19	20134
898.311	20256
898.431	20172
898.552	20218
898.672	20328
898.792	20347
898.913	20187
899.033	20084
899.153	20043
899.273	19951
899.393	19940
899.513	20035
899.633	19997
899.753	19947
899.873	19955
899.993	20077
900.113	19951
900.232	19967
900.352	19883
900.472	19833
900.591	19746
900.711	19791
900.83	19685
900.95	19715
901.069	19887
901.189	19582
901.308	19578
901.427	19316
901.546	19400
901.665	19343
901.784	19213
901.904	19278
902.023	19141
902.141	19034
902.26	18871
902.379	18970
902.498	18859
902.617	18783
902.735	18856
902.854	18924
902.973	18829
903.091	18483
903.21	18555
903.328	18574
903.446	18384
903.565	18369
903.683	18353
903.801	18224
903.919	18251
904.038	18266
904.156	18140
904.274	18194
904.392	18091
904.51	17999
904.627	18072
904.745	18133
904.863	18076
904.981	17863
905.098	17866
905.216	17798
905.334	17817
905.451	17874
905.569	17707
905.686	17912
905.803	17741
905.921	17611
906.038	17623
906.155	17535
906.272	17410
906.389	17493
906.506	17349
906.623	17292
906.74	17239
906.857	17159
906.974	17254
907.091	17395
907.208	17444
907.324	17360
907.441	17280
907.557	17128
907.674	17029
907.79	16938
907.907	16915
908.023	17033
908.139	16938
908.256	16957
908.372	16729
908.488	16866
908.604	16748
908.72	16801
908.836	16793
908.952	16721
909.068	16679
909.184	16843
909.3	16721
909.415	16698
909.531	16645
909.647	16440
909.762	16394
909.878	16398
909.993	16409
910.108	16451
910.224	16390
910.339	16417
910.454	16390
910.57	16325
910.685	16154
910.8	16519
910.915	16344
911.03	16344
911.145	16116
911.259	16093
911.374	16131
911.489	15953
911.604	15918
911.718	15819
911.833	15789
911.947	15682
912.062	15477
912.176	15705
912.291	15759
912.405	15660
912.519	15915
912.633	16021
912.748	15778
912.862	15895
912.976	15656
913.09	15496
913.204	15564
913.318	15603
913.431	15778
913.545	15641
913.659	15698
913.772	15587
913.886	15363
914	15416
914.113	15534
914.226	15561
914.34	15462
914.453	15310
914.566	15473
914.68	15302
914.793	15279
914.906	15043
915.019	14864
915.132	14994
915.245	14998
915.358	14998
915.47	14876
915.583	15017
915.696	15066
915.809	15116
915.921	15165
916.034	14902
916.146	14876
916.259	14895
916.371	15051
916.483	14948
916.595	14853
916.708	14826
916.82	14773
916.932	14895
917.044	14796
917.156	14693
917.268	14621
917.38	14670
917.491	14701
917.603	14682
917.715	14720
917.826	14769
917.938	14773
918.049	14450
918.161	14651
918.272	14663
918.384	14758
918.495	14541
918.606	14492
918.717	14396
918.828	14457
918.939	14484
919.05	14351
919.161	14427
919.272	14263
919.383	14313
919.494	14415
919.604	14625
919.715	14389
919.826	14328
919.936	14362
920.047	14434
920.157	14408
920.267	14556
920.378	14393
920.488	14199
920.598	14549
920.708	14594
920.818	14629
920.928	14613
921.038	14629
921.148	14636
921.258	14332
921.368	14267
921.477	14123
921.587	14168
921.697	14050
921.806	14172
921.916	13982
922.025	13761
922.134	13849
922.244	13700
922.353	13830
922.462	13727
922.571	13578
922.68	13491
922.789	13415
922.898	13518
923.007	13411
923.116	13434
923.224	13419
923.333	13365
923.442	13297
923.55	13308
923.659	13236
923.767	13320
923.876	13149
923.984	13274
924.092	13198
924.201	13179
924.309	13152
924.417	13251
924.525	13069
924.633	13046
924.741	13879
924.849	12867
924.956	13000
925.064	12882
925.172	12741
925.279	12863
925.387	12840
925.494	12947
925.602	12951
925.709	12909
925.816	12779
925.924	12791
926.031	12871
926.138	12878
926.245	12905
926.352	12700
926.459	12844
926.566	12833
926.673	12673
926.779	12623
926.886	12669
926.993	12506
927.099	12475
927.206	12369
927.312	12422
927.419	12452
927.525	12376
927.631	12285
927.737	12315
927.843	12277
927.95	12201
928.056	12213
928.162	12281
928.267	12277
928.373	12894
928.479	12308
928.585	12045
928.69	12186
928.796	12338
928.901	12079
929.007	11965
929.112	12072
929.218	12038
929.323	12003
929.428	11927
929.533	12136
929.638	11935
929.743	11984
929.848	12038
929.953	11847
930.058	11790
930.163	11653
930.267	11703
930.372	11767
930.477	11627
930.581	11824
930.685	11767
930.79	11592
930.894	11551
930.998	11551
931.103	11691
931.207	11288
931.311	11208
931.415	11181
931.519	10957
931.623	10885
