Data from test_V78500241_2259.txt Node
Date: Fri Mar 25 15:25:35 CST 2022
User: usil
Spectrometer: V785-0024
Trigger mode: 0
Integration Time (sec): 4.000000E-1
Scans to average: 1
Nonlinearity correction enabled: false
Boxcar width: 0
Storing dark spectrum: false
XAxis mode: Wavelengths
Number of Pixels in Spectrum: 1024
>>>>>Begin Spectral Data<<<<<
801.071	27622
801.214	27728
801.356	27275
801.499	27313
801.641	27344
801.783	27169
801.926	27302
802.068	27207
802.211	27062
802.353	27013
802.496	26811
802.638	26739
802.78	26777
802.923	26788
803.065	26785
803.208	26899
803.35	26762
803.492	27077
803.635	27146
803.777	26842
803.919	27081
804.061	27389
804.204	27032
804.346	27009
804.488	26998
804.63	27081
804.773	26967
804.915	27020
805.057	27020
805.199	27009
805.341	27066
805.483	27009
805.626	27199
805.768	27028
805.91	27192
806.052	27119
806.194	27131
806.336	27302
806.478	27226
806.62	27093
806.762	27370
806.904	27488
807.046	27637
807.188	27603
807.33	27595
807.472	27648
807.614	27526
807.756	27641
807.898	27405
808.04	27264
808.182	27439
808.324	27416
808.465	27473
808.607	27743
808.749	27701
808.891	27797
809.033	27983
809.174	27816
809.316	27675
809.458	27736
809.6	27713
809.741	27759
809.883	27953
810.025	28059
810.166	27953
810.308	28070
810.45	27945
810.591	27983
810.733	27846
810.875	27705
811.016	27610
811.158	27701
811.299	27739
811.441	27823
811.582	27945
811.724	27766
811.865	27713
812.007	27629
812.148	27724
812.29	27800
812.431	27945
812.573	28044
812.714	28139
812.855	28207
812.997	28356
813.138	28504
813.279	28280
813.421	28329
813.562	28246
813.703	28093
813.845	27884
813.986	27679
814.127	27473
814.268	27538
814.41	27473
814.551	27469
814.692	27469
814.833	27408
814.974	27374
815.115	27466
815.256	27340
815.397	27359
815.539	27218
815.68	27260
815.821	27077
815.962	27233
816.103	27150
816.244	27188
816.385	26956
816.526	27116
816.666	26891
816.807	26488
816.948	26804
817.089	26883
817.23	26815
817.371	26823
817.512	26716
817.653	26762
817.793	26716
817.934	26758
818.075	26834
818.216	26686
818.356	26621
818.497	26613
818.638	26419
818.778	26438
818.919	26492
819.06	26503
819.2	26705
819.341	26807
819.481	26712
819.622	26880
819.762	27146
819.903	27017
820.043	26853
820.184	26857
820.324	26708
820.465	26765
820.605	26705
820.746	26796
820.886	26727
821.026	26800
821.167	26746
821.307	26842
821.447	26712
821.588	26606
821.728	26431
821.868	26244
822.008	26240
822.149	26259
822.289	26100
822.429	25970
822.569	25879
822.709	25902
822.849	25753
822.99	25719
823.13	25693
823.27	25525
823.41	25510
823.55	25362
823.69	25540
823.83	25575
823.97	25377
824.11	25228
824.25	25217
824.389	25259
824.529	25426
824.669	25365
824.809	25445
824.949	25422
825.089	25521
825.228	25350
825.368	25198
825.508	25168
825.648	25072
825.787	25023
825.927	25255
826.067	25171
826.206	25175
826.346	25270
826.485	25266
826.625	25228
826.765	25339
826.904	25198
827.044	25012
827.183	24897
827.323	24951
827.462	24932
827.601	24916
827.741	24970
827.88	24920
828.02	24726
828.159	24844
828.298	24806
828.437	24890
828.577	24875
828.716	24992
828.855	24863
828.994	24673
829.134	24528
829.273	24589
829.412	24646
829.551	24475
829.69	24639
829.829	24612
829.968	24593
830.107	24551
830.246	24642
830.385	24505
830.524	24422
830.663	24456
830.802	24254
830.941	24159
831.08	24064
831.219	24311
831.357	24270
831.496	24300
831.635	24262
831.774	24098
831.913	24106
832.051	24011
832.19	23866
832.329	23904
832.467	23965
832.606	23874
832.744	23764
832.883	23786
833.022	23855
833.16	23847
833.299	23946
833.437	23923
833.576	23904
833.714	23863
833.852	23999
833.991	23973
834.129	23996
834.267	24022
834.406	24098
834.544	23946
834.682	23813
834.821	23710
834.959	24117
835.097	23843
835.235	23931
835.373	23798
835.511	23805
835.65	23775
835.788	23779
835.926	23699
836.064	23577
836.202	23611
836.34	23718
836.478	23733
836.615	23745
836.753	23741
836.891	23821
837.029	23783
837.167	23668
837.305	23699
837.443	23714
837.58	23543
837.718	23638
837.856	23634
837.993	23638
838.131	23512
838.269	23509
838.406	23657
838.544	23334
838.681	23315
838.819	23227
838.956	23079
839.094	22953
839.231	23166
839.369	23121
839.506	23429
839.643	23273
839.781	23098
839.918	23052
840.055	23052
840.193	23022
840.33	22976
840.467	23044
840.604	23060
840.742	23216
840.879	22892
841.016	22847
841.153	22908
841.29	23083
841.427	22877
841.564	22999
841.701	22946
841.838	22805
841.975	22900
842.112	22900
842.249	22809
842.385	22706
842.522	22900
842.659	22828
842.796	22759
842.933	22755
843.069	22675
843.206	22744
843.343	22736
843.479	22854
843.616	22759
843.752	22538
843.889	22485
844.025	22698
844.162	22489
844.298	22599
844.435	22512
844.571	22356
844.708	22535
844.844	22618
844.98	22622
845.117	22694
845.253	22394
845.389	22360
845.525	22344
845.661	22382
845.798	22177
845.934	22329
846.07	22242
846.206	22246
846.342	22451
846.478	22272
846.614	22044
846.75	22006
846.886	21937
847.022	21945
847.158	21922
847.294	21968
847.429	22032
847.565	21975
847.701	22173
847.837	21781
847.972	21755
848.108	21873
848.244	21755
848.379	21641
848.515	21538
848.65	21507
848.786	21576
848.921	21652
849.057	21762
849.192	21568
849.328	21538
849.463	21519
849.598	21545
849.734	21458
849.869	21435
850.004	21424
850.14	21336
850.275	21367
850.41	21317
850.545	21226
850.68	21218
850.815	21393
850.95	21389
851.085	21572
851.22	21408
851.355	21355
851.49	21291
851.625	21351
851.76	21302
851.895	21104
852.03	21222
852.165	21317
852.299	21454
852.434	21447
852.569	21344
852.703	21351
852.838	21405
852.973	21389
853.107	21466
853.242	21351
853.376	21123
853.511	21093
853.645	21218
853.78	21256
853.914	21119
854.048	20982
854.183	21230
854.317	21119
854.451	21329
854.585	21222
854.72	21138
854.854	21230
854.988	21036
855.122	21188
855.256	20960
855.39	21131
855.524	21344
855.658	21207
855.792	21176
855.926	21058
856.06	21169
856.194	21287
856.327	21131
856.461	21096
856.595	21127
856.729	21161
856.862	21260
856.996	21184
857.13	21256
857.263	21348
857.397	21252
857.53	21020
857.664	21180
857.797	21214
857.931	21123
858.064	21272
858.197	21252
858.331	21264
858.464	21146
858.597	21096
858.731	21157
858.864	21230
858.997	21058
859.13	21268
859.263	21108
859.396	21207
859.529	21207
859.662	21252
859.795	21009
859.928	21112
860.061	21378
860.194	21355
860.327	21180
860.46	21112
860.592	21264
860.725	21348
860.858	21165
860.99	21028
861.123	21032
861.256	20925
861.388	21104
861.521	21956
861.653	21062
861.786	20906
861.918	20948
862.05	21017
862.183	21043
862.315	21108
862.447	21135
862.58	21051
862.712	20868
862.844	20701
862.976	20921
863.108	20861
863.24	21169
863.372	20800
863.504	20693
863.636	20815
863.768	20887
863.9	20902
864.032	20693
864.164	20811
864.296	20773
864.428	21013
864.559	20842
864.691	20899
864.823	20853
864.954	20735
865.086	20800
865.217	20724
865.349	20663
865.48	20716
865.612	20842
865.743	21024
865.875	20765
866.006	20845
866.137	20754
866.269	20735
866.4	20636
866.531	20693
866.662	20632
866.793	20663
866.924	20769
867.055	20769
867.186	20689
867.317	20606
867.448	20667
867.579	20750
867.71	20609
867.841	20579
867.972	20644
868.103	20697
868.233	20663
868.364	20762
868.495	20731
868.625	20982
868.756	20910
868.886	20864
869.017	20975
869.147	21039
869.278	21146
869.408	20948
869.539	21005
869.669	20990
869.799	20868
869.929	21100
870.06	21047
870.19	21233
870.32	21184
870.45	21226
870.58	21275
870.71	21397
870.84	21469
870.97	21374
871.1	21340
871.23	21424
871.36	21572
871.489	21466
871.619	21473
871.749	21401
871.879	21408
872.008	21648
872.138	21454
872.267	21523
872.397	21389
872.526	21359
872.656	21355
872.785	21416
872.915	21561
873.044	21511
873.173	21583
873.303	21542
873.432	21538
873.561	21622
873.69	21557
873.819	21644
873.948	21618
874.077	21549
874.206	21504
874.335	21583
874.464	21709
874.593	21850
874.722	21595
874.851	21751
874.979	21865
875.108	21812
875.237	21747
875.365	21545
875.494	21785
875.623	21797
875.751	21671
875.88	21869
876.008	21922
876.136	21987
876.265	22200
876.393	22238
876.521	22325
876.65	22196
876.778	22265
876.906	22143
877.034	22147
877.162	22185
877.29	22090
877.418	22135
877.546	22154
877.674	22185
877.802	21960
877.93	22109
878.058	22013
878.185	22010
878.313	22025
878.441	22139
878.568	21880
878.696	22032
878.824	22124
878.951	22314
879.079	22371
879.206	22405
879.333	22131
879.461	22097
879.588	22253
879.715	22207
879.842	22367
879.97	22253
880.097	21953
880.224	22002
880.351	21979
880.478	21968
880.605	21819
880.732	21968
880.859	22230
880.986	22013
881.112	21991
881.239	21781
881.366	21724
881.493	21641
881.619	21431
881.746	21397
881.872	21515
881.999	21542
882.125	21454
882.252	21561
882.378	21488
882.505	21599
882.631	21530
882.757	21203
882.883	21268
883.01	21237
883.136	21268
883.262	21055
883.388	21112
883.514	21180
883.64	21184
883.766	21161
883.892	20948
884.018	20963
884.143	21062
884.269	21245
884.395	21047
884.52	20800
884.646	20880
884.772	20845
884.897	20792
885.023	20918
885.148	21047
885.274	20967
885.399	20956
885.524	20883
885.65	20823
885.775	20807
885.9	20830
886.025	20952
886.15	20944
886.275	20834
886.4	20777
886.525	20811
886.65	20807
886.775	20651
886.9	21093
887.025	21119
887.149	20830
887.274	20640
887.399	20587
887.523	20705
887.648	20549
887.773	20571
887.897	20587
888.021	20632
888.146	20602
888.27	20648
888.395	20834
888.519	20621
888.643	20636
888.767	20545
888.891	20503
889.015	20427
889.139	20636
889.263	20541
889.387	20549
889.511	20594
889.635	20499
889.759	20434
889.883	20408
890.006	20503
890.13	20575
890.254	20320
890.377	20446
890.501	20214
890.624	20149
890.748	20221
890.871	20001
890.995	20027
891.118	20100
891.241	20020
891.364	19997
891.488	20176
891.611	20039
891.734	20024
891.857	20016
891.98	19974
892.103	20020
892.226	20058
892.349	19963
892.471	19795
892.594	19997
892.717	19989
892.839	20016
892.962	19864
893.085	20043
893.207	19925
893.33	19890
893.452	19845
893.575	20062
893.697	19875
893.819	19955
893.941	20046
894.064	20008
894.186	19890
894.308	19894
894.43	20020
894.552	20065
894.674	19959
894.796	19814
894.918	19989
895.04	19868
895.161	19955
895.283	19997
895.405	19765
895.526	19940
895.648	19894
895.769	19974
895.891	19986
896.012	19944
896.134	20027
896.255	19974
896.376	19845
896.498	19818
896.619	19887
896.74	20012
896.861	19932
896.982	20233
897.103	20370
897.224	20107
897.345	20130
897.466	20069
897.587	20043
897.708	20221
897.828	20206
897.949	20107
898.07	19967
898.19	19944
898.311	20313
898.431	20054
898.552	20039
898.672	20180
898.792	20221
898.913	20122
899.033	20054
899.153	19970
899.273	19837
899.393	19913
899.513	19883
899.633	19807
899.753	19841
899.873	19765
899.993	19906
900.113	19887
900.232	19944
900.352	19906
900.472	19734
900.591	19647
900.711	19715
900.83	19635
900.95	19700
901.069	19818
901.189	19586
901.308	19369
901.427	19335
901.546	19266
901.665	19373
901.784	19304
901.904	19171
902.023	19122
902.141	18890
902.26	18859
902.379	18947
902.498	18905
902.617	18665
902.735	18935
902.854	18696
902.973	18669
903.091	18475
903.21	18540
903.328	18429
903.446	18399
903.565	18327
903.683	18388
903.801	18243
903.919	18129
904.038	18224
904.156	18053
904.274	18174
904.392	18030
904.51	17916
904.627	18011
904.745	18114
904.863	18007
904.981	17836
905.098	17745
905.216	17722
905.334	17676
905.451	17729
905.569	17695
905.686	17817
905.803	17722
905.921	17532
906.038	17611
906.155	17596
906.272	17478
906.389	17326
906.506	17246
906.623	17151
906.74	17318
906.857	17151
906.974	17185
907.091	17315
907.208	17349
907.324	17227
907.441	17128
907.557	16889
907.674	17060
907.79	16908
907.907	16896
908.023	16972
908.139	16938
908.256	16896
908.372	16847
908.488	16767
908.604	16755
908.72	16615
908.836	16710
908.952	16649
909.068	16630
909.184	16793
909.3	16736
909.415	16854
909.531	16653
909.647	16356
909.762	16424
909.878	16398
909.993	16367
910.108	16337
910.224	16284
910.339	16390
910.454	16352
910.57	16314
910.685	16143
910.8	16500
910.915	16360
911.03	16086
911.145	16017
911.259	15956
911.374	15949
911.489	15987
911.604	15865
911.718	15622
911.833	15713
911.947	15557
912.062	15466
912.176	15808
912.291	15656
912.405	15701
912.519	15903
912.633	15797
912.748	15743
912.862	15709
912.976	15507
913.09	15435
913.204	15507
913.318	15568
913.431	15618
913.545	15564
913.659	15534
913.772	15492
913.886	15439
914	15272
914.113	15416
914.226	15591
914.34	15488
914.453	15207
914.566	15408
914.68	15294
914.793	15230
914.906	14963
915.019	14933
915.132	14971
915.245	14937
915.358	15116
915.47	14948
915.583	14944
915.696	14960
915.809	15017
915.921	14963
916.034	14990
916.146	14910
916.259	14880
916.371	14956
916.483	14883
916.595	14838
916.708	14788
916.82	14785
916.932	14765
917.044	14659
917.156	14785
917.268	14659
917.38	14568
917.491	14571
917.603	14602
917.715	14568
917.826	14773
917.938	14556
918.049	14396
918.161	14590
918.272	14636
918.384	14621
918.495	14571
918.606	14374
918.717	14404
918.828	14419
918.939	14423
919.05	14259
919.161	14343
919.272	14088
919.383	14252
919.494	14389
919.604	14545
919.715	14339
919.826	14290
919.936	14324
920.047	14488
920.157	14434
920.267	14583
920.378	14355
920.488	14305
920.598	14465
920.708	14530
920.818	14511
920.928	14465
921.038	14579
921.148	14651
921.258	14271
921.368	14191
921.477	14130
921.587	14115
921.697	13993
921.806	13993
921.916	13963
922.025	13712
922.134	13708
922.244	13689
922.353	13776
922.462	13567
922.571	13426
922.68	13476
922.789	13339
922.898	13369
923.007	13266
923.116	13441
923.224	13354
923.333	13377
923.442	13255
923.55	13091
923.659	13175
923.767	13324
923.876	13133
923.984	13221
924.092	13129
924.201	13194
924.309	13187
924.417	13114
924.525	13061
924.633	13080
924.741	13852
924.849	12844
924.956	13008
925.064	12852
925.172	12658
925.279	12768
925.387	12844
925.494	12798
925.602	12856
925.709	12859
925.816	12741
925.924	12768
926.031	12791
926.138	12738
926.245	12806
926.352	12681
926.459	12787
926.566	12753
926.673	12532
926.779	12654
926.886	12521
926.993	12445
927.099	12353
927.206	12361
927.312	12239
927.419	12395
927.525	12403
927.631	12365
927.737	12365
927.843	12289
927.95	12068
928.056	12148
928.162	12205
928.267	12262
928.373	12825
928.479	12201
928.585	11958
928.69	12155
928.796	12175
928.901	12121
929.007	11859
929.112	11999
929.218	11992
929.323	11965
929.428	11939
929.533	11969
929.638	11840
929.743	11802
929.848	11863
929.953	11874
930.058	11809
930.163	11646
930.267	11592
930.372	11794
930.477	11566
930.581	11813
930.685	11649
930.79	11520
930.894	11490
930.998	11543
931.103	11608
931.207	11292
931.311	11178
931.415	11117
931.519	11018
931.623	10889
