Data from test_V78500241_1985.txt Node
Date: Fri Mar 25 15:23:40 CST 2022
User: usil
Spectrometer: V785-0024
Trigger mode: 0
Integration Time (sec): 4.000000E-1
Scans to average: 1
Nonlinearity correction enabled: false
Boxcar width: 0
Storing dark spectrum: false
XAxis mode: Wavelengths
Number of Pixels in Spectrum: 1024
>>>>>Begin Spectral Data<<<<<
801.071	27914
801.214	27823
801.356	27534
801.499	27576
801.641	27431
801.783	27195
801.926	27348
802.068	27443
802.211	27332
802.353	27279
802.496	27173
802.638	27146
802.78	27036
802.923	26872
803.065	26979
803.208	27039
803.35	27184
803.492	27112
803.635	27188
803.777	27195
803.919	27199
804.061	27610
804.204	27211
804.346	27161
804.488	27142
804.63	27207
804.773	27096
804.915	27279
805.057	27462
805.199	27260
805.341	27325
805.483	27374
805.626	27378
805.768	27306
805.91	27427
806.052	27393
806.194	27287
806.336	27568
806.478	27492
806.62	27378
806.762	27473
806.904	27622
807.046	27983
807.188	27876
807.33	27720
807.472	27835
807.614	27739
807.756	27899
807.898	27679
808.04	27500
808.182	27557
808.324	27580
808.465	27705
808.607	27953
808.749	27972
808.891	28074
809.033	28139
809.174	28048
809.316	27968
809.458	28021
809.6	27960
809.741	28021
809.883	28070
810.025	28325
810.166	28253
810.308	28265
810.45	28265
810.591	28196
810.733	28124
810.875	27895
811.016	27846
811.158	27842
811.299	28059
811.441	28147
811.582	28177
811.724	27953
811.865	27895
812.007	27960
812.148	27899
812.29	28006
812.431	28063
812.573	28318
812.714	28512
812.855	28424
812.997	28752
813.138	28736
813.279	28565
813.421	28485
813.562	28367
813.703	28234
813.845	28181
813.986	27953
814.127	27918
814.268	27804
814.41	27743
814.551	27682
814.692	27720
814.833	27644
814.974	27625
815.115	27652
815.256	27671
815.397	27614
815.539	27633
815.68	27572
815.821	27370
815.962	27500
816.103	27431
816.244	27340
816.385	27298
816.526	27264
816.666	27176
816.807	26979
816.948	27058
817.089	27039
817.23	27047
817.371	27036
817.512	26960
817.653	27001
817.793	26990
817.934	26918
818.075	27001
818.216	26979
818.356	26914
818.497	26811
818.638	26746
818.778	26819
818.919	26762
819.06	26773
819.2	26830
819.341	27017
819.481	26956
819.622	27135
819.762	27397
819.903	27241
820.043	27047
820.184	27184
820.324	27100
820.465	27211
820.605	27085
820.746	27039
820.886	26986
821.026	27047
821.167	26963
821.307	27112
821.447	26975
821.588	26811
821.728	26929
821.868	26636
822.008	26488
822.149	26457
822.289	26412
822.429	26263
822.569	26142
822.709	26214
822.849	26001
822.99	26065
823.13	25909
823.27	25845
823.41	25852
823.55	25769
823.69	25776
823.83	25811
823.97	25761
824.11	25586
824.25	25559
824.389	25658
824.529	25723
824.669	25666
824.809	25685
824.949	25655
825.089	25647
825.228	25761
825.368	25422
825.508	25384
825.648	25590
825.787	25662
825.927	25438
826.067	25358
826.206	25472
826.346	25533
826.485	25495
826.625	25495
826.765	25540
826.904	25521
827.044	25217
827.183	25324
827.323	25187
827.462	25175
827.601	25175
827.741	25084
827.88	25209
828.02	25156
828.159	25114
828.298	25152
828.437	25312
828.577	25103
828.716	25179
828.855	25183
828.994	24966
829.134	24943
829.273	24932
829.412	24837
829.551	24825
829.69	24875
829.829	24935
829.968	24985
830.107	24890
830.246	24897
830.385	24966
830.524	24715
830.663	24825
830.802	24661
830.941	24597
831.08	24544
831.219	24593
831.357	24585
831.496	24768
831.635	24460
831.774	24395
831.913	24372
832.051	24391
832.19	24281
832.329	24220
832.467	24197
832.606	24133
832.744	24114
832.883	24213
833.022	24106
833.16	24114
833.299	24372
833.437	24209
833.576	24224
833.714	24270
833.852	24213
833.991	24296
834.129	24464
834.267	24281
834.406	24353
834.544	24350
834.682	24330
834.821	24133
834.959	24384
835.097	24140
835.235	24289
835.373	24068
835.511	24243
835.65	23992
835.788	24015
835.926	24079
836.064	23722
836.202	23980
836.34	24068
836.478	24133
836.615	24053
836.753	24190
836.891	24167
837.029	24159
837.167	24095
837.305	23996
837.443	23935
837.58	23954
837.718	23992
837.856	24026
837.993	23847
838.131	23878
838.269	23946
838.406	23946
838.544	23794
838.681	23528
838.819	23611
838.956	23429
839.094	23391
839.231	23520
839.369	23493
839.506	23767
839.643	23608
839.781	23463
839.918	23455
840.055	23360
840.193	23353
840.33	23220
840.467	23277
840.604	23299
840.742	23497
840.879	23079
841.016	23296
841.153	23200
841.29	23280
841.427	23311
841.564	23410
841.701	23235
841.838	23239
841.975	23204
842.112	23261
842.249	23162
842.385	23143
842.522	23246
842.659	23083
842.796	23136
842.933	23067
843.069	23075
843.206	23155
843.343	23022
843.479	23075
843.616	23006
843.752	22949
843.889	22930
844.025	22919
844.162	22896
844.298	22900
844.435	22892
844.571	22919
844.708	22911
844.844	22999
844.98	22976
845.117	22892
845.253	22850
845.389	22675
845.525	22706
845.661	22675
845.798	22554
845.934	22679
846.07	22542
846.206	22592
846.342	22656
846.478	22561
846.614	22413
846.75	22219
846.886	22287
847.022	22462
847.158	22386
847.294	22303
847.429	22249
847.565	22329
847.701	22459
847.837	22063
847.972	22044
848.108	22086
848.244	22082
848.379	21964
848.515	21869
848.65	21865
848.786	21888
848.921	22013
849.057	21979
849.192	21930
849.328	21945
849.463	21869
849.598	21884
849.734	21770
849.869	21743
850.004	21698
850.14	21865
850.275	21663
850.41	21637
850.545	21644
850.68	21629
850.815	21709
850.95	21747
851.085	21785
851.22	21709
851.355	21720
851.49	21629
851.625	21778
851.76	21610
851.895	21614
852.03	21523
852.165	21709
852.299	21675
852.434	21732
852.569	21720
852.703	21724
852.838	21603
852.973	21903
853.107	21869
853.242	21686
853.376	21473
853.511	21424
853.645	21431
853.78	21637
853.914	21507
854.048	21428
854.183	21466
854.317	21603
854.451	21694
854.585	21561
854.72	21538
854.854	21625
854.988	21393
855.122	21526
855.256	21443
855.39	21564
855.524	21603
855.658	21553
855.792	21557
855.926	21526
856.06	21511
856.194	21648
856.327	21568
856.461	21370
856.595	21488
856.729	21431
856.862	21572
856.996	21595
857.13	21519
857.263	21515
857.397	21591
857.53	21435
857.664	21469
857.797	21591
857.931	21614
858.064	21561
858.197	21538
858.331	21462
858.464	21492
858.597	21477
858.731	21526
858.864	21378
858.997	21473
859.13	21458
859.263	21542
859.396	21523
859.529	21405
859.662	21454
859.795	21500
859.928	21564
860.061	21572
860.194	21785
860.327	21523
860.46	21614
860.592	21682
860.725	21713
860.858	21701
860.99	21648
861.123	21397
861.256	21443
861.388	21515
861.521	22314
861.653	21431
861.786	21268
861.918	21268
862.05	21496
862.183	21374
862.315	21401
862.447	21587
862.58	21401
862.712	21260
862.844	21176
862.976	21351
863.108	21317
863.24	21736
863.372	21173
863.504	21188
863.636	21252
863.768	21180
863.9	21135
864.032	21112
864.164	21218
864.296	21249
864.428	21298
864.559	21241
864.691	21348
864.823	21150
864.954	21127
865.086	21135
865.217	21241
865.349	21062
865.48	20952
865.612	21131
865.743	21226
865.875	21211
866.006	21047
866.137	21013
866.269	21066
866.4	21119
866.531	20948
866.662	21055
866.793	21020
866.924	20967
867.055	21013
867.186	21093
867.317	21017
867.448	21020
867.579	20929
867.71	20902
867.841	20986
867.972	21127
868.103	20998
868.233	20975
868.364	21047
868.495	21096
868.625	21260
868.756	21291
868.886	21264
869.017	21226
869.147	21401
869.278	21397
869.408	21378
869.539	21397
869.669	21325
869.799	21252
869.929	21408
870.06	21344
870.19	21656
870.32	21523
870.45	21564
870.58	21698
870.71	21774
870.84	21812
870.97	21732
871.1	21690
871.23	21804
871.36	21960
871.489	21724
871.619	21827
871.749	21934
871.879	21918
872.008	21975
872.138	21842
872.267	21960
872.397	21755
872.526	21732
872.656	21762
872.785	21671
872.915	21926
873.044	21987
873.173	21949
873.303	21880
873.432	21956
873.561	22032
873.69	21884
873.819	21941
873.948	21937
874.077	22032
874.206	21884
874.335	21918
874.464	22006
874.593	22128
874.722	22051
874.851	22059
874.979	22287
875.108	22177
875.237	22029
875.365	21934
875.494	22147
875.623	22109
875.751	22086
875.88	22242
876.008	22272
876.136	22325
876.265	22455
876.393	22786
876.521	22672
876.65	22569
876.778	22577
876.906	22443
877.034	22459
877.162	22459
877.29	22417
877.418	22478
877.546	22424
877.674	22531
877.802	22531
877.93	22474
878.058	22329
878.185	22447
878.313	22379
878.441	22542
878.568	22386
878.696	22356
878.824	22443
878.951	22561
879.079	22675
879.206	22790
879.333	22641
879.461	22588
879.588	22637
879.715	22713
879.842	22668
879.97	22382
880.097	22265
880.224	22215
880.351	22303
880.478	22318
880.605	22242
880.732	22265
880.859	22409
880.986	22303
881.112	22375
881.239	22177
881.366	22025
881.493	21937
881.619	21804
881.746	21842
881.872	21854
881.999	21816
882.125	21823
882.252	21873
882.378	21842
882.505	21915
882.631	21580
882.757	21591
882.883	21542
883.01	21599
883.136	21496
883.262	21321
883.388	21340
883.514	21599
883.64	21523
883.766	21420
883.892	21424
884.018	21386
884.143	21431
884.269	21515
884.395	21233
884.52	21218
884.646	21222
884.772	21176
884.897	21062
885.023	21230
885.148	21165
885.274	21298
885.399	21203
885.524	21260
885.65	21287
885.775	21218
885.9	21005
886.025	21252
886.15	21268
886.275	21207
886.4	21150
886.525	21096
886.65	21081
886.775	21112
886.9	21249
887.025	21351
887.149	21066
887.274	21028
887.399	20956
887.523	20948
887.648	20895
887.773	20971
887.897	21169
888.021	21066
888.146	20967
888.27	21066
888.395	21005
888.519	20948
888.643	21009
888.767	21085
888.891	20861
889.015	20731
889.139	20853
889.263	20708
889.387	20785
889.511	20986
889.635	20857
889.759	20716
889.883	20762
890.006	20887
890.13	20933
890.254	20731
890.377	20697
890.501	20473
890.624	20537
890.748	20389
890.871	20377
890.995	20423
891.118	20290
891.241	20438
891.364	20393
891.488	20370
891.611	20286
891.734	20313
891.857	20385
891.98	20377
892.103	20389
892.226	20400
892.349	20358
892.471	20119
892.594	20309
892.717	20267
892.839	20221
892.962	20301
893.085	20237
893.207	20248
893.33	20149
893.452	20103
893.575	20332
893.697	20153
893.819	20446
893.941	20393
894.064	20530
894.186	20214
894.308	20157
894.43	20328
894.552	20362
894.674	20301
894.796	20157
894.918	20199
895.04	20195
895.161	20214
895.283	20164
895.405	20161
895.526	20237
895.648	20138
895.769	20278
895.891	20176
896.012	20339
896.134	20278
896.255	20237
896.376	20229
896.498	20240
896.619	20126
896.74	20111
896.861	20256
896.982	20511
897.103	20575
897.224	20434
897.345	20427
897.466	20454
897.587	20366
897.708	20609
897.828	20492
897.949	20282
898.07	20271
898.19	20290
898.311	20606
898.431	20313
898.552	20438
898.672	20522
898.792	20571
898.913	20366
899.033	20240
899.153	20229
899.273	20263
899.393	20164
899.513	20153
899.633	20138
899.753	20199
899.873	20145
899.993	20126
900.113	20134
900.232	20096
900.352	20218
900.472	19967
900.591	19967
900.711	20005
900.83	19761
900.95	20054
901.069	20001
901.189	19921
901.308	19704
901.427	19445
901.546	19578
901.665	19655
901.784	19556
901.904	19441
902.023	19190
902.141	19160
902.26	19080
902.379	19209
902.498	19084
902.617	19008
902.735	19141
902.854	19046
902.973	18977
903.091	18722
903.21	18776
903.328	18787
903.446	18658
903.565	18498
903.683	18559
903.801	18460
903.919	18475
904.038	18490
904.156	18178
904.274	18327
904.392	18346
904.51	18247
904.627	18262
904.745	18292
904.863	18342
904.981	18136
905.098	17973
905.216	17931
905.334	18030
905.451	18034
905.569	17935
905.686	18057
905.803	17942
905.921	17703
906.038	17843
906.155	17729
906.272	17600
906.389	17691
906.506	17463
906.623	17577
906.74	17509
906.857	17360
906.974	17410
907.091	17474
907.208	17638
907.324	17433
907.441	17482
907.557	17303
907.674	17220
907.79	17155
907.907	17170
908.023	17288
908.139	17197
908.256	17086
908.372	17086
908.488	17067
908.604	17071
908.72	16957
908.836	16904
908.952	16911
909.068	16980
909.184	17090
909.3	16900
909.415	16923
909.531	16923
909.647	16672
909.762	16599
909.878	16607
909.993	16637
910.108	16637
910.224	16565
910.339	16626
910.454	16512
910.57	16466
910.685	16394
910.8	16634
910.915	16565
911.03	16489
911.145	16329
911.259	16257
911.374	16272
911.489	16150
911.604	16120
911.718	15956
911.833	15968
911.947	15854
912.062	15762
912.176	15915
912.291	15880
912.405	15899
912.519	16120
912.633	16101
912.748	16013
912.862	15907
912.976	15789
913.09	15671
913.204	15804
913.318	15846
913.431	15850
913.545	15899
913.659	15918
913.772	15781
913.886	15564
914	15507
914.113	15644
914.226	15679
914.34	15724
914.453	15443
914.566	15606
914.68	15538
914.793	15439
914.906	15138
915.019	15077
915.132	15093
915.245	15180
915.358	15074
915.47	15108
915.583	15131
915.696	15222
915.809	15310
915.921	15272
916.034	15119
916.146	15165
916.259	15093
916.371	15169
916.483	15150
916.595	15024
916.708	15017
916.82	15043
916.932	14994
917.044	14975
917.156	14876
917.268	14807
917.38	14811
917.491	14781
917.603	14834
917.715	14929
917.826	14929
917.938	14739
918.049	14674
918.161	14941
918.272	14975
918.384	14845
918.495	14781
918.606	14571
918.717	14587
918.828	14636
918.939	14701
919.05	14556
919.161	14571
919.272	14351
919.383	14492
919.494	14613
919.604	14857
919.715	14583
919.826	14438
919.936	14522
920.047	14659
920.157	14579
920.267	14632
920.378	14587
920.488	14602
920.598	14849
920.708	14842
920.818	14697
920.928	14610
921.038	14887
921.148	14670
921.258	14507
921.368	14381
921.477	14328
921.587	14278
921.697	14172
921.806	14317
921.916	14031
922.025	13951
922.134	13944
922.244	13883
922.353	13951
922.462	13757
922.571	13662
922.68	13620
922.789	13571
922.898	13620
923.007	13525
923.116	13533
923.224	13594
923.333	13537
923.442	13491
923.55	13335
923.659	13468
923.767	13502
923.876	13392
923.984	13453
924.092	13316
924.201	13354
924.309	13384
924.417	13316
924.525	13274
924.633	13293
924.741	13959
924.849	13069
924.956	13156
925.064	13088
925.172	13000
925.279	12916
925.387	12924
925.494	12996
925.602	13122
925.709	13031
925.816	12867
925.924	12924
926.031	13008
926.138	12871
926.245	12989
926.352	12897
926.459	12989
926.566	13004
926.673	12829
926.779	12783
926.886	12791
926.993	12608
927.099	12574
927.206	12604
927.312	12502
927.419	12719
927.525	12517
927.631	12635
927.737	12467
927.843	12380
927.95	12277
928.056	12350
928.162	12456
928.267	12365
928.373	13053
928.479	12467
928.585	12197
928.69	12311
928.796	12418
928.901	12197
929.007	12060
929.112	12243
929.218	12053
929.323	12125
929.428	12087
929.533	12216
929.638	12079
929.743	12079
929.848	12110
929.953	12038
930.058	11916
930.163	11767
930.267	11817
930.372	11901
930.477	11798
930.581	12019
930.685	11836
930.79	11608
930.894	11760
930.998	11577
931.103	11767
931.207	11516
931.311	11356
931.415	11277
931.519	11178
931.623	11010
