Data from test_V78500241_943.txt Node
Date: Fri Mar 25 15:16:25 CST 2022
User: usil
Spectrometer: V785-0024
Trigger mode: 0
Integration Time (sec): 4.000000E-1
Scans to average: 1
Nonlinearity correction enabled: false
Boxcar width: 0
Storing dark spectrum: false
XAxis mode: Wavelengths
Number of Pixels in Spectrum: 1024
>>>>>Begin Spectral Data<<<<<
801.071	27861
801.214	27739
801.356	27538
801.499	27443
801.641	27340
801.783	27405
801.926	27606
802.068	27344
802.211	27211
802.353	27222
802.496	27070
802.638	26963
802.78	27100
802.923	26990
803.065	27077
803.208	26937
803.35	26998
803.492	27112
803.635	27199
803.777	27108
803.919	27211
804.061	27511
804.204	27275
804.346	27218
804.488	27047
804.63	27150
804.773	27108
804.915	27252
805.057	27264
805.199	27180
805.341	27161
805.483	27245
805.626	27424
805.768	27226
805.91	27214
806.052	27405
806.194	27256
806.336	27587
806.478	27351
806.62	27096
806.762	27564
806.904	27698
807.046	27717
807.188	27838
807.33	27778
807.472	27663
807.614	27739
807.756	27785
807.898	27526
808.04	27561
808.182	27614
808.324	27637
808.465	27614
808.607	27846
808.749	28051
808.891	28074
809.033	28120
809.174	27987
809.316	27949
809.458	27994
809.6	28032
809.741	28128
809.883	28116
810.025	28207
810.166	28337
810.308	28299
810.45	28181
810.591	28101
810.733	28044
810.875	28013
811.016	27876
811.158	27941
811.299	27998
811.441	28101
811.582	28211
811.724	27987
811.865	27907
812.007	27880
812.148	27911
812.29	27956
812.431	28166
812.573	28306
812.714	28322
812.855	28390
812.997	28641
813.138	28706
813.279	28618
813.421	28653
813.562	28398
813.703	28329
813.845	28219
813.986	27964
814.127	27812
814.268	27698
814.41	27622
814.551	27660
814.692	27686
814.833	27526
814.974	27595
815.115	27713
815.256	27576
815.397	27599
815.539	27587
815.68	27473
815.821	27424
815.962	27405
816.103	27389
816.244	27287
816.385	27249
816.526	27283
816.666	27146
816.807	26887
816.948	27100
817.089	27089
817.23	26914
817.371	26979
817.512	27009
817.653	26876
817.793	26986
817.934	26929
818.075	27017
818.216	26975
818.356	26937
818.497	26788
818.638	26560
818.778	26735
818.919	26629
819.06	26811
819.2	27074
819.341	26895
819.481	26819
819.622	27081
819.762	27268
819.903	27226
820.043	27245
820.184	27093
820.324	27165
820.465	27119
820.605	27146
820.746	27009
820.886	26868
821.026	27085
821.167	27066
821.307	27070
821.447	27032
821.588	26910
821.728	26773
821.868	26564
822.008	26484
822.149	26495
822.289	26362
822.429	26271
822.569	26138
822.709	26134
822.849	26062
822.99	26062
823.13	25921
823.27	25852
823.41	25791
823.55	25597
823.69	25932
823.83	25814
823.97	25761
824.11	25658
824.25	25609
824.389	25685
824.529	25696
824.669	25639
824.809	25620
824.949	25712
825.089	25575
825.228	25613
825.368	25563
825.508	25434
825.648	25441
825.787	25540
825.927	25525
826.067	25491
826.206	25506
826.346	25495
826.485	25533
826.625	25476
826.765	25635
826.904	25468
827.044	25274
827.183	25213
827.323	25095
827.462	25232
827.601	25206
827.741	25278
827.88	25164
828.02	25152
828.159	25213
828.298	25259
828.437	25156
828.577	25156
828.716	25244
828.855	25137
828.994	24932
829.134	24954
829.273	24939
829.412	24943
829.551	24867
829.69	25012
829.829	24947
829.968	25012
830.107	24939
830.246	24886
830.385	24878
830.524	24776
830.663	24726
830.802	24692
830.941	24525
831.08	24540
831.219	24639
831.357	24604
831.496	24696
831.635	24563
831.774	24486
831.913	24350
832.051	24270
832.19	24190
832.329	24467
832.467	24266
832.606	24235
832.744	24091
832.883	24251
833.022	24110
833.16	24197
833.299	24300
833.437	24239
833.576	24258
833.714	24281
833.852	24289
833.991	24262
834.129	24422
834.267	24220
834.406	24289
834.544	24224
834.682	24357
834.821	24376
834.959	24376
835.097	24311
835.235	24365
835.373	24247
835.511	24243
835.65	23992
835.788	24102
835.926	23950
836.064	23927
836.202	23954
836.34	24079
836.478	24106
836.615	23935
836.753	24140
836.891	24140
837.029	24167
837.167	23977
837.305	24121
837.443	24049
837.58	24003
837.718	23980
837.856	24011
837.993	24018
838.131	23851
838.269	23798
838.406	23958
838.544	23859
838.681	23570
838.819	23642
838.956	23482
839.094	23436
839.231	23391
839.369	23467
839.506	23798
839.643	23638
839.781	23330
839.918	23341
840.055	23353
840.193	23368
840.33	23174
840.467	23421
840.604	23467
840.742	23684
840.879	23162
841.016	23242
841.153	23292
841.29	23440
841.427	23277
841.564	23474
841.701	23330
841.838	23265
841.975	23246
842.112	23337
842.249	23231
842.385	23121
842.522	23436
842.659	23166
842.796	23060
842.933	23231
843.069	23029
843.206	22896
843.343	23102
843.479	22995
843.616	23235
843.752	22904
843.889	22797
844.025	23052
844.162	22774
844.298	22949
844.435	22885
844.571	22835
844.708	22923
844.844	22965
844.98	22953
845.117	23048
845.253	22946
845.389	22710
845.525	22702
845.661	22698
845.798	22634
845.934	22691
846.07	22649
846.206	22660
846.342	22717
846.478	22538
846.614	22337
846.75	22268
846.886	22284
847.022	22371
847.158	22325
847.294	22329
847.429	22379
847.565	22284
847.701	22535
847.837	22207
847.972	22070
848.108	22124
848.244	22105
848.379	21968
848.515	21945
848.65	21941
848.786	22029
848.921	21956
849.057	22048
849.192	21918
849.328	21911
849.463	21922
849.598	21930
849.734	21762
849.869	21781
850.004	21660
850.14	21583
850.275	21667
850.41	21618
850.545	21717
850.68	21660
850.815	21789
850.95	21762
851.085	21793
851.22	21842
851.355	21892
851.49	21724
851.625	21660
851.76	21694
851.895	21663
852.03	21603
852.165	21755
852.299	21774
852.434	21907
852.569	21739
852.703	21724
852.838	21663
852.973	21835
853.107	21804
853.242	21705
853.376	21496
853.511	21435
853.645	21481
853.78	21622
853.914	21428
854.048	21458
854.183	21473
854.317	21580
854.451	21709
854.585	21462
854.72	21382
854.854	21587
854.988	21408
855.122	21473
855.256	21466
855.39	21568
855.524	21553
855.658	21591
855.792	21466
855.926	21469
856.06	21663
856.194	21686
856.327	21462
856.461	21416
856.595	21511
856.729	21473
856.862	21462
856.996	21542
857.13	21652
857.263	21599
857.397	21717
857.53	21488
857.664	21553
857.797	21591
857.931	21637
858.064	21580
858.197	21610
858.331	21466
858.464	21428
858.597	21504
858.731	21519
858.864	21473
858.997	21545
859.13	21458
859.263	21469
859.396	21599
859.529	21534
859.662	21439
859.795	21511
859.928	21523
860.061	21728
860.194	21739
860.327	21599
860.46	21530
860.592	21610
860.725	21648
860.858	21637
860.99	21466
861.123	21405
861.256	21420
861.388	21542
861.521	22070
861.653	21359
861.786	21370
861.918	21264
862.05	21416
862.183	21439
862.315	21401
862.447	21431
862.58	21542
862.712	21233
862.844	21108
862.976	21332
863.108	21359
863.24	21717
863.372	21066
863.504	21195
863.636	21252
863.768	21195
863.9	21161
864.032	21176
864.164	21093
864.296	21355
864.428	21306
864.559	21317
864.691	21207
864.823	21260
864.954	21150
865.086	21176
865.217	21127
865.349	21138
865.48	21112
865.612	21051
865.743	21264
865.875	21116
866.006	21020
866.137	21123
866.269	21085
866.4	21009
866.531	21081
866.662	21043
866.793	21020
866.924	21131
867.055	21070
867.186	21020
867.317	20982
867.448	20967
867.579	21032
867.71	21119
867.841	20906
867.972	21039
868.103	20967
868.233	21081
868.364	21096
868.495	21214
868.625	21344
868.756	21367
868.886	21150
869.017	21150
869.147	21473
869.278	21386
869.408	21374
869.539	21310
869.669	21408
869.799	21370
869.929	21454
870.06	21538
870.19	21458
870.32	21526
870.45	21694
870.58	21591
870.71	21781
870.84	21637
870.97	21561
871.1	21633
871.23	21831
871.36	21857
871.489	21701
871.619	21827
871.749	21812
871.879	21869
872.008	21987
872.138	21956
872.267	21838
872.397	21663
872.526	21686
872.656	21743
872.785	21770
872.915	21857
873.044	21895
873.173	21903
873.303	21861
873.432	21915
873.561	21956
873.69	21975
873.819	21850
873.948	21835
874.077	21857
874.206	21816
874.335	21660
874.464	21930
874.593	22147
874.722	22010
874.851	22128
874.979	22215
875.108	22093
875.237	22128
875.365	21983
875.494	22021
875.623	22139
875.751	22025
875.88	22192
876.008	22207
876.136	22379
876.265	22542
876.393	22535
876.521	22512
876.65	22580
876.778	22447
876.906	22478
877.034	22478
877.162	22470
877.29	22523
877.418	22550
877.546	22500
877.674	22421
877.802	22478
877.93	22462
878.058	22447
878.185	22451
878.313	22287
878.441	22402
878.568	22177
878.696	22451
878.824	22485
878.951	22489
879.079	22577
879.206	22717
879.333	22653
879.461	22489
879.588	22447
879.715	22535
879.842	22683
879.97	22531
880.097	22291
880.224	22234
880.351	22272
880.478	22348
880.605	22200
880.732	22207
880.859	22542
880.986	22390
881.112	22185
881.239	22131
881.366	22013
881.493	21941
881.619	21873
881.746	21842
881.872	21865
881.999	21759
882.125	21880
882.252	21850
882.378	21915
882.505	22040
882.631	21747
882.757	21583
882.883	21663
883.01	21538
883.136	21450
883.262	21389
883.388	21454
883.514	21561
883.64	21641
883.766	21416
883.892	21325
884.018	21302
884.143	21534
884.269	21515
884.395	21336
884.52	21165
884.646	21150
884.772	21146
884.897	21150
885.023	21256
885.148	21279
885.274	21321
885.399	21306
885.524	21154
885.65	21108
885.775	21287
885.9	21176
886.025	21237
886.15	21230
886.275	20979
886.4	21043
886.525	21123
886.65	21020
886.775	21058
886.9	21233
887.025	21443
887.149	21093
887.274	21039
887.399	20971
887.523	20963
887.648	20937
887.773	20868
887.897	20990
888.021	20918
888.146	20861
888.27	21081
888.395	21157
888.519	20921
888.643	20937
888.767	20998
888.891	20804
889.015	20785
889.139	20796
889.263	20693
889.387	20868
889.511	20990
889.635	20941
889.759	20712
889.883	20693
890.006	20739
890.13	20716
890.254	20667
890.377	20712
890.501	20568
890.624	20587
890.748	20537
890.871	20488
890.995	20336
891.118	20415
891.241	20347
891.364	20328
891.488	20629
891.611	20275
891.734	20313
891.857	20370
891.98	20320
892.103	20381
892.226	20248
892.349	20275
892.471	20119
892.594	20267
892.717	20294
892.839	20214
892.962	20248
893.085	20370
893.207	20172
893.33	20210
893.452	20084
893.575	20298
893.697	20199
893.819	20465
893.941	20362
894.064	20252
894.186	20301
894.308	19944
894.43	20324
894.552	20385
894.674	20233
894.796	20088
894.918	20164
895.04	20195
895.161	20259
895.283	20145
895.405	20088
895.526	20214
895.648	20218
895.769	20237
895.891	20214
896.012	20267
896.134	20164
896.255	20244
896.376	20142
896.498	20164
896.619	20298
896.74	20206
896.861	20267
896.982	20469
897.103	20674
897.224	20488
897.345	20404
897.466	20400
897.587	20294
897.708	20655
897.828	20450
897.949	20290
898.07	20256
898.19	20415
898.311	20549
898.431	20415
898.552	20237
898.672	20434
898.792	20568
898.913	20343
899.033	20366
899.153	20259
899.273	20195
899.393	20111
899.513	20233
899.633	20229
899.753	20069
899.873	20084
899.993	20126
900.113	20183
900.232	20130
900.352	20115
900.472	19890
900.591	19902
900.711	19963
900.83	19868
900.95	20046
901.069	20058
901.189	19887
901.308	19693
901.427	19586
901.546	19453
901.665	19571
901.784	19480
901.904	19247
902.023	19187
902.141	19061
902.26	19114
902.379	19221
902.498	19099
902.617	19027
902.735	19202
902.854	18947
902.973	18958
903.091	18711
903.21	18631
903.328	18650
903.446	18650
903.565	18528
903.683	18498
903.801	18410
903.919	18464
904.038	18502
904.156	18330
904.274	18391
904.392	18258
904.51	18334
904.627	18281
904.745	18433
904.863	18448
904.981	18110
905.098	18019
905.216	17958
905.334	18007
905.451	17988
905.569	17961
905.686	18049
905.803	17946
905.921	17733
906.038	17897
906.155	17619
906.272	17710
906.389	17714
906.506	17562
906.623	17532
906.74	17463
906.857	17467
906.974	17452
907.091	17539
907.208	17653
907.324	17642
907.441	17376
907.557	17227
907.674	17326
907.79	17250
907.907	17128
908.023	17208
908.139	17227
908.256	17086
908.372	17079
908.488	17052
908.604	16991
908.72	16991
908.836	16877
908.952	16938
909.068	16873
909.184	17003
909.3	16889
909.415	17037
909.531	17006
909.647	16660
909.762	16744
909.878	16660
909.993	16599
910.108	16466
910.224	16542
910.339	16626
910.454	16603
910.57	16455
910.685	16436
910.8	16679
910.915	16596
911.03	16538
911.145	16147
911.259	16219
911.374	16162
911.489	16109
911.604	16173
911.718	15937
911.833	15991
911.947	15934
912.062	15793
912.176	15899
912.291	15983
912.405	15987
912.519	16162
912.633	16116
912.748	15926
912.862	15922
912.976	15743
913.09	15614
913.204	15774
913.318	15812
913.431	15842
913.545	15831
913.659	15915
913.772	15717
913.886	15572
914	15587
914.113	15629
914.226	15663
914.34	15606
914.453	15576
914.566	15557
914.68	15545
914.793	15481
914.906	15325
915.019	15173
915.132	15097
915.245	15211
915.358	15188
915.47	15154
915.583	15233
915.696	15192
915.809	15283
915.921	15329
916.034	15127
916.146	15097
916.259	15028
916.371	15222
916.483	15055
916.595	14990
916.708	15036
916.82	15051
916.932	14960
917.044	14963
917.156	14929
917.268	14891
917.38	14872
917.491	14914
917.603	14750
917.715	14921
917.826	14853
917.938	14868
918.049	14716
918.161	14750
918.272	14979
918.384	14834
918.495	14819
918.606	14617
918.717	14564
918.828	14651
918.939	14598
919.05	14503
919.161	14625
919.272	14385
919.383	14552
919.494	14648
919.604	14868
919.715	14530
919.826	14499
919.936	14533
920.047	14617
920.157	14552
920.267	14686
920.378	14598
920.488	14461
920.598	14746
920.708	14826
920.818	14663
920.928	14754
921.038	14830
921.148	14796
921.258	14541
921.368	14404
921.477	14370
921.587	14259
921.697	14183
921.806	14320
921.916	14248
922.025	14069
922.134	13898
922.244	13864
922.353	13928
922.462	13830
922.571	13814
922.68	13540
922.789	13510
922.898	13571
923.007	13548
923.116	13582
923.224	13559
923.333	13552
923.442	13445
923.55	13327
923.659	13510
923.767	13426
923.876	13415
923.984	13384
924.092	13324
924.201	13369
924.309	13331
924.417	13365
924.525	13274
924.633	13285
924.741	14161
924.849	13095
924.956	13354
925.064	13034
925.172	12935
925.279	13000
925.387	13046
925.494	12954
925.602	13084
925.709	13057
925.816	12954
925.924	12966
926.031	12962
926.138	12878
926.245	13027
926.352	12837
926.459	13012
926.566	12924
926.673	12954
926.779	12738
926.886	12760
926.993	12604
927.099	12582
927.206	12448
927.312	12464
927.419	12601
927.525	12502
927.631	12559
927.737	12486
927.843	12289
927.95	12300
928.056	12407
928.162	12361
928.267	12391
928.373	12985
928.479	12479
928.585	12273
928.69	12281
928.796	12384
928.901	12197
929.007	12140
929.112	12235
929.218	12273
929.323	12155
929.428	12007
929.533	12296
929.638	12026
929.743	12053
929.848	12175
929.953	11999
930.058	11923
930.163	11707
930.267	11726
930.372	11897
930.477	11680
930.581	11961
930.685	11847
930.79	11638
930.894	11726
930.998	11733
931.103	11931
931.207	11482
931.311	11345
931.415	11299
931.519	11045
931.623	11045
