Data from test_V78500241_582.txt Node
Date: Fri Mar 25 15:13:54 CST 2022
User: usil
Spectrometer: V785-0024
Trigger mode: 0
Integration Time (sec): 4.000000E-1
Scans to average: 1
Nonlinearity correction enabled: false
Boxcar width: 0
Storing dark spectrum: false
XAxis mode: Wavelengths
Number of Pixels in Spectrum: 1024
>>>>>Begin Spectral Data<<<<<
801.071	27207
801.214	27135
801.356	26963
801.499	26891
801.641	26826
801.783	26697
801.926	26807
802.068	26819
802.211	26564
802.353	26678
802.496	26377
802.638	26374
802.78	26362
802.923	26343
803.065	26343
803.208	26263
803.35	26339
803.492	26389
803.635	26442
803.777	26294
803.919	26366
804.061	26720
804.204	26465
804.346	26427
804.488	26522
804.63	26632
804.773	26259
804.915	26446
805.057	26575
805.199	26552
805.341	26686
805.483	26689
805.626	26560
805.768	26549
805.91	26560
806.052	26621
806.194	26579
806.336	26895
806.478	26670
806.62	26644
806.762	26682
806.904	26952
807.046	27203
807.188	26960
807.33	27001
807.472	27066
807.614	26914
807.756	27017
807.898	26937
808.04	26868
808.182	26834
808.324	26910
808.465	26819
808.607	27096
808.749	27142
808.891	27268
809.033	27405
809.174	27321
809.316	27214
809.458	27317
809.6	27264
809.741	27310
809.883	27389
810.025	27561
810.166	27652
810.308	27606
810.45	27538
810.591	27504
810.733	27279
810.875	27287
811.016	26979
811.158	26975
811.299	27291
811.441	27336
811.582	27325
811.724	27176
811.865	26967
812.007	27138
812.148	27245
812.29	27096
812.431	27401
812.573	27507
812.714	27625
812.855	27736
812.997	27869
813.138	28147
813.279	28017
813.421	27774
813.562	27819
813.703	27610
813.845	27553
813.986	27222
814.127	26971
814.268	26921
814.41	26834
814.551	26876
814.692	26952
814.833	26925
814.974	26815
815.115	26937
815.256	26819
815.397	26686
815.539	26678
815.68	26743
815.821	26655
815.962	26682
816.103	26819
816.244	26621
816.385	26400
816.526	26404
816.666	26286
816.807	26176
816.948	26252
817.089	26267
817.23	26229
817.371	26221
817.512	26191
817.653	26221
817.793	26058
817.934	26221
818.075	26286
818.216	26176
818.356	26202
818.497	26092
818.638	25989
818.778	25856
818.919	25944
819.06	26027
819.2	26073
819.341	26134
819.481	26271
819.622	26320
819.762	26457
819.903	26366
820.043	26400
820.184	26305
820.324	26263
820.465	26282
820.605	26168
820.746	26385
820.886	26161
821.026	26248
821.167	26278
821.307	26187
821.447	26214
821.588	26092
821.728	25852
821.868	25746
822.008	25639
822.149	25624
822.289	25544
822.429	25460
822.569	25274
822.709	25358
822.849	25126
822.99	25118
823.13	25103
823.27	25133
823.41	24932
823.55	24901
823.69	25053
823.83	24894
823.97	24901
824.11	24719
824.25	24745
824.389	24696
824.529	24901
824.669	24798
824.809	24897
824.949	24764
825.089	24829
825.228	24840
825.368	24623
825.508	24627
825.648	24734
825.787	24627
825.927	24669
826.067	24665
826.206	24597
826.346	24688
826.485	24715
826.625	24578
826.765	24525
826.904	24521
827.044	24475
827.183	24380
827.323	24357
827.462	24441
827.601	24292
827.741	24388
827.88	24380
828.02	24209
828.159	24338
828.298	24414
828.437	24441
828.577	24327
828.716	24479
828.855	24243
828.994	24083
829.134	24064
829.273	24022
829.412	24068
829.551	24114
829.69	24049
829.829	24155
829.968	24148
830.107	24129
830.246	24114
830.385	23999
830.524	24034
830.663	23969
830.802	23783
830.941	23661
831.08	23668
831.219	23855
831.357	23752
831.496	23980
831.635	23653
831.774	23512
831.913	23543
832.051	23562
832.19	23444
832.329	23512
832.467	23429
832.606	23353
832.744	23440
832.883	23303
833.022	23261
833.16	23311
833.299	23486
833.437	23353
833.576	23315
833.714	23341
833.852	23463
833.991	23364
834.129	23448
834.267	23634
834.406	23398
834.544	23463
834.682	23444
834.821	23425
834.959	23604
835.097	23334
835.235	23512
835.373	23429
835.511	23414
835.65	23376
835.788	23315
835.926	23185
836.064	23155
836.202	23117
836.34	23277
836.478	23284
836.615	23246
836.753	23239
836.891	23246
837.029	23292
837.167	23235
837.305	23250
837.443	23014
837.58	22957
837.718	23223
837.856	23170
837.993	22915
838.131	23170
838.269	22869
838.406	23060
838.544	22847
838.681	22854
838.819	22801
838.956	22706
839.094	22645
839.231	22603
839.369	22729
839.506	23033
839.643	22866
839.781	22569
839.918	22504
840.055	22622
840.193	22615
840.33	22519
840.467	22656
840.604	22538
840.742	22683
840.879	22226
841.016	22390
841.153	22523
841.29	22641
841.427	22508
841.564	22584
841.701	22656
841.838	22508
841.975	22421
842.112	22363
842.249	22299
842.385	22299
842.522	22485
842.659	22177
842.796	22177
842.933	22348
843.069	22257
843.206	22150
843.343	22367
843.479	22325
843.616	22265
843.752	22036
843.889	22131
844.025	22253
844.162	22112
844.298	22238
844.435	22002
844.571	21956
844.708	22017
844.844	22223
844.98	22253
845.117	22124
845.253	22002
845.389	21972
845.525	22013
845.661	21922
845.798	21854
845.934	21854
846.07	21812
846.206	21884
846.342	21918
846.478	21717
846.614	21583
846.75	21530
846.886	21564
847.022	21458
847.158	21641
847.294	21564
847.429	21538
847.565	21348
847.701	21781
847.837	21382
847.972	21214
848.108	21348
848.244	21382
848.379	21173
848.515	21123
848.65	21093
848.786	21077
848.921	21176
849.057	21325
849.192	21207
849.328	21135
849.463	21180
849.598	20963
849.734	21039
849.869	20963
850.004	20872
850.14	20986
850.275	20868
850.41	20731
850.545	20868
850.68	20769
850.815	20823
850.95	21036
851.085	21024
851.22	20929
851.355	20811
851.49	20895
851.625	20746
851.76	20906
851.895	20895
852.03	20762
852.165	20883
852.299	20929
852.434	20948
852.569	20948
852.703	20895
852.838	21070
852.973	21005
853.107	21096
853.242	20914
853.376	20727
853.511	20571
853.645	20644
853.78	20800
853.914	20739
854.048	20796
854.183	20746
854.317	20708
854.451	20902
854.585	20800
854.72	20693
854.854	20762
854.988	20651
855.122	20716
855.256	20590
855.39	20705
855.524	20823
855.658	20830
855.792	20781
855.926	20807
856.06	20811
856.194	20853
856.327	20625
856.461	20644
856.595	20587
856.729	20667
856.862	20830
856.996	20834
857.13	20823
857.263	20876
857.397	20682
857.53	20762
857.664	20743
857.797	20758
857.931	20800
858.064	20648
858.197	20887
858.331	20842
858.464	20663
858.597	20571
858.731	20613
858.864	20636
858.997	20697
859.13	20651
859.263	20682
859.396	20830
859.529	20788
859.662	20708
859.795	20606
859.928	20686
860.061	20872
860.194	20910
860.327	20891
860.46	20758
860.592	20937
860.725	20872
860.858	20807
860.99	20716
861.123	20530
861.256	20659
861.388	20720
861.521	21587
861.653	20583
861.786	20629
861.918	20552
862.05	20606
862.183	20712
862.315	20579
862.447	20689
862.58	20655
862.712	20499
862.844	20450
862.976	20507
863.108	20499
863.24	20910
863.372	20408
863.504	20320
863.636	20473
863.768	20408
863.9	20484
864.032	20434
864.164	20518
864.296	20431
864.428	20518
864.559	20568
864.691	20541
864.823	20465
864.954	20362
865.086	20488
865.217	20374
865.349	20191
865.48	20339
865.612	20347
865.743	20347
865.875	20351
866.006	20309
866.137	20282
866.269	20290
866.4	20351
866.531	20176
866.662	20282
866.793	20168
866.924	20229
867.055	20225
867.186	20336
867.317	20286
867.448	20229
867.579	20351
867.71	20176
867.841	20161
867.972	20244
868.103	20206
868.233	20347
868.364	20237
868.495	20434
868.625	20507
868.756	20549
868.886	20377
869.017	20492
869.147	20621
869.278	20549
869.408	20568
869.539	20503
869.669	20457
869.799	20492
869.929	20625
870.06	20632
870.19	20842
870.32	20876
870.45	20872
870.58	20933
870.71	20990
870.84	20963
870.97	20937
871.1	20910
871.23	21070
871.36	21100
871.489	21009
871.619	21100
871.749	21100
871.879	21123
872.008	21214
872.138	21024
872.267	21108
872.397	21017
872.526	20864
872.656	20990
872.785	20914
872.915	21096
873.044	21154
873.173	21085
873.303	21192
873.432	21218
873.561	21230
873.69	21222
873.819	21119
873.948	21112
874.077	21123
874.206	21157
874.335	21218
874.464	21291
874.593	21378
874.722	21306
874.851	21428
874.979	21405
875.108	21378
875.237	21359
875.365	21264
875.494	21420
875.623	21412
875.751	21389
875.88	21416
876.008	21397
876.136	21564
876.265	21755
876.393	21819
876.521	21861
876.65	21781
876.778	21789
876.906	21743
877.034	21614
877.162	21690
877.29	21663
877.418	21857
877.546	21720
877.674	21827
877.802	21717
877.93	21720
878.058	21778
878.185	21583
878.313	21671
878.441	21732
878.568	21572
878.696	21690
878.824	21755
878.951	21637
879.079	21816
879.206	21907
879.333	21854
879.461	21694
879.588	21861
879.715	21846
879.842	21968
879.97	21812
880.097	21488
880.224	21549
880.351	21504
880.478	21534
880.605	21492
880.732	21473
880.859	21827
880.986	21564
881.112	21496
881.239	21306
881.366	21214
881.493	21237
881.619	21192
881.746	21184
881.872	21119
881.999	21135
882.125	21127
882.252	21127
882.378	21154
882.505	21245
882.631	21024
882.757	20921
882.883	20998
883.01	20785
883.136	20811
883.262	20693
883.388	20773
883.514	20891
883.64	20868
883.766	20716
883.892	20697
884.018	20682
884.143	20773
884.269	20762
884.395	20492
884.52	20545
884.646	20621
884.772	20438
884.897	20298
885.023	20598
885.148	20606
885.274	20617
885.399	20674
885.524	20499
885.65	20499
885.775	20393
885.9	20415
886.025	20499
886.15	20575
886.275	20545
886.4	20336
886.525	20362
886.65	20552
886.775	20404
886.9	20480
887.025	20750
887.149	20358
887.274	20370
887.399	20229
887.523	20320
887.648	20218
887.773	20214
887.897	20404
888.021	20256
888.146	20233
888.27	20427
888.395	20347
888.519	20317
888.643	20290
888.767	20214
888.891	20244
889.015	20062
889.139	20122
889.263	20069
889.387	20153
889.511	20305
889.635	20149
889.759	20046
889.883	20027
890.006	19928
890.13	20138
890.254	20024
890.377	20012
890.501	19795
890.624	19719
890.748	19871
890.871	19761
890.995	19597
891.118	19658
891.241	19540
891.364	19704
891.488	19788
891.611	19723
891.734	19689
891.857	19681
891.98	19666
892.103	19712
892.226	19685
892.349	19700
892.471	19426
892.594	19571
892.717	19639
892.839	19537
892.962	19620
893.085	19696
893.207	19518
893.33	19362
893.452	19521
893.575	19685
893.697	19476
893.819	19799
893.941	19803
894.064	19674
894.186	19552
894.308	19525
894.43	19674
894.552	19704
894.674	19537
894.796	19464
894.918	19552
895.04	19533
895.161	19540
895.283	19590
895.405	19537
895.526	19575
895.648	19571
895.769	19506
895.891	19582
896.012	19609
896.134	19643
896.255	19639
896.376	19548
896.498	19632
896.619	19571
896.74	19563
896.861	19571
896.982	19894
897.103	20016
897.224	19887
897.345	19803
897.466	19651
897.587	19769
897.708	19940
897.828	19761
897.949	19795
898.07	19643
898.19	19765
898.311	19902
898.431	19822
898.552	19803
898.672	19860
898.792	19875
898.913	19913
899.033	19826
899.153	19552
899.273	19445
899.393	19495
899.513	19575
899.633	19518
899.753	19658
899.873	19594
899.993	19590
900.113	19521
900.232	19624
900.352	19346
900.472	19403
900.591	19308
900.711	19335
900.83	19373
900.95	19362
901.069	19312
901.189	19225
901.308	19065
901.427	18856
901.546	18973
901.665	18935
901.784	18882
901.904	18791
902.023	18559
902.141	18582
902.26	18517
902.379	18627
902.498	18429
902.617	18464
902.735	18441
902.854	18483
902.973	18441
903.091	18220
903.21	18121
903.328	18076
903.446	18026
903.565	17863
903.683	18038
903.801	17923
903.919	17984
904.038	17901
904.156	17752
904.274	17847
904.392	17695
904.51	17657
904.627	17684
904.745	17764
904.863	17832
904.981	17459
905.098	17440
905.216	17402
905.334	17349
905.451	17410
905.569	17414
905.686	17372
905.803	17410
905.921	17197
906.038	17235
906.155	17261
906.272	17098
906.389	17006
906.506	16877
906.623	16923
906.74	16896
906.857	16835
906.974	16904
907.091	16995
907.208	17041
907.324	16968
907.441	16824
907.557	16577
907.674	16664
907.79	16649
907.907	16599
908.023	16698
908.139	16710
908.256	16527
908.372	16497
908.488	16546
908.604	16352
908.72	16363
908.836	16424
908.952	16379
909.068	16386
909.184	16489
909.3	16325
909.415	16363
909.531	16253
909.647	16124
909.762	16082
909.878	15968
909.993	16025
910.108	16093
910.224	16181
910.339	16013
910.454	15983
910.57	15831
910.685	15861
910.8	16097
910.915	16036
911.03	15895
911.145	15747
911.259	15663
911.374	15701
911.489	15694
911.604	15485
911.718	15416
911.833	15420
911.947	15298
912.062	15260
912.176	15435
912.291	15462
912.405	15496
912.519	15580
912.633	15644
912.748	15488
912.862	15431
912.976	15313
913.09	15214
913.204	15142
913.318	15203
913.431	15386
913.545	15329
913.659	15351
913.772	15188
913.886	15058
914	14982
914.113	15089
914.226	15169
914.34	15097
914.453	15001
914.566	15104
914.68	14918
914.793	14914
914.906	14777
915.019	14678
915.132	14674
915.245	14708
915.358	14617
915.47	14651
915.583	14705
915.696	14788
915.809	14804
915.921	14758
916.034	14579
916.146	14568
916.259	14526
916.371	14701
916.483	14579
916.595	14526
916.708	14454
916.82	14632
916.932	14476
917.044	14503
917.156	14423
917.268	14385
917.38	14389
917.491	14370
917.603	14374
917.715	14434
917.826	14423
917.938	14240
918.049	14157
918.161	14396
918.272	14404
918.384	14446
918.495	14225
918.606	14130
918.717	14096
918.828	14092
918.939	14157
919.05	14035
919.161	14218
919.272	13890
919.383	14001
919.494	14172
919.604	14248
919.715	14050
919.826	14039
919.936	14096
920.047	14183
920.157	14111
920.267	14233
920.378	14126
920.488	14031
920.598	14195
920.708	14423
920.818	14240
920.928	14134
921.038	14370
921.148	14225
921.258	14111
921.368	13940
921.477	13864
921.587	13856
921.697	13666
921.806	13925
921.916	13655
922.025	13529
922.134	13518
922.244	13464
922.353	13499
922.462	13362
922.571	13316
922.68	13095
922.789	13088
922.898	13152
923.007	13107
923.116	13236
923.224	13247
923.333	13145
923.442	13015
923.55	12962
923.659	13019
923.767	13065
923.876	12943
923.984	13031
924.092	12863
924.201	12852
924.309	12875
924.417	12852
924.525	12837
924.633	12764
924.741	13563
924.849	12673
924.956	12692
925.064	12589
925.172	12536
925.279	12551
925.387	12582
925.494	12616
925.602	12623
925.709	12563
925.816	12486
925.924	12513
926.031	12646
926.138	12467
926.245	12551
926.352	12422
926.459	12570
926.566	12620
926.673	12460
926.779	12399
926.886	12346
926.993	12239
927.099	12247
927.206	12102
927.312	12072
927.419	12247
927.525	11999
927.631	12175
927.737	12110
927.843	12034
927.95	11912
928.056	12019
928.162	11942
928.267	11950
928.373	12612
928.479	12083
928.585	11821
928.69	11908
928.796	11935
928.901	11882
929.007	11710
929.112	11752
929.218	11798
929.323	11741
929.428	11680
929.533	11824
929.638	11566
929.743	11649
929.848	11783
929.953	11657
930.058	11551
930.163	11406
930.267	11471
930.372	11562
930.477	11395
930.581	11657
930.685	11455
930.79	11292
930.894	11425
930.998	11201
931.103	11395
931.207	11105
931.311	10980
931.415	10927
931.519	10759
931.623	10740
