Data from test_V78500241_2686.txt Node
Date: Fri Mar 25 15:28:33 CST 2022
User: usil
Spectrometer: V785-0024
Trigger mode: 0
Integration Time (sec): 4.000000E-1
Scans to average: 1
Nonlinearity correction enabled: false
Boxcar width: 0
Storing dark spectrum: false
XAxis mode: Wavelengths
Number of Pixels in Spectrum: 1024
>>>>>Begin Spectral Data<<<<<
801.071	27077
801.214	27013
801.356	26929
801.499	26781
801.641	26541
801.783	26781
801.926	26727
802.068	26495
802.211	26575
802.353	26415
802.496	26324
802.638	26282
802.78	26210
802.923	26153
803.065	26202
803.208	26103
803.35	26221
803.492	26431
803.635	26469
803.777	26286
803.919	26377
804.061	26788
804.204	26381
804.346	26408
804.488	26286
804.63	26370
804.773	26332
804.915	26328
805.057	26431
805.199	26370
805.341	26461
805.483	26503
805.626	26549
805.768	26434
805.91	26556
806.052	26469
806.194	26450
806.336	26800
806.478	26461
806.62	26541
806.762	26613
806.904	26731
807.046	26944
807.188	26910
807.33	26948
807.472	26899
807.614	26773
807.756	27062
807.898	26826
808.04	26651
808.182	26670
808.324	26777
808.465	26819
808.607	26975
808.749	27317
808.891	27055
809.033	27104
809.174	27135
809.316	27184
809.458	27108
809.6	27055
809.741	27176
809.883	27291
810.025	27351
810.166	27405
810.308	27405
810.45	27401
810.591	27150
810.733	27211
810.875	27119
811.016	26899
811.158	26967
811.299	27226
811.441	27272
811.582	27272
811.724	27058
811.865	27032
812.007	27058
812.148	27032
812.29	27081
812.431	27214
812.573	27401
812.714	27416
812.855	27393
812.997	27694
813.138	27774
813.279	27660
813.421	27739
813.562	27568
813.703	27370
813.845	27230
813.986	26880
814.127	26975
814.268	26678
814.41	26712
814.551	26773
814.692	26773
814.833	26689
814.974	26682
815.115	26655
815.256	26552
815.397	26621
815.539	26724
815.68	26625
815.821	26404
815.962	26503
816.103	26537
816.244	26404
816.385	26286
816.526	26240
816.666	26031
816.807	26001
816.948	25883
817.089	26107
817.23	25909
817.371	26054
817.512	25966
817.653	25864
817.793	25959
817.934	25997
818.075	26016
818.216	25898
818.356	25925
818.497	25883
818.638	25757
818.778	25696
818.919	25757
819.06	25799
819.2	25868
819.341	25974
819.481	25951
819.622	26187
819.762	26431
819.903	26202
820.043	26103
820.184	26221
820.324	26149
820.465	26176
820.605	26115
820.746	26012
820.886	25841
821.026	26008
821.167	25986
821.307	26008
821.447	26073
821.588	25807
821.728	25788
821.868	25616
822.008	25468
822.149	25403
822.289	25415
822.429	25369
822.569	25244
822.709	25126
822.849	24954
822.99	24916
823.13	24924
823.27	24768
823.41	24787
823.55	24753
823.69	24677
823.83	24894
823.97	24776
824.11	24684
824.25	24540
824.389	24502
824.529	24711
824.669	24555
824.809	24703
824.949	24669
825.089	24688
825.228	24681
825.368	24410
825.508	24311
825.648	24429
825.787	24441
825.927	24509
826.067	24467
826.206	24372
826.346	24494
826.485	24403
826.625	24486
826.765	24623
826.904	24471
827.044	24159
827.183	24239
827.323	24194
827.462	24220
827.601	24152
827.741	24106
827.88	24232
828.02	24049
828.159	24220
828.298	24197
828.437	24102
828.577	24098
828.716	24292
828.855	24079
828.994	23851
829.134	23843
829.273	23855
829.412	23870
829.551	23828
829.69	23942
829.829	23840
829.968	23942
830.107	24007
830.246	23805
830.385	23802
830.524	23756
830.663	23779
830.802	23657
830.941	23455
831.08	23501
831.219	23547
831.357	23581
831.496	23691
831.635	23547
831.774	23490
831.913	23360
832.051	23322
832.19	23349
832.329	23379
832.467	23204
832.606	23185
832.744	23086
832.883	23143
833.022	23178
833.16	23200
833.299	23143
833.437	23113
833.576	23231
833.714	23132
833.852	23303
833.991	23242
834.129	23387
834.267	23311
834.406	23235
834.544	23231
834.682	23170
834.821	23098
834.959	23417
835.097	23216
835.235	23261
835.373	23174
835.511	23189
835.65	23140
835.788	23060
835.926	23010
836.064	22744
836.202	23037
836.34	22987
836.478	23086
836.615	23071
836.753	23064
836.891	23159
837.029	23174
837.167	23064
837.305	23121
837.443	22953
837.58	22900
837.718	22858
837.856	22965
837.993	22778
838.131	22972
838.269	22831
838.406	22710
838.544	22694
838.681	22504
838.819	22622
838.956	22424
839.094	22436
839.231	22504
839.369	22603
839.506	22774
839.643	22805
839.781	22447
839.918	22314
840.055	22382
840.193	22363
840.33	22390
840.467	22333
840.604	22333
840.742	22698
840.879	22196
841.016	22379
841.153	22162
841.29	22428
841.427	22352
841.564	22242
841.701	22421
841.838	22360
841.975	22306
842.112	22322
842.249	22181
842.385	22173
842.522	22405
842.659	22200
842.796	22059
842.933	22101
843.069	21994
843.206	22074
843.343	22097
843.479	22044
843.616	22124
843.752	21922
843.889	21888
844.025	22051
844.162	21884
844.298	21865
844.435	21857
844.571	21800
844.708	21876
844.844	22025
844.98	21987
845.117	21975
845.253	21770
845.389	21648
845.525	21743
845.661	21747
845.798	21591
845.934	21682
846.07	21443
846.206	21599
846.342	21690
846.478	21549
846.614	21416
846.75	21298
846.886	21268
847.022	21450
847.158	21321
847.294	21435
847.429	21359
847.565	21275
847.701	21595
847.837	21020
847.972	20975
848.108	21116
848.244	21062
848.379	20998
848.515	20994
848.65	20937
848.786	20933
848.921	20918
849.057	21017
849.192	20941
849.328	20952
849.463	20883
849.598	20845
849.734	20807
849.869	20659
850.004	20689
850.14	20712
850.275	20697
850.41	20602
850.545	20686
850.68	20727
850.815	20796
850.95	20655
851.085	20842
851.22	20754
851.355	20773
851.49	20613
851.625	20663
851.76	20583
851.895	20667
852.03	20594
852.165	20625
852.299	20788
852.434	20815
852.569	20750
852.703	20621
852.838	20807
852.973	20788
853.107	20792
853.242	20659
853.376	20571
853.511	20377
853.645	20575
853.78	20541
853.914	20552
854.048	20625
854.183	20465
854.317	20549
854.451	20644
854.585	20625
854.72	20541
854.854	20629
854.988	20461
855.122	20587
855.256	20415
855.39	20545
855.524	20636
855.658	20571
855.792	20541
855.926	20419
856.06	20598
856.194	20511
856.327	20541
856.461	20438
856.595	20461
856.729	20419
856.862	20651
856.996	20469
857.13	20663
857.263	20541
857.397	20670
857.53	20511
857.664	20541
857.797	20701
857.931	20434
858.064	20518
858.197	20651
858.331	20473
858.464	20427
858.597	20336
858.731	20507
858.864	20396
858.997	20408
859.13	20522
859.263	20507
859.396	20545
859.529	20575
859.662	20415
859.795	20514
859.928	20552
860.061	20716
860.194	20682
860.327	20583
860.46	20549
860.592	20701
860.725	20655
860.858	20541
860.99	20636
861.123	20408
861.256	20434
861.388	20446
861.521	21363
861.653	20427
861.786	20313
861.918	20389
862.05	20469
862.183	20465
862.315	20438
862.447	20579
862.58	20366
862.712	20309
862.844	20237
862.976	20351
863.108	20343
863.24	20739
863.372	20206
863.504	20210
863.636	20172
863.768	20206
863.9	20294
864.032	20176
864.164	20172
864.296	20309
864.428	20278
864.559	20343
864.691	20328
864.823	20275
864.954	20138
865.086	20214
865.217	20199
865.349	20081
865.48	20259
865.612	20195
865.743	20305
865.875	20168
866.006	20130
866.137	20225
866.269	20180
866.4	20069
866.531	20119
866.662	20001
866.793	20126
866.924	20164
867.055	20149
867.186	20077
867.317	20008
867.448	19894
867.579	20020
867.71	20050
867.841	20054
867.972	20161
868.103	20043
868.233	20149
868.364	20115
868.495	20164
868.625	20202
868.756	20313
868.886	20286
869.017	20298
869.147	20256
869.278	20381
869.408	20404
869.539	20229
869.669	20442
869.799	20332
869.929	20396
870.06	20514
870.19	20583
870.32	20629
870.45	20746
870.58	20678
870.71	20845
870.84	20781
870.97	20727
871.1	20773
871.23	20781
871.36	20891
871.489	20842
871.619	20834
871.749	20864
871.879	21062
872.008	21112
872.138	20986
872.267	20998
872.397	20807
872.526	20705
872.656	20773
872.785	20811
872.915	20792
873.044	20982
873.173	20979
873.303	20967
873.432	20967
873.561	21066
873.69	20975
873.819	20982
873.948	21051
874.077	21005
874.206	20891
874.335	20880
874.464	21017
874.593	21123
874.722	21066
874.851	21230
874.979	21245
875.108	21207
875.237	21116
875.365	21062
875.494	21138
875.623	21344
875.751	21135
875.88	21287
876.008	21363
876.136	21389
876.265	21622
876.393	21751
876.521	21739
876.65	21660
876.778	21736
876.906	21435
877.034	21458
877.162	21534
877.29	21473
877.418	21473
877.546	21557
877.674	21549
877.802	21641
877.93	21557
878.058	21507
878.185	21393
878.313	21587
878.441	21652
878.568	21408
878.696	21454
878.824	21564
878.951	21724
879.079	21759
879.206	21850
879.333	21606
879.461	21595
879.588	21698
879.715	21667
879.842	21800
879.97	21576
880.097	21336
880.224	21439
880.351	21500
880.478	21412
880.605	21469
880.732	21378
880.859	21660
880.986	21317
881.112	21496
881.239	21264
881.366	21207
881.493	21017
881.619	20998
881.746	20948
881.872	20990
881.999	20899
882.125	20925
882.252	21013
882.378	21013
882.505	21047
882.631	20781
882.757	20727
882.883	20857
883.01	20689
883.136	20613
883.262	20560
883.388	20568
883.514	20777
883.64	20674
883.766	20621
883.892	20533
884.018	20461
884.143	20552
884.269	20689
884.395	20358
884.52	20271
884.646	20286
884.772	20191
884.897	20199
885.023	20400
885.148	20480
885.274	20374
885.399	20343
885.524	20393
885.65	20339
885.775	20271
885.9	20358
886.025	20450
886.15	20374
886.275	20336
886.4	20358
886.525	20221
886.65	20130
886.775	20252
886.9	20415
887.025	20492
887.149	20317
887.274	20240
887.399	20100
887.523	20111
887.648	20073
887.773	19982
887.897	20168
888.021	20145
888.146	20092
888.27	20149
888.395	20138
888.519	20081
888.643	20161
888.767	20153
888.891	20039
889.015	19898
889.139	19932
889.263	19925
889.387	19932
889.511	20005
889.635	19993
889.759	19807
889.883	19974
890.006	19852
890.13	20073
890.254	19803
890.377	19841
890.501	19677
890.624	19616
890.748	19609
890.871	19571
890.995	19464
891.118	19430
891.241	19548
891.364	19544
891.488	19518
891.611	19460
891.734	19552
891.857	19487
891.98	19544
892.103	19559
892.226	19407
892.349	19483
892.471	19320
892.594	19362
892.717	19476
892.839	19441
892.962	19381
893.085	19400
893.207	19312
893.33	19289
893.452	19430
893.575	19521
893.697	19354
893.819	19449
893.941	19578
894.064	19563
894.186	19327
894.308	19350
894.43	19518
894.552	19495
894.674	19407
894.796	19335
894.918	19411
895.04	19369
895.161	19449
895.283	19438
895.405	19324
895.526	19411
895.648	19392
895.769	19400
895.891	19411
896.012	19594
896.134	19457
896.255	19365
896.376	19445
896.498	19441
896.619	19571
896.74	19438
896.861	19499
896.982	19685
897.103	19841
897.224	19674
897.345	19647
897.466	19567
897.587	19731
897.708	19704
897.828	19704
897.949	19491
898.07	19575
898.19	19609
898.311	19776
898.431	19594
898.552	19620
898.672	19761
898.792	19708
898.913	19639
899.033	19529
899.153	19350
899.273	19396
899.393	19472
899.513	19457
899.633	19316
899.753	19457
899.873	19407
899.993	19411
900.113	19362
900.232	19457
900.352	19251
900.472	19263
900.591	19232
900.711	19327
900.83	19065
900.95	19244
901.069	19175
901.189	19072
901.308	18947
901.427	18791
901.546	18745
901.665	18837
901.784	18806
901.904	18696
902.023	18620
902.141	18418
902.26	18350
902.379	18273
902.498	18304
902.617	18311
902.735	18407
902.854	18311
902.973	18224
903.091	18034
903.21	18045
903.328	17996
903.446	17912
903.565	17767
903.683	17794
903.801	17676
903.919	17619
904.038	17775
904.156	17429
904.274	17627
904.392	17440
904.51	17558
904.627	17535
904.745	17539
904.863	17543
904.981	17406
905.098	17277
905.216	17269
905.334	17330
905.451	17254
905.569	17121
905.686	17250
905.803	17227
905.921	16965
906.038	17086
906.155	17048
906.272	17041
906.389	16869
906.506	16790
906.623	16797
906.74	16729
906.857	16679
906.974	16717
907.091	16790
907.208	16824
907.324	16839
907.441	16664
907.557	16489
907.674	16603
907.79	16440
907.907	16462
908.023	16485
908.139	16478
908.256	16489
908.372	16489
908.488	16447
908.604	16348
908.72	16120
908.836	16352
908.952	16120
909.068	16234
909.184	16386
909.3	16261
909.415	16242
909.531	16215
909.647	16029
909.762	16010
909.878	15903
909.993	15983
910.108	15857
910.224	15876
910.339	15907
910.454	15755
910.57	15736
910.685	15751
910.8	15975
910.915	15888
911.03	15831
911.145	15663
911.259	15523
911.374	15584
911.489	15428
911.604	15405
911.718	15279
911.833	15332
911.947	15211
912.062	15157
912.176	15344
912.291	15336
912.405	15336
912.519	15424
912.633	15564
912.748	15313
912.862	15363
912.976	15146
913.09	15089
913.204	15116
913.318	15070
913.431	15161
913.545	15108
913.659	15211
913.772	15188
913.886	15036
914	14952
914.113	14998
914.226	15093
914.34	14963
914.453	14819
914.566	14975
914.68	14762
914.793	14781
914.906	14610
915.019	14564
915.132	14469
915.245	14507
915.358	14541
915.47	14598
915.583	14545
915.696	14518
915.809	14773
915.921	14762
916.034	14499
916.146	14537
916.259	14396
916.371	14545
916.483	14522
916.595	14423
916.708	14267
916.82	14469
916.932	14385
917.044	14396
917.156	14339
917.268	14218
917.38	14199
917.491	14336
917.603	14206
917.715	14221
917.826	14248
917.938	14115
918.049	14092
918.161	14195
918.272	14305
918.384	14263
918.495	14134
918.606	14069
918.717	13951
918.828	14054
918.939	14008
919.05	13917
919.161	13959
919.272	13734
919.383	13864
919.494	14031
919.604	14126
919.715	14035
919.826	13879
919.936	13955
920.047	14058
920.157	13894
920.267	14157
920.378	13989
920.488	13898
920.598	14134
920.708	14225
920.818	14149
920.928	14119
921.038	14282
921.148	14191
921.258	13955
921.368	13864
921.477	13811
921.587	13746
921.697	13616
921.806	13734
921.916	13521
922.025	13422
922.134	13426
922.244	13365
922.353	13358
922.462	13198
922.571	13244
922.68	13080
922.789	13076
922.898	13053
923.007	13042
923.116	13091
923.224	13004
923.333	13038
923.442	12837
923.55	12947
923.659	12897
923.767	12920
923.876	12806
923.984	12856
924.092	12715
924.201	12787
924.309	12741
924.417	12810
924.525	12745
924.633	12692
924.741	13670
924.849	12521
924.956	12631
925.064	12513
925.172	12384
925.279	12380
925.387	12536
925.494	12528
925.602	12582
925.709	12544
925.816	12384
925.924	12452
926.031	12471
926.138	12448
926.245	12441
926.352	12369
926.459	12506
926.566	12517
926.673	12388
926.779	12216
926.886	12197
926.993	12083
927.099	12041
927.206	12003
927.312	11996
927.419	12030
927.525	12015
927.631	12117
927.737	11935
927.843	11961
927.95	11828
928.056	11977
928.162	11939
928.267	11882
928.373	12460
928.479	11882
928.585	11642
928.69	11802
928.796	11996
928.901	11760
929.007	11611
929.112	11798
929.218	11661
929.323	11726
929.428	11661
929.533	11707
929.638	11547
929.743	11554
929.848	11596
929.953	11558
930.058	11459
930.163	11318
930.267	11311
930.372	11383
930.477	11269
930.581	11482
930.685	11341
930.79	11162
930.894	11277
930.998	11166
931.103	11379
931.207	11022
931.311	10919
931.415	10744
931.519	10626
931.623	10531
