Data from test_V78500241_3508.txt Node
Date: Fri Mar 25 15:34:17 CST 2022
User: usil
Spectrometer: V785-0024
Trigger mode: 0
Integration Time (sec): 4.000000E-1
Scans to average: 1
Nonlinearity correction enabled: false
Boxcar width: 0
Storing dark spectrum: false
XAxis mode: Wavelengths
Number of Pixels in Spectrum: 1024
>>>>>Begin Spectral Data<<<<<
801.071	27241
801.214	27363
801.356	27081
801.499	27096
801.641	26864
801.783	26887
801.926	26921
802.068	26800
802.211	26864
802.353	26781
802.496	26594
802.638	26518
802.78	26488
802.923	26465
803.065	26400
803.208	26492
803.35	26488
803.492	26705
803.635	26769
803.777	26530
803.919	26693
804.061	27074
804.204	26724
804.346	26655
804.488	26552
804.63	26609
804.773	26640
804.915	26636
805.057	26857
805.199	26792
805.341	26765
805.483	26842
805.626	26746
805.768	26727
805.91	26777
806.052	26815
806.194	26743
806.336	26940
806.478	26731
806.62	26648
806.762	26910
806.904	26902
807.046	27310
807.188	27272
807.33	27199
807.472	27119
807.614	27089
807.756	27066
807.898	27020
808.04	26940
808.182	26910
808.324	27058
808.465	27062
808.607	27180
808.749	27351
808.891	27507
809.033	27709
809.174	27462
809.316	27302
809.458	27336
809.6	27321
809.741	27507
809.883	27416
810.025	27644
810.166	27675
810.308	27625
810.45	27599
810.591	27637
810.733	27511
810.875	27374
811.016	27188
811.158	27283
811.299	27469
811.441	27622
811.582	27587
811.724	27427
811.865	27272
812.007	27389
812.148	27283
812.29	27458
812.431	27542
812.573	27709
812.714	27759
812.855	27854
812.997	27922
813.138	28135
813.279	27911
813.421	27854
813.562	27785
813.703	27583
813.845	27580
813.986	27256
814.127	27192
814.268	26975
814.41	27055
814.551	26986
814.692	27192
814.833	27028
814.974	27077
815.115	27032
815.256	26937
815.397	26880
815.539	27020
815.68	26876
815.821	26712
815.962	26952
816.103	26777
816.244	26587
816.385	26587
816.526	26518
816.666	26507
816.807	26199
816.948	26358
817.089	26480
817.23	26317
817.371	26286
817.512	26324
817.653	26210
817.793	26370
817.934	26313
818.075	26275
818.216	26343
818.356	26244
818.497	26180
818.638	25989
818.778	26187
818.919	26107
819.06	26100
819.2	26221
819.341	26442
819.481	26187
819.622	26594
819.762	26514
819.903	26606
820.043	26556
820.184	26476
820.324	26453
820.465	26629
820.605	26393
820.746	26355
820.886	26393
821.026	26385
821.167	26328
821.307	26415
821.447	26263
821.588	26263
821.728	26100
821.868	26001
822.008	25803
822.149	25879
822.289	25750
822.429	25472
822.569	25597
822.709	25476
822.849	25232
822.99	25263
823.13	25343
823.27	25099
823.41	25084
823.55	24970
823.69	25168
823.83	25110
823.97	25122
824.11	24814
824.25	24810
824.389	24825
824.529	24882
824.669	25019
824.809	24992
824.949	24947
825.089	24962
825.228	24970
825.368	24897
825.508	24776
825.648	24791
825.787	24791
825.927	24825
826.067	24825
826.206	24753
826.346	24924
826.485	24764
826.625	24886
826.765	24913
826.904	24932
827.044	24597
827.183	24658
827.323	24490
827.462	24517
827.601	24604
827.741	24437
827.88	24483
828.02	24365
828.159	24460
828.298	24589
828.437	24604
828.577	24319
828.716	24631
828.855	24403
828.994	24190
829.134	24327
829.273	24205
829.412	24262
829.551	24178
829.69	24194
829.829	24239
829.968	24342
830.107	24220
830.246	24152
830.385	24178
830.524	24144
830.663	24110
830.802	24064
830.941	23767
831.08	23840
831.219	23916
831.357	23935
831.496	24076
831.635	23741
831.774	23691
831.913	23821
832.051	23668
832.19	23558
832.329	23524
832.467	23615
832.606	23547
832.744	23615
832.883	23501
833.022	23433
833.16	23581
833.299	23516
833.437	23543
833.576	23562
833.714	23558
833.852	23680
833.991	23672
834.129	23718
834.267	23649
834.406	23630
834.544	23630
834.682	23547
834.821	23596
834.959	23756
835.097	23452
835.235	23630
835.373	23589
835.511	23471
835.65	23368
835.788	23444
835.926	23303
836.064	23189
836.202	23334
836.34	23379
836.478	23501
836.615	23383
836.753	23467
836.891	23554
837.029	23474
837.167	23376
837.305	23387
837.443	23459
837.58	23273
837.718	23334
837.856	23345
837.993	23193
838.131	23353
838.269	23136
838.406	23105
838.544	23090
838.681	22961
838.819	22866
838.956	22706
839.094	22774
839.231	22774
839.369	23010
839.506	23117
839.643	22949
839.781	22713
839.918	22561
840.055	22873
840.193	22767
840.33	22683
840.467	22801
840.604	22634
840.742	22965
840.879	22523
841.016	22554
841.153	22573
841.29	22721
841.427	22740
841.564	22702
841.701	22729
841.838	22713
841.975	22546
842.112	22538
842.249	22500
842.385	22462
842.522	22683
842.659	22637
842.796	22413
842.933	22508
843.069	22523
843.206	22485
843.343	22500
843.479	22462
843.616	22432
843.752	22249
843.889	22211
844.025	22337
844.162	22109
844.298	22337
844.435	22276
844.571	22226
844.708	22162
844.844	22481
844.98	22417
845.117	22261
845.253	22291
845.389	22135
845.525	22211
845.661	22173
845.798	21930
845.934	22002
846.07	21876
846.206	21934
846.342	22055
846.478	22017
846.614	21751
846.75	21755
846.886	21770
847.022	21663
847.158	21762
847.294	21591
847.429	21713
847.565	21709
847.701	21930
847.837	21511
847.972	21306
848.108	21473
848.244	21519
848.379	21249
848.515	21302
848.65	21245
848.786	21359
848.921	21233
849.057	21340
849.192	21492
849.328	21268
849.463	21355
849.598	21249
849.734	21226
849.869	21116
850.004	21017
850.14	21005
850.275	21150
850.41	21066
850.545	20979
850.68	21123
850.815	21138
850.95	21036
851.085	21195
851.22	21230
851.355	21169
851.49	20948
851.625	21032
851.76	21020
851.895	20895
852.03	20975
852.165	21017
852.299	21123
852.434	21096
852.569	21032
852.703	21127
852.838	21028
852.973	21199
853.107	21039
853.242	21039
853.376	20872
853.511	20857
853.645	20769
853.78	21100
853.914	20941
854.048	20807
854.183	20819
854.317	20868
854.451	21070
854.585	21017
854.72	20746
854.854	20925
854.988	20838
855.122	20952
855.256	20674
855.39	20963
855.524	20971
855.658	20986
855.792	20975
855.926	20982
856.06	20849
856.194	20982
856.327	20910
856.461	20765
856.595	20815
856.729	20868
856.862	21028
856.996	20895
857.13	20853
857.263	21058
857.397	20998
857.53	20910
857.664	20960
857.797	20868
857.931	20853
858.064	20918
858.197	20952
858.331	20952
858.464	20849
858.597	20887
858.731	20849
858.864	20785
858.997	20823
859.13	20899
859.263	20883
859.396	20933
859.529	20826
859.662	20872
859.795	20807
859.928	20823
860.061	21009
860.194	21062
860.327	20944
860.46	20804
860.592	21058
860.725	20925
860.858	20990
860.99	20861
861.123	20857
861.256	20769
861.388	20880
861.521	21599
861.653	20777
861.786	20705
861.918	20807
862.05	20792
862.183	20826
862.315	20868
862.447	20849
862.58	20758
862.712	20606
862.844	20594
862.976	20625
863.108	20674
863.24	21081
863.372	20587
863.504	20754
863.636	20533
863.768	20533
863.9	20541
864.032	20587
864.164	20560
864.296	20678
864.428	20731
864.559	20708
864.691	20598
864.823	20655
864.954	20507
865.086	20541
865.217	20606
865.349	20389
865.48	20606
865.612	20507
865.743	20720
865.875	20549
866.006	20427
866.137	20480
866.269	20412
866.4	20461
866.531	20400
866.662	20415
866.793	20351
866.924	20438
867.055	20518
867.186	20389
867.317	20393
867.448	20427
867.579	20358
867.71	20412
867.841	20377
867.972	20385
868.103	20476
868.233	20473
868.364	20339
868.495	20629
868.625	20651
868.756	20686
868.886	20602
869.017	20644
869.147	20769
869.278	20796
869.408	20648
869.539	20693
869.669	20727
869.799	20819
869.929	20800
870.06	20826
870.19	21001
870.32	20906
870.45	21043
870.58	21001
870.71	21256
870.84	21272
870.97	21150
871.1	21058
871.23	21275
871.36	21367
871.489	21252
871.619	21233
871.749	21188
871.879	21298
872.008	21351
872.138	21416
872.267	21256
872.397	21119
872.526	21081
872.656	21089
872.785	21218
872.915	21370
873.044	21488
873.173	21298
873.303	21477
873.432	21382
873.561	21435
873.69	21408
873.819	21306
873.948	21386
874.077	21291
874.206	21351
874.335	21367
874.464	21469
874.593	21564
874.722	21439
874.851	21561
874.979	21576
875.108	21637
875.237	21553
875.365	21469
875.494	21458
875.623	21675
875.751	21511
875.88	21648
876.008	21618
876.136	21732
876.265	21880
876.393	22124
876.521	22013
876.65	22055
876.778	22002
876.906	21911
877.034	21816
877.162	21918
877.29	21724
877.418	21926
877.546	22006
877.674	21915
877.802	21979
877.93	21956
878.058	21835
878.185	21823
878.313	21751
878.441	21865
878.568	21800
878.696	21842
878.824	21941
878.951	21968
879.079	22147
879.206	22177
879.333	22112
879.461	21842
879.588	22036
879.715	22055
879.842	22086
879.97	21918
880.097	21804
880.224	21709
880.351	21713
880.478	21751
880.605	21793
880.732	21587
880.859	21953
880.986	21701
881.112	21720
881.239	21625
881.366	21435
881.493	21450
881.619	21294
881.746	21397
881.872	21340
881.999	21302
882.125	21321
882.252	21325
882.378	21268
882.505	21340
882.631	21192
882.757	21032
882.883	20990
883.01	20891
883.136	20960
883.262	20921
883.388	20800
883.514	21013
883.64	20944
883.766	20918
883.892	20754
884.018	20838
884.143	20967
884.269	21104
884.395	20750
884.52	20674
884.646	20640
884.772	20579
884.897	20651
885.023	20678
885.148	20705
885.274	20804
885.399	20804
885.524	20598
885.65	20819
885.775	20583
885.9	20625
886.025	20887
886.15	20758
886.275	20609
886.4	20488
886.525	20629
886.65	20541
886.775	20629
886.9	20765
887.025	20887
887.149	20655
887.274	20446
887.399	20461
887.523	20442
887.648	20438
887.773	20358
887.897	20587
888.021	20549
888.146	20332
888.27	20507
888.395	20514
888.519	20442
888.643	20526
888.767	20450
888.891	20362
889.015	20275
889.139	20351
889.263	20221
889.387	20377
889.511	20545
889.635	20320
889.759	20244
889.883	20259
890.006	20256
890.13	20332
890.254	20161
890.377	20134
890.501	20088
890.624	19951
890.748	20020
890.871	19932
890.995	19875
891.118	19871
891.241	19807
891.364	19898
891.488	19890
891.611	19883
891.734	19887
891.857	19928
891.98	19951
892.103	19814
892.226	19845
892.349	19913
892.471	19670
892.594	19845
892.717	19761
892.839	19788
892.962	19761
893.085	19822
893.207	19647
893.33	19590
893.452	19776
893.575	19746
893.697	19700
893.819	19913
893.941	19997
894.064	19890
894.186	19852
894.308	19628
894.43	19978
894.552	19921
894.674	19913
894.796	19635
894.918	19746
895.04	19883
895.161	19746
895.283	19860
895.405	19582
895.526	19757
895.648	19788
895.769	19723
895.891	19951
896.012	19856
896.134	19898
896.255	19807
896.376	19734
896.498	19784
896.619	19887
896.74	19845
896.861	19708
896.982	20058
897.103	20256
897.224	20077
897.345	19925
897.466	19852
897.587	20031
897.708	20176
897.828	20062
897.949	19921
898.07	19822
898.19	19845
898.311	20130
898.431	19894
898.552	19986
898.672	20081
898.792	20122
898.913	20031
899.033	19879
899.153	19750
899.273	19845
899.393	19719
899.513	19894
899.633	19788
899.753	19731
899.873	19742
899.993	19700
900.113	19780
900.232	19597
900.352	19776
900.472	19525
900.591	19430
900.711	19529
900.83	19480
900.95	19738
901.069	19491
901.189	19392
901.308	19312
901.427	19023
901.546	19259
901.665	19129
901.784	19221
901.904	18901
902.023	18844
902.141	18753
902.26	18703
902.379	18661
902.498	18597
902.617	18559
902.735	18650
902.854	18639
902.973	18407
903.091	18308
903.21	18391
903.328	18239
903.446	18243
903.565	18129
903.683	18083
903.801	18038
903.919	18102
904.038	17969
904.156	17813
904.274	18087
904.392	17950
904.51	17939
904.627	17817
904.745	17916
904.863	17942
904.981	17756
905.098	17581
905.216	17608
905.334	17661
905.451	17592
905.569	17608
905.686	17589
905.803	17627
905.921	17288
906.038	17532
906.155	17360
906.272	17212
906.389	17334
906.506	17231
906.623	17090
906.74	17121
906.857	16881
906.974	17014
907.091	17181
907.208	17121
907.324	17109
907.441	16942
907.557	16831
907.674	16820
907.79	16778
907.907	16869
908.023	16850
908.139	16763
908.256	16835
908.372	16683
908.488	16683
908.604	16611
908.72	16500
908.836	16470
908.952	16523
909.068	16462
909.184	16531
909.3	16573
909.415	16622
909.531	16516
909.647	16287
909.762	16280
909.878	16341
909.993	16394
910.108	16284
910.224	16230
910.339	16215
910.454	16162
910.57	16036
910.685	15903
910.8	16272
910.915	16192
911.03	16090
911.145	15857
911.259	15816
911.374	15888
911.489	15789
911.604	15789
911.718	15519
911.833	15564
911.947	15519
912.062	15412
912.176	15545
912.291	15603
912.405	15576
912.519	15785
912.633	15770
912.748	15682
912.862	15504
912.976	15454
913.09	15275
913.204	15370
913.318	15382
913.431	15473
913.545	15542
913.659	15542
913.772	15355
913.886	15279
914	15173
914.113	15458
914.226	15382
914.34	15226
914.453	15100
914.566	15233
914.68	15135
914.793	15017
914.906	14796
915.019	14845
915.132	14727
915.245	14838
915.358	14929
915.47	14826
915.583	14838
915.696	14845
915.809	14914
915.921	14952
916.034	14849
916.146	14754
916.259	14705
916.371	14762
916.483	14773
916.595	14629
916.708	14667
916.82	14659
916.932	14659
917.044	14697
917.156	14610
917.268	14469
917.38	14537
917.491	14564
917.603	14495
917.715	14495
917.826	14655
917.938	14484
918.049	14317
918.161	14461
918.272	14560
918.384	14556
918.495	14503
918.606	14298
918.717	14309
918.828	14343
918.939	14248
919.05	14225
919.161	14229
919.272	14016
919.383	14115
919.494	14336
919.604	14518
919.715	14328
919.826	14145
919.936	14267
920.047	14358
920.157	14221
920.267	14488
920.378	14202
920.488	14172
920.598	14473
920.708	14518
920.818	14408
920.928	14454
921.038	14617
921.148	14549
921.258	14176
921.368	14081
921.477	13974
921.587	13978
921.697	13894
921.806	14035
921.916	13849
922.025	13647
922.134	13670
922.244	13597
922.353	13590
922.462	13506
922.571	13502
922.68	13327
922.789	13316
922.898	13320
923.007	13202
923.116	13259
923.224	13194
923.333	13278
923.442	13084
923.55	13160
923.659	13110
923.767	13160
923.876	13023
923.984	13053
924.092	12958
924.201	12993
924.309	12985
924.417	13080
924.525	12928
924.633	13000
924.741	13704
924.849	12825
924.956	12890
925.064	12692
925.172	12665
925.279	12700
925.387	12768
925.494	12730
925.602	12814
925.709	12795
925.816	12608
925.924	12753
926.031	12711
926.138	12616
926.245	12764
926.352	12547
926.459	12700
926.566	12757
926.673	12566
926.779	12490
926.886	12456
926.993	12410
927.099	12330
927.206	12270
927.312	12175
927.419	12292
927.525	12311
927.631	12372
927.737	12190
927.843	12186
927.95	12083
928.056	12087
928.162	12053
928.267	12273
928.373	12707
928.479	12213
928.585	11942
928.69	12030
928.796	12167
928.901	11984
929.007	11843
929.112	11999
929.218	11942
929.323	11901
929.428	11817
929.533	11923
929.638	11748
929.743	11756
929.848	11805
929.953	11836
930.058	11638
930.163	11539
930.267	11592
930.372	11703
930.477	11497
930.581	11722
930.685	11562
930.79	11387
930.894	11440
930.998	11410
931.103	11581
931.207	11212
931.311	11151
931.415	10995
931.519	10927
931.623	10824
