Data from test_V78500241_1983.txt Node
Date: Fri Mar 25 15:23:39 CST 2022
User: usil
Spectrometer: V785-0024
Trigger mode: 0
Integration Time (sec): 4.000000E-1
Scans to average: 1
Nonlinearity correction enabled: false
Boxcar width: 0
Storing dark spectrum: false
XAxis mode: Wavelengths
Number of Pixels in Spectrum: 1024
>>>>>Begin Spectral Data<<<<<
801.071	27797
801.214	27857
801.356	27599
801.499	27663
801.641	27439
801.783	27359
801.926	27336
802.068	27313
802.211	27359
802.353	27264
802.496	27036
802.638	27108
802.78	27020
802.923	26971
803.065	26933
803.208	27055
803.35	27081
803.492	27233
803.635	27203
803.777	26944
803.919	27233
804.061	27454
804.204	27211
804.346	27226
804.488	26994
804.63	27222
804.773	27268
804.915	27294
805.057	27329
805.199	27051
805.341	27252
805.483	27454
805.626	27351
805.768	27306
805.91	27485
806.052	27336
806.194	27256
806.336	27454
806.478	27306
806.62	27382
806.762	27393
806.904	27762
807.046	27793
807.188	27827
807.33	27812
807.472	27778
807.614	27717
807.756	27717
807.898	27686
808.04	27500
808.182	27561
808.324	27671
808.465	27686
808.607	27831
808.749	28013
808.891	28154
809.033	28188
809.174	28025
809.316	28021
809.458	27945
809.6	28006
809.741	27991
809.883	28090
810.025	28318
810.166	28272
810.308	28223
810.45	28219
810.591	28120
810.733	28044
810.875	27975
811.016	27781
811.158	27816
811.299	27956
811.441	28059
811.582	28010
811.724	28059
811.865	27930
812.007	28078
812.148	27880
812.29	28051
812.431	28215
812.573	28219
812.714	28287
812.855	28424
812.997	28504
813.138	28698
813.279	28527
813.421	28603
813.562	28489
813.703	28249
813.845	28162
813.986	28006
814.127	27865
814.268	27610
814.41	27648
814.551	27705
814.692	27766
814.833	27553
814.974	27530
815.115	27728
815.256	27526
815.397	27576
815.539	27618
815.68	27431
815.821	27317
815.962	27412
816.103	27389
816.244	27397
816.385	27275
816.526	27313
816.666	27180
816.807	27039
816.948	27077
817.089	27127
817.23	26921
817.371	26921
817.512	27146
817.653	26918
817.793	26952
817.934	27005
818.075	27062
818.216	27020
818.356	26967
818.497	26864
818.638	26693
818.778	26678
818.919	26739
819.06	26826
819.2	26743
819.341	27036
819.481	27028
819.622	27264
819.762	27351
819.903	27188
820.043	27093
820.184	27184
820.324	27112
820.465	27180
820.605	27066
820.746	26891
820.886	26933
821.026	27070
821.167	26906
821.307	27142
821.447	26940
821.588	26769
821.728	26716
821.868	26473
822.008	26442
822.149	26385
822.289	26366
822.429	26298
822.569	26161
822.709	26031
822.849	25932
822.99	25936
823.13	25955
823.27	25944
823.41	25807
823.55	25662
823.69	25803
823.83	25795
823.97	25597
824.11	25479
824.25	25639
824.389	25647
824.529	25685
824.669	25624
824.809	25727
824.949	25578
825.089	25818
825.228	25449
825.368	25540
825.508	25476
825.648	25468
825.787	25457
825.927	25601
826.067	25495
826.206	25445
826.346	25472
826.485	25449
826.625	25487
826.765	25537
826.904	25434
827.044	25225
827.183	25293
827.323	24989
827.462	25209
827.601	25209
827.741	25107
827.88	25198
828.02	25129
828.159	25209
828.298	25099
828.437	25164
828.577	25129
828.716	25236
828.855	25034
828.994	24859
829.134	24837
829.273	24829
829.412	24833
829.551	24932
829.69	24856
829.829	24977
829.968	24863
830.107	24913
830.246	24791
830.385	24791
830.524	24757
830.663	24669
830.802	24589
830.941	24498
831.08	24426
831.219	24608
831.357	24585
831.496	24661
831.635	24509
831.774	24471
831.913	24429
832.051	24384
832.19	24220
832.329	24235
832.467	24220
832.606	24186
832.744	24167
832.883	24079
833.022	24110
833.16	24129
833.299	24171
833.437	24251
833.576	24289
833.714	24197
833.852	24330
833.991	24235
834.129	24308
834.267	24205
834.406	24304
834.544	24350
834.682	24114
834.821	24220
834.959	24399
835.097	24095
835.235	24224
835.373	24125
835.511	24133
835.65	23965
835.788	24174
835.926	23866
836.064	23992
836.202	23866
836.34	24171
836.478	24167
836.615	24003
836.753	24003
836.891	24015
837.029	24289
837.167	24076
837.305	23882
837.443	24007
837.58	23851
837.718	23980
837.856	23874
837.993	23935
838.131	23866
838.269	23767
838.406	23805
838.544	23634
838.681	23592
838.819	23467
838.956	23356
839.094	23391
839.231	23448
839.369	23482
839.506	23836
839.643	23726
839.781	23376
839.918	23349
840.055	23524
840.193	23425
840.33	23360
840.467	23353
840.604	23311
840.742	23509
840.879	23189
841.016	23326
841.153	23189
841.29	23395
841.427	23429
841.564	23318
841.701	23193
841.838	23220
841.975	23307
842.112	23265
842.249	23117
842.385	23018
842.522	23284
842.659	23143
842.796	23083
842.933	23052
843.069	23033
843.206	23033
843.343	23094
843.479	23185
843.616	23067
843.752	22873
843.889	22942
844.025	23003
844.162	22691
844.298	22904
844.435	22786
844.571	22736
844.708	22892
844.844	22915
844.98	22847
845.117	22900
845.253	22771
845.389	22824
845.525	22820
845.661	22683
845.798	22645
845.934	22649
846.07	22443
846.206	22634
846.342	22713
846.478	22592
846.614	22318
846.75	22223
846.886	22196
847.022	22310
847.158	22257
847.294	22352
847.429	22322
847.565	22242
847.701	22554
847.837	22059
847.972	22036
848.108	22162
848.244	22086
848.379	21911
848.515	21842
848.65	21797
848.786	21998
848.921	21869
849.057	21922
849.192	21949
849.328	21991
849.463	21865
849.598	21793
849.734	21888
849.869	21705
850.004	21698
850.14	21679
850.275	21713
850.41	21580
850.545	21625
850.68	21549
850.815	21667
850.95	21694
851.085	21869
851.22	21751
851.355	21610
851.49	21633
851.625	21633
851.76	21614
851.895	21637
852.03	21572
852.165	21633
852.299	21622
852.434	21686
852.569	21800
852.703	21709
852.838	21637
852.973	21785
853.107	21705
853.242	21542
853.376	21583
853.511	21405
853.645	21450
853.78	21603
853.914	21378
854.048	21416
854.183	21526
854.317	21424
854.451	21622
854.585	21458
854.72	21431
854.854	21523
854.988	21534
855.122	21485
855.256	21313
855.39	21500
855.524	21595
855.658	21625
855.792	21481
855.926	21492
856.06	21492
856.194	21393
856.327	21405
856.461	21367
856.595	21492
856.729	21485
856.862	21618
856.996	21523
857.13	21534
857.263	21679
857.397	21603
857.53	21488
857.664	21572
857.797	21439
857.931	21603
858.064	21504
858.197	21622
858.331	21469
858.464	21378
858.597	21321
858.731	21603
858.864	21458
858.997	21504
859.13	21515
859.263	21462
859.396	21572
859.529	21275
859.662	21416
859.795	21450
859.928	21599
860.061	21557
860.194	21675
860.327	21488
860.46	21519
860.592	21542
860.725	21534
860.858	21690
860.99	21492
861.123	21401
861.256	21317
861.388	21428
861.521	22139
861.653	21291
861.786	21230
861.918	21332
862.05	21325
862.183	21389
862.315	21583
862.447	21507
862.58	21355
862.712	21123
862.844	21150
862.976	21310
863.108	21237
863.24	21770
863.372	21112
863.504	21146
863.636	21173
863.768	21321
863.9	21211
864.032	21013
864.164	21055
864.296	21313
864.428	21260
864.559	21192
864.691	21230
864.823	21203
864.954	21108
865.086	21180
865.217	21081
865.349	20982
865.48	21116
865.612	21131
865.743	21230
865.875	21074
866.006	20960
866.137	20994
866.269	21047
866.4	21062
866.531	21032
866.662	20906
866.793	20975
866.924	20899
867.055	21062
867.186	21036
867.317	20918
867.448	20929
867.579	21028
867.71	21024
867.841	20823
867.972	20982
868.103	21043
868.233	21066
868.364	21017
868.495	21154
868.625	21283
868.756	21336
868.886	21146
869.017	21249
869.147	21374
869.278	21329
869.408	21355
869.539	21298
869.669	21245
869.799	21264
869.929	21382
870.06	21348
870.19	21511
870.32	21614
870.45	21629
870.58	21667
870.71	21724
870.84	21736
870.97	21800
871.1	21587
871.23	21819
871.36	21892
871.489	21713
871.619	21808
871.749	21842
871.879	21842
872.008	22044
872.138	21755
872.267	21846
872.397	21656
872.526	21641
872.656	21705
872.785	21663
872.915	21797
873.044	21907
873.173	21755
873.303	21895
873.432	21865
873.561	21983
873.69	21956
873.819	21842
873.948	21880
874.077	21899
874.206	21846
874.335	21823
874.464	21835
874.593	22112
874.722	21956
874.851	22207
874.979	22090
875.108	22173
875.237	22109
875.365	22074
875.494	22002
875.623	22135
875.751	21960
875.88	22112
876.008	22131
876.136	22329
876.265	22531
876.393	22557
876.521	22599
876.65	22653
876.778	22535
876.906	22497
877.034	22424
877.162	22390
877.29	22402
877.418	22554
877.546	22459
877.674	22432
877.802	22436
877.93	22421
878.058	22246
878.185	22303
878.313	22280
878.441	22413
878.568	22128
878.696	22417
878.824	22375
878.951	22584
879.079	22653
879.206	22634
879.333	22489
879.461	22409
879.588	22474
879.715	22603
879.842	22698
879.97	22466
880.097	22162
880.224	22158
880.351	22276
880.478	22234
880.605	22169
880.732	22219
880.859	22398
880.986	22242
881.112	22261
881.239	22158
881.366	22017
881.493	21941
881.619	21918
881.746	21785
881.872	21679
881.999	21785
882.125	21838
882.252	21869
882.378	21800
882.505	21987
882.631	21652
882.757	21545
882.883	21420
883.01	21561
883.136	21416
883.262	21393
883.388	21291
883.514	21481
883.64	21568
883.766	21538
883.892	21363
884.018	21348
884.143	21443
884.269	21553
884.395	21249
884.52	21138
884.646	21260
884.772	21047
884.897	21131
885.023	21123
885.148	21336
885.274	21374
885.399	21173
885.524	21104
885.65	21074
885.775	21256
885.9	21222
886.025	21214
886.15	21275
886.275	21146
886.4	21119
886.525	21066
886.65	21100
886.775	21161
886.9	21230
887.025	21294
887.149	21100
887.274	20956
887.399	21001
887.523	20982
887.648	20998
887.773	20933
887.897	21005
888.021	21047
888.146	20929
888.27	21009
888.395	21024
888.519	20994
888.643	21089
888.767	21020
888.891	20853
889.015	20861
889.139	20868
889.263	20769
889.387	20937
889.511	20921
889.635	20895
889.759	20746
889.883	20678
890.006	20845
890.13	20773
890.254	20594
890.377	20720
890.501	20659
890.624	20511
890.748	20587
890.871	20476
890.995	20358
891.118	20305
891.241	20454
891.364	20347
891.488	20351
891.611	20347
891.734	20240
891.857	20377
891.98	20328
892.103	20305
892.226	20309
892.349	20317
892.471	20046
892.594	20294
892.717	20271
892.839	20172
892.962	20237
893.085	20263
893.207	20176
893.33	20012
893.452	20111
893.575	20225
893.697	20164
893.819	20423
893.941	20431
894.064	20385
894.186	20237
894.308	20176
894.43	20324
894.552	20248
894.674	20385
894.796	20164
894.918	20355
895.04	20259
895.161	20294
895.283	20195
895.405	20157
895.526	20275
895.648	20233
895.769	20298
895.891	20294
896.012	20415
896.134	20115
896.255	20119
896.376	20202
896.498	20248
896.619	20290
896.74	20298
896.861	20294
896.982	20522
897.103	20648
897.224	20507
897.345	20488
897.466	20404
897.587	20473
897.708	20621
897.828	20442
897.949	20328
898.07	20294
898.19	20415
898.311	20454
898.431	20305
898.552	20423
898.672	20556
898.792	20518
898.913	20431
899.033	20240
899.153	20256
899.273	20153
899.393	20244
899.513	20240
899.633	20244
899.753	20149
899.873	20142
899.993	20088
900.113	20202
900.232	20062
900.352	20024
900.472	20024
900.591	20012
900.711	19894
900.83	19936
900.95	20031
901.069	20096
901.189	19693
901.308	19590
901.427	19468
901.546	19647
901.665	19567
901.784	19533
901.904	19377
902.023	19297
902.141	19015
902.26	19057
902.379	19198
902.498	19053
902.617	19004
902.735	19114
902.854	18924
902.973	18970
903.091	18829
903.21	18711
903.328	18787
903.446	18715
903.565	18597
903.683	18544
903.801	18380
903.919	18494
904.038	18467
904.156	18281
904.274	18418
904.392	18277
904.51	18235
904.627	18258
904.745	18311
904.863	18399
904.981	18102
905.098	17904
905.216	17996
905.334	18026
905.451	17999
905.569	17821
905.686	18026
905.803	17912
905.921	17764
906.038	17805
906.155	17843
906.272	17562
906.389	17691
906.506	17486
906.623	17551
906.74	17497
906.857	17471
906.974	17471
907.091	17566
907.208	17596
907.324	17551
907.441	17414
907.557	17280
907.674	17231
907.79	17124
907.907	17212
908.023	17178
908.139	17208
908.256	17197
908.372	17166
908.488	17052
908.604	16938
908.72	16972
908.836	16900
908.952	16869
909.068	16946
909.184	17056
909.3	16892
909.415	16946
909.531	16892
909.647	16656
909.762	16596
909.878	16599
909.993	16767
910.108	16653
910.224	16519
910.339	16558
910.454	16592
910.57	16371
910.685	16333
910.8	16599
910.915	16577
911.03	16546
911.145	16265
911.259	16181
911.374	16139
911.489	16116
911.604	16169
911.718	15998
911.833	15930
911.947	15857
912.062	15800
912.176	15903
912.291	15873
912.405	15922
912.519	16143
912.633	16169
912.748	15983
912.862	15907
912.976	15861
913.09	15713
913.204	15759
913.318	15736
913.431	15918
913.545	15899
913.659	15949
913.772	15709
913.886	15622
914	15599
914.113	15682
914.226	15705
914.34	15698
914.453	15439
914.566	15656
914.68	15473
914.793	15344
914.906	15268
915.019	15176
915.132	15135
915.245	15188
915.358	15138
915.47	15237
915.583	15226
915.696	15226
915.809	15306
915.921	15222
916.034	15150
916.146	15112
916.259	15081
916.371	15112
916.483	15116
916.595	15036
916.708	15001
916.82	15043
916.932	14925
917.044	14876
917.156	14906
917.268	14868
917.38	14880
917.491	14765
917.603	14857
917.715	14906
917.826	14887
917.938	14785
918.049	14701
918.161	14712
918.272	14906
918.384	14921
918.495	14796
918.606	14648
918.717	14533
918.828	14632
918.939	14575
919.05	14518
919.161	14545
919.272	14431
919.383	14495
919.494	14686
919.604	14838
919.715	14610
919.826	14492
919.936	14545
920.047	14625
920.157	14480
920.267	14735
920.378	14568
920.488	14564
920.598	14697
920.708	14880
920.818	14682
920.928	14724
921.038	14842
921.148	14834
921.258	14575
921.368	14317
921.477	14320
921.587	14294
921.697	14153
921.806	14275
921.916	14210
922.025	13955
922.134	13906
922.244	13879
922.353	13913
922.462	13772
922.571	13814
922.68	13529
922.789	13639
922.898	13628
923.007	13521
923.116	13639
923.224	13578
923.333	13510
923.442	13499
923.55	13411
923.659	13468
923.767	13487
923.876	13373
923.984	13472
924.092	13278
924.201	13365
924.309	13346
924.417	13365
924.525	13320
924.633	13194
924.741	14054
924.849	13110
924.956	13149
925.064	13023
925.172	13000
925.279	12935
925.387	13031
925.494	12973
925.602	13088
925.709	12996
925.816	12863
925.924	12913
926.031	13088
926.138	12939
926.245	12924
926.352	12886
926.459	12993
926.566	12901
926.673	12856
926.779	12806
926.886	12738
926.993	12525
927.099	12559
927.206	12608
927.312	12509
927.419	12555
927.525	12597
927.631	12650
927.737	12483
927.843	12433
927.95	12407
928.056	12353
928.162	12391
928.267	12395
928.373	13034
928.479	12467
928.585	12190
928.69	12353
928.796	12399
928.901	12266
929.007	12140
929.112	12254
929.218	12144
929.323	12083
929.428	12091
929.533	12144
929.638	12003
929.743	12007
929.848	12095
929.953	12038
930.058	11878
930.163	11851
930.267	11729
930.372	11878
930.477	11714
930.581	11931
930.685	11809
930.79	11668
930.894	11695
930.998	11589
931.103	11863
931.207	11395
931.311	11337
931.415	11235
931.519	11045
931.623	11083
