Data from test_V78500241_784.txt Node
Date: Fri Mar 25 15:15:19 CST 2022
User: usil
Spectrometer: V785-0024
Trigger mode: 0
Integration Time (sec): 4.000000E-1
Scans to average: 1
Nonlinearity correction enabled: false
Boxcar width: 0
Storing dark spectrum: false
XAxis mode: Wavelengths
Number of Pixels in Spectrum: 1024
>>>>>Begin Spectral Data<<<<<
801.071	28272
801.214	28207
801.356	27930
801.499	27930
801.641	27793
801.783	27941
801.926	27880
802.068	27823
802.211	27819
802.353	27622
802.496	27427
802.638	27405
802.78	27485
802.923	27447
803.065	27454
803.208	27538
803.35	27500
803.492	27515
803.635	27583
803.777	27534
803.919	27751
804.061	27861
804.204	27739
804.346	27583
804.488	27705
804.63	27622
804.773	27534
804.915	27732
805.057	27759
805.199	27724
805.341	27800
805.483	27892
805.626	27732
805.768	27701
805.91	27759
806.052	27835
806.194	27873
806.336	28017
806.478	27819
806.62	27949
806.762	28021
806.904	28070
807.046	28348
807.188	28181
807.33	28424
807.472	28166
807.614	28242
807.756	28344
807.898	28105
808.04	28169
808.182	28162
808.324	28150
808.465	28150
808.607	28322
808.749	28428
808.891	28557
809.033	28577
809.174	28679
809.316	28504
809.458	28622
809.6	28672
809.741	28755
809.883	28599
810.025	28805
810.166	28797
810.308	28771
810.45	28839
810.591	28824
810.733	28485
810.875	28523
811.016	28436
811.158	28428
811.299	28607
811.441	28755
811.582	28630
811.724	28451
811.865	28451
812.007	28519
812.148	28584
812.29	28622
812.431	28698
812.573	28965
812.714	28938
812.855	29025
812.997	29292
813.138	29387
813.279	29296
813.421	29109
813.562	29124
813.703	28995
813.845	28888
813.986	28459
814.127	28561
814.268	28390
814.41	28230
814.551	28280
814.692	28314
814.833	28238
814.974	28177
815.115	28295
815.256	28147
815.397	28109
815.539	28154
815.68	28029
815.821	27975
815.962	28105
816.103	27930
816.244	27987
816.385	27831
816.526	27759
816.666	27553
816.807	27466
816.948	27652
817.089	27808
817.23	27538
817.371	27667
817.512	27507
817.653	27625
817.793	27469
817.934	27610
818.075	27682
818.216	27583
818.356	27701
818.497	27435
818.638	27325
818.778	27321
818.919	27458
819.06	27325
819.2	27344
819.341	27549
819.481	27542
819.622	27587
819.762	27747
819.903	27812
820.043	27720
820.184	27656
820.324	27679
820.465	27705
820.605	27637
820.746	27572
820.886	27606
821.026	27785
821.167	27637
821.307	27751
821.447	27408
821.588	27405
821.728	27427
821.868	27214
822.008	26937
822.149	26952
822.289	26998
822.429	26811
822.569	26674
822.709	26716
822.849	26530
822.99	26530
823.13	26492
823.27	26480
823.41	26412
823.55	26180
823.69	26305
823.83	26336
823.97	26374
824.11	26347
824.25	26149
824.389	26168
824.529	26358
824.669	26199
824.809	26377
824.949	26442
825.089	26377
825.228	26305
825.368	26115
825.508	25925
825.648	26100
825.787	26073
825.927	26046
826.067	25978
826.206	26073
826.346	26138
826.485	26081
826.625	26149
826.765	26122
826.904	26164
827.044	25871
827.183	25883
827.323	25769
827.462	25864
827.601	25822
827.741	25841
827.88	25727
828.02	25655
828.159	25822
828.298	25674
828.437	25841
828.577	25769
828.716	25860
828.855	25814
828.994	25518
829.134	25559
829.273	25559
829.412	25476
829.551	25422
829.69	25578
829.829	25453
829.968	25632
830.107	25460
830.246	25582
830.385	25472
830.524	25403
830.663	25274
830.802	25339
830.941	25099
831.08	25004
831.219	25240
831.357	25122
831.496	25396
831.635	25118
831.774	24958
831.913	24939
832.051	24852
832.19	24905
832.329	24932
832.467	24711
832.606	24726
832.744	24734
832.883	24722
833.022	24707
833.16	24806
833.299	24719
833.437	24954
833.576	24779
833.714	24897
833.852	24935
833.991	24711
834.129	24958
834.267	24829
834.406	24840
834.544	24920
834.682	24730
834.821	24829
834.959	24962
835.097	24749
835.235	24859
835.373	24772
835.511	24806
835.65	24741
835.788	24715
835.926	24521
836.064	24547
836.202	24498
836.34	24669
836.478	24741
836.615	24623
836.753	24616
836.891	24597
837.029	24620
837.167	24779
837.305	24604
837.443	24464
837.58	24486
837.718	24582
837.856	24350
837.993	24437
838.131	24414
838.269	24365
838.406	24407
838.544	24422
838.681	24296
838.819	24205
838.956	23969
839.094	23832
839.231	23946
839.369	24144
839.506	24289
839.643	24152
839.781	23950
839.918	23984
840.055	23920
840.193	23954
840.33	23813
840.467	23920
840.604	23870
840.742	24148
840.879	23767
841.016	23783
841.153	23748
841.29	23840
841.427	23786
841.564	23866
841.701	23889
841.838	23764
841.975	23756
842.112	23726
842.249	23745
842.385	23604
842.522	23847
842.659	23684
842.796	23596
842.933	23634
843.069	23566
843.206	23570
843.343	23726
843.479	23577
843.616	23573
843.752	23490
843.889	23452
844.025	23627
844.162	23410
844.298	23512
844.435	23448
844.571	23349
844.708	23448
844.844	23463
844.98	23608
845.117	23566
845.253	23292
845.389	23345
845.525	23246
845.661	23277
845.798	23102
845.934	23075
846.07	23048
846.206	23185
846.342	23220
846.478	23189
846.614	23010
846.75	22668
846.886	22908
847.022	22953
847.158	22877
847.294	22904
847.429	22797
847.565	22831
847.701	23170
847.837	22561
847.972	22596
848.108	22698
848.244	22607
848.379	22447
848.515	22367
848.65	22390
848.786	22417
848.921	22386
849.057	22489
849.192	22607
849.328	22615
849.463	22447
849.598	22322
849.734	22421
849.869	22238
850.004	22314
850.14	22253
850.275	22173
850.41	22215
850.545	22173
850.68	22249
850.815	22150
850.95	22188
851.085	22379
851.22	22295
851.355	22162
851.49	22268
851.625	22207
851.76	22124
851.895	22246
852.03	22143
852.165	22246
852.299	22234
852.434	22226
852.569	22261
852.703	22109
852.838	22215
852.973	22352
853.107	22314
853.242	22143
853.376	22067
853.511	21907
853.645	21960
853.78	22139
853.914	21975
854.048	21979
854.183	22059
854.317	21994
854.451	22246
854.585	22116
854.72	21975
854.854	22021
854.988	22070
855.122	22002
855.256	21911
855.39	22109
855.524	22120
855.658	22032
855.792	22040
855.926	22025
856.06	22032
856.194	22078
856.327	22051
856.461	21945
856.595	22006
856.729	22032
856.862	22105
856.996	22097
857.13	22093
857.263	22147
857.397	22093
857.53	21991
857.664	22044
857.797	22063
857.931	22101
858.064	21956
858.197	22143
858.331	22013
858.464	21903
858.597	21854
858.731	21972
858.864	21949
858.997	21945
859.13	22017
859.263	21968
859.396	22158
859.529	22082
859.662	21869
859.795	21922
859.928	22036
860.061	22158
860.194	22143
860.327	22051
860.46	22116
860.592	22070
860.725	22044
860.858	22158
860.99	22067
861.123	21979
861.256	21960
861.388	21918
861.521	22793
861.653	21975
861.786	21816
861.918	21857
862.05	21838
862.183	21945
862.315	21956
862.447	22006
862.58	21876
862.712	21781
862.844	21785
862.976	21766
863.108	21759
863.24	22044
863.372	21732
863.504	21694
863.636	21698
863.768	21846
863.9	21599
864.032	21587
864.164	21720
864.296	21747
864.428	21831
864.559	21979
864.691	21759
864.823	21713
864.954	21720
865.086	21736
865.217	21652
865.349	21542
865.48	21644
865.612	21663
865.743	21728
865.875	21637
866.006	21656
866.137	21595
866.269	21701
866.4	21568
866.531	21557
866.662	21458
866.793	21447
866.924	21500
867.055	21606
867.186	21519
867.317	21557
867.448	21351
867.579	21443
867.71	21408
867.841	21393
867.972	21660
868.103	21580
868.233	21553
868.364	21583
868.495	21625
868.625	21793
868.756	21861
868.886	21690
869.017	21705
869.147	21766
869.278	21838
869.408	21808
869.539	21641
869.669	21816
869.799	21865
869.929	21915
870.06	21895
870.19	21998
870.32	21922
870.45	22051
870.58	22124
870.71	22284
870.84	22284
870.97	22253
871.1	22242
871.23	22150
871.36	22363
871.489	22265
871.619	22352
871.749	22303
871.879	22360
872.008	22519
872.138	22284
872.267	22428
872.397	22337
872.526	22268
872.656	22249
872.785	22230
872.915	22306
873.044	22500
873.173	22447
873.303	22352
873.432	22322
873.561	22519
873.69	22367
873.819	22379
873.948	22398
874.077	22402
874.206	22337
874.335	22379
874.464	22519
874.593	22675
874.722	22626
874.851	22649
874.979	22611
875.108	22744
875.237	22596
875.365	22527
875.494	22577
875.623	22744
875.751	22565
875.88	22664
876.008	22683
876.136	22877
876.265	22965
876.393	23140
876.521	22953
876.65	23079
876.778	23041
876.906	22881
877.034	22915
877.162	22991
877.29	22889
877.418	23025
877.546	22965
877.674	22919
877.802	22873
877.93	22885
878.058	22774
878.185	22892
878.313	22976
878.441	22828
878.568	22736
878.696	22850
878.824	22972
878.951	23105
879.079	23128
879.206	23269
879.333	23136
879.461	23006
879.588	22972
879.715	23147
879.842	23109
879.97	23060
880.097	22790
880.224	22828
880.351	22710
880.478	22831
880.605	22641
880.732	22691
880.859	22949
880.986	22584
881.112	22752
881.239	22542
881.366	22443
881.493	22497
881.619	22344
881.746	22280
881.872	22344
881.999	22303
882.125	22223
882.252	22261
882.378	22356
882.505	22432
882.631	22154
882.757	21930
882.883	22265
883.01	22070
883.136	21994
883.262	21922
883.388	21835
883.514	21934
883.64	22032
883.766	21983
883.892	21732
884.018	21823
884.143	21895
884.269	21972
884.395	21732
884.52	21663
884.646	21663
884.772	21568
884.897	21557
885.023	21717
885.148	21713
885.274	21663
885.399	21739
885.524	21724
885.65	21610
885.775	21751
885.9	21648
886.025	21736
886.15	21698
886.275	21431
886.4	21553
886.525	21450
886.65	21534
886.775	21557
886.9	21610
887.025	21937
887.149	21682
887.274	21526
887.399	21359
887.523	21473
887.648	21275
887.773	21294
887.897	21583
888.021	21386
888.146	21310
888.27	21507
888.395	21603
888.519	21367
888.643	21469
888.767	21473
888.891	21222
889.015	21279
889.139	21214
889.263	21104
889.387	21264
889.511	21469
889.635	21306
889.759	21222
889.883	21150
890.006	21325
890.13	21226
890.254	21173
890.377	21135
890.501	20853
890.624	20925
890.748	20975
890.871	20876
890.995	20834
891.118	20655
891.241	20876
891.364	20811
891.488	20823
891.611	20705
891.734	20819
891.857	20845
891.98	20785
892.103	20845
892.226	20823
892.349	20762
892.471	20469
892.594	20606
892.717	20705
892.839	20667
892.962	20621
893.085	20655
893.207	20609
893.33	20503
893.452	20518
893.575	20716
893.697	20629
893.819	20762
893.941	20788
894.064	20807
894.186	20670
894.308	20594
894.43	20701
894.552	20716
894.674	20609
894.796	20480
894.918	20587
895.04	20739
895.161	20819
895.283	20575
895.405	20549
895.526	20670
895.648	20575
895.769	20640
895.891	20629
896.012	20716
896.134	20530
896.255	20545
896.376	20640
896.498	20560
896.619	20640
896.74	20560
896.861	20762
896.982	20941
897.103	21009
897.224	20944
897.345	20804
897.466	20735
897.587	20765
897.708	20967
897.828	20842
897.949	20819
898.07	20594
898.19	20712
898.311	20819
898.431	20826
898.552	20845
898.672	20807
898.792	20891
898.913	20746
899.033	20773
899.153	20613
899.273	20533
899.393	20530
899.513	20655
899.633	20571
899.753	20697
899.873	20617
899.993	20568
900.113	20530
900.232	20541
900.352	20408
900.472	20427
900.591	20317
900.711	20374
900.83	20400
900.95	20370
901.069	20537
901.189	20313
901.308	20065
901.427	20012
901.546	19928
901.665	20031
901.784	19936
901.904	19784
902.023	19742
902.141	19548
902.26	19521
902.379	19537
902.498	19396
902.617	19430
902.735	19563
902.854	19365
902.973	19445
903.091	19057
903.21	19122
903.328	19046
903.446	18981
903.565	19076
903.683	18916
903.801	18795
903.919	18810
904.038	18810
904.156	18623
904.274	18722
904.392	18589
904.51	18639
904.627	18722
904.745	18646
904.863	18711
904.981	18509
905.098	18319
905.216	18327
905.334	18403
905.451	18441
905.569	18365
905.686	18479
905.803	18285
905.921	18041
906.038	18262
906.155	18270
906.272	18003
906.389	18026
906.506	17824
906.623	17961
906.74	17878
906.857	17707
906.974	17817
907.091	17923
907.208	17999
907.324	17790
907.441	17714
907.557	17573
907.674	17638
907.79	17535
907.907	17528
908.023	17596
908.139	17608
908.256	17467
908.372	17440
908.488	17501
908.604	17307
908.72	17288
908.836	17398
908.952	17364
909.068	17258
909.184	17322
909.3	17318
909.415	17364
909.531	17246
909.647	16972
909.762	17022
909.878	16972
909.993	17014
910.108	17025
910.224	17090
910.339	17090
910.454	16839
910.57	16866
910.685	16733
910.8	17117
910.915	16835
911.03	16736
911.145	16615
911.259	16626
911.374	16519
911.489	16379
911.604	16504
911.718	16322
911.833	16322
911.947	16230
912.062	16173
912.176	16207
912.291	16291
912.405	16204
912.519	16474
912.633	16489
912.748	16367
912.862	16310
912.976	16238
913.09	16021
913.204	16105
913.318	16120
913.431	16261
913.545	16226
913.659	16215
913.772	16139
913.886	16002
914	15964
914.113	16032
914.226	15960
914.34	15968
914.453	15789
914.566	15972
914.68	15842
914.793	15747
914.906	15591
915.019	15568
915.132	15454
915.245	15572
915.358	15504
915.47	15549
915.583	15553
915.696	15526
915.809	15610
915.921	15622
916.034	15412
916.146	15389
916.259	15405
916.371	15408
916.483	15526
916.595	15336
916.708	15370
916.82	15351
916.932	15348
917.044	15298
917.156	15321
917.268	15108
917.38	15272
917.491	15173
917.603	15180
917.715	15230
917.826	15260
917.938	15161
918.049	14994
918.161	15135
918.272	15199
918.384	15116
918.495	15161
918.606	14914
918.717	14815
918.828	14914
918.939	14948
919.05	14796
919.161	14838
919.272	14674
919.383	14804
919.494	15013
919.604	15093
919.715	14937
919.826	14804
919.936	14834
920.047	14887
920.157	14891
920.267	15074
920.378	14914
920.488	14804
920.598	14986
920.708	15176
920.818	15070
920.928	14944
921.038	15199
921.148	15108
921.258	14811
921.368	14648
921.477	14663
921.587	14613
921.697	14492
921.806	14568
921.916	14469
922.025	14298
922.134	14229
922.244	14252
922.353	14294
922.462	14069
922.571	14027
922.68	13894
922.789	13894
922.898	13822
923.007	13746
923.116	13963
923.224	13879
923.333	13826
923.442	13670
923.55	13784
923.659	13712
923.767	13651
923.876	13601
923.984	13727
924.092	13578
924.201	13613
924.309	13559
924.417	13525
924.525	13396
924.633	13487
924.741	14377
924.849	13392
924.956	13422
925.064	13308
925.172	13270
925.279	13190
925.387	13251
925.494	13304
925.602	13388
925.709	13339
925.816	13137
925.924	13240
926.031	13278
926.138	13228
926.245	13274
926.352	13110
926.459	13156
926.566	13221
926.673	13198
926.779	12973
926.886	12973
926.993	12962
927.099	12867
927.206	12734
927.312	12802
927.419	12833
927.525	12863
927.631	12802
927.737	12715
927.843	12719
927.95	12623
928.056	12623
928.162	12681
928.267	12665
928.373	13217
928.479	12741
928.585	12467
928.69	12589
928.796	12650
928.901	12448
929.007	12395
929.112	12509
929.218	12521
929.323	12365
929.428	12273
929.533	12452
929.638	12273
929.743	12323
929.848	12369
929.953	12277
930.058	12182
930.163	11973
930.267	12068
930.372	12239
930.477	12026
930.581	12228
930.685	12030
930.79	11912
930.894	11916
930.998	11870
931.103	11999
931.207	11589
931.311	11592
931.415	11535
931.519	11273
931.623	11322
