Data from test_V78500241_1830.txt Node
Date: Fri Mar 25 15:22:35 CST 2022
User: usil
Spectrometer: V785-0024
Trigger mode: 0
Integration Time (sec): 4.000000E-1
Scans to average: 1
Nonlinearity correction enabled: false
Boxcar width: 0
Storing dark spectrum: false
XAxis mode: Wavelengths
Number of Pixels in Spectrum: 1024
>>>>>Begin Spectral Data<<<<<
801.071	27972
801.214	27743
801.356	27485
801.499	27500
801.641	27268
801.783	27321
801.926	27443
802.068	27367
802.211	27176
802.353	27211
802.496	26994
802.638	27047
802.78	26944
802.923	26876
803.065	26826
803.208	26899
803.35	26956
803.492	27123
803.635	27142
803.777	27032
803.919	27161
804.061	27450
804.204	27123
804.346	27096
804.488	27192
804.63	27112
804.773	27062
804.915	27249
805.057	27214
805.199	27135
805.341	27207
805.483	27256
805.626	27302
805.768	27313
805.91	27279
806.052	27435
806.194	27260
806.336	27427
806.478	27412
806.62	27237
806.762	27374
806.904	27492
807.046	27785
807.188	27774
807.33	27831
807.472	27854
807.614	27755
807.756	27778
807.898	27496
808.04	27603
808.182	27618
808.324	27534
808.465	27572
808.607	27816
808.749	27930
808.891	28090
809.033	28036
809.174	27941
809.316	27804
809.458	27941
809.6	28013
809.741	28086
809.883	28078
810.025	28169
810.166	28265
810.308	28303
810.45	28219
810.591	28097
810.733	28017
810.875	27831
811.016	27899
811.158	27644
811.299	28029
811.441	28059
811.582	28131
811.724	27918
811.865	27930
812.007	27892
812.148	27914
812.29	28013
812.431	28044
812.573	28150
812.714	28424
812.855	28375
812.997	28561
813.138	28626
813.279	28584
813.421	28500
813.562	28485
813.703	28169
813.845	28105
813.986	27865
814.127	27679
814.268	27698
814.41	27637
814.551	27580
814.692	27595
814.833	27629
814.974	27595
815.115	27618
815.256	27572
815.397	27431
815.539	27481
815.68	27511
815.821	27363
815.962	27454
816.103	27427
816.244	27264
816.385	27184
816.526	27192
816.666	26975
816.807	26967
816.948	27077
817.089	27005
817.23	26940
817.371	26872
817.512	26914
817.653	26864
817.793	26937
817.934	26929
818.075	26880
818.216	26948
818.356	26815
818.497	26918
818.638	26667
818.778	26655
818.919	26708
819.06	26746
819.2	26746
819.341	26819
819.481	26982
819.622	27055
819.762	27207
819.903	27165
820.043	27157
820.184	27108
820.324	27188
820.465	27104
820.605	27085
820.746	27005
820.886	26811
821.026	26921
821.167	26861
821.307	27093
821.447	27047
821.588	26823
821.728	26663
821.868	26503
822.008	26484
822.149	26366
822.289	26256
822.429	26092
822.569	26214
822.709	26081
822.849	25925
822.99	25856
823.13	25883
823.27	25803
823.41	25662
823.55	25567
823.69	25746
823.83	25651
823.97	25594
824.11	25460
824.25	25506
824.389	25426
824.529	25635
824.669	25635
824.809	25651
824.949	25540
825.089	25647
825.228	25601
825.368	25438
825.508	25289
825.648	25441
825.787	25434
825.927	25438
826.067	25415
826.206	25472
826.346	25438
826.485	25510
826.625	25339
826.765	25483
826.904	25472
827.044	25278
827.183	25145
827.323	25232
827.462	25114
827.601	25076
827.741	25004
827.88	25095
828.02	24970
828.159	25164
828.298	25255
828.437	25171
828.577	25099
828.716	25198
828.855	25019
828.994	24954
829.134	24764
829.273	24992
829.412	24734
829.551	24787
829.69	24871
829.829	25031
829.968	24894
830.107	24848
830.246	24783
830.385	24703
830.524	24719
830.663	24741
830.802	24566
830.941	24597
831.08	24677
831.219	24604
831.357	24464
831.496	24532
831.635	24555
831.774	24338
831.913	24319
832.051	24197
832.19	24235
832.329	24178
832.467	24095
832.606	24174
832.744	24098
832.883	24224
833.022	24220
833.16	24121
833.299	24251
833.437	24209
833.576	24186
833.714	24266
833.852	24235
833.991	24140
834.129	24273
834.267	24266
834.406	24209
834.544	24178
834.682	24266
834.821	24079
834.959	24205
835.097	24049
835.235	24209
835.373	24140
835.511	24083
835.65	24087
835.788	24102
835.926	23988
836.064	23817
836.202	23901
836.34	24091
836.478	24144
836.615	23954
836.753	24007
836.891	24121
837.029	24095
837.167	23916
837.305	23992
837.443	23996
837.58	23821
837.718	23897
837.856	23988
837.993	23851
838.131	23882
838.269	23802
838.406	23741
838.544	23672
838.681	23486
838.819	23562
838.956	23486
839.094	23227
839.231	23330
839.369	23516
839.506	23642
839.643	23676
839.781	23376
839.918	23334
840.055	23406
840.193	23341
840.33	23372
840.467	23273
840.604	23258
840.742	23543
840.879	23075
841.016	23064
841.153	23200
841.29	23315
841.427	23242
841.564	23189
841.701	23242
841.838	23235
841.975	23166
842.112	23220
842.249	23079
842.385	23060
842.522	23197
842.659	23083
842.796	22968
842.933	23098
843.069	22976
843.206	22896
843.343	23113
843.479	23033
843.616	23006
843.752	22854
843.889	22835
844.025	22999
844.162	22816
844.298	22839
844.435	22961
844.571	22713
844.708	22687
844.844	22911
844.98	22908
845.117	22877
845.253	22881
845.389	22607
845.525	22812
845.661	22679
845.798	22557
845.934	22592
846.07	22554
846.206	22561
846.342	22679
846.478	22497
846.614	22291
846.75	22200
846.886	22375
847.022	22333
847.158	22337
847.294	22276
847.429	22249
847.565	22219
847.701	22462
847.837	22078
847.972	22032
848.108	21987
848.244	22059
848.379	21869
848.515	21873
848.65	21808
848.786	21880
848.921	21850
849.057	21983
849.192	21903
849.328	21922
849.463	21922
849.598	21857
849.734	21652
849.869	21705
850.004	21671
850.14	21576
850.275	21690
850.41	21549
850.545	21580
850.68	21576
850.815	21576
850.95	21553
851.085	21842
851.22	21732
851.355	21622
851.49	21564
851.625	21583
851.76	21667
851.895	21591
852.03	21504
852.165	21701
852.299	21679
852.434	21667
852.569	21759
852.703	21694
852.838	21583
852.973	21759
853.107	21724
853.242	21709
853.376	21443
853.511	21310
853.645	21469
853.78	21557
853.914	21466
854.048	21374
854.183	21428
854.317	21450
854.451	21629
854.585	21382
854.72	21435
854.854	21564
854.988	21336
855.122	21431
855.256	21431
855.39	21355
855.524	21416
855.658	21507
855.792	21416
855.926	21405
856.06	21545
856.194	21462
856.327	21348
856.461	21374
856.595	21386
856.729	21382
856.862	21412
856.996	21469
857.13	21469
857.263	21523
857.397	21629
857.53	21393
857.664	21504
857.797	21534
857.931	21477
858.064	21420
858.197	21553
858.331	21355
858.464	21477
858.597	21279
858.731	21412
858.864	21447
858.997	21496
859.13	21469
859.263	21401
859.396	21507
859.529	21294
859.662	21420
859.795	21370
859.928	21355
860.061	21599
860.194	21671
860.327	21420
860.46	21462
860.592	21580
860.725	21557
860.858	21534
860.99	21507
861.123	21401
861.256	21420
861.388	21424
861.521	22242
861.653	21439
861.786	21211
861.918	21249
862.05	21329
862.183	21298
862.315	21401
862.447	21302
862.58	21313
862.712	21176
862.844	21150
862.976	21287
863.108	21252
863.24	21542
863.372	21036
863.504	21203
863.636	21138
863.768	21283
863.9	21230
864.032	21013
864.164	21062
864.296	21104
864.428	21329
864.559	21207
864.691	21249
864.823	21142
864.954	21195
865.086	21169
865.217	20986
865.349	21036
865.48	21013
865.612	21123
865.743	21112
865.875	21157
866.006	21066
866.137	21024
866.269	21070
866.4	20967
866.531	20982
866.662	20956
866.793	20941
866.924	20887
867.055	20982
867.186	21009
867.317	20925
867.448	20849
867.579	20998
867.71	20902
867.841	20952
867.972	20994
868.103	21100
868.233	20929
868.364	20994
868.495	21043
868.625	21192
868.756	21359
868.886	21161
869.017	21279
869.147	21332
869.278	21374
869.408	21287
869.539	21146
869.669	21291
869.799	21161
869.929	21351
870.06	21336
870.19	21538
870.32	21492
870.45	21572
870.58	21568
870.71	21827
870.84	21663
870.97	21568
871.1	21614
871.23	21934
871.36	21804
871.489	21781
871.619	21755
871.749	21816
871.879	21812
872.008	21983
872.138	21846
872.267	21838
872.397	21690
872.526	21660
872.656	21690
872.785	21663
872.915	21842
873.044	21895
873.173	21751
873.303	21953
873.432	21953
873.561	21876
873.69	21865
873.819	21751
873.948	21922
874.077	21831
874.206	21861
874.335	21705
874.464	21918
874.593	22082
874.722	22063
874.851	22211
874.979	22226
875.108	22162
875.237	22074
875.365	21964
875.494	22116
875.623	22139
875.751	22131
875.88	21994
876.008	22226
876.136	22287
876.265	22424
876.393	22531
876.521	22485
876.65	22546
876.778	22455
876.906	22382
877.034	22379
877.162	22485
877.29	22314
877.418	22363
877.546	22512
877.674	22417
877.802	22360
877.93	22405
878.058	22379
878.185	22242
878.313	22398
878.441	22428
878.568	22284
878.696	22337
878.824	22417
878.951	22519
879.079	22596
879.206	22694
879.333	22573
879.461	22451
879.588	22424
879.715	22607
879.842	22755
879.97	22516
880.097	22287
880.224	22173
880.351	22310
880.478	22303
880.605	22253
880.732	22223
880.859	22398
880.986	22234
881.112	22246
881.239	22147
881.366	21968
881.493	21854
881.619	21835
881.746	21956
881.872	21857
881.999	21911
882.125	21800
882.252	21781
882.378	21846
882.505	22029
882.631	21656
882.757	21610
882.883	21526
883.01	21507
883.136	21454
883.262	21321
883.388	21382
883.514	21553
883.64	21466
883.766	21504
883.892	21249
884.018	21302
884.143	21424
884.269	21526
884.395	21302
884.52	21154
884.646	21207
884.772	21074
884.897	21161
885.023	21237
885.148	21237
885.274	21412
885.399	21218
885.524	21154
885.65	21081
885.775	21104
885.9	21142
886.025	21252
886.15	21310
886.275	21100
886.4	21051
886.525	21176
886.65	21058
886.775	21116
886.9	21207
887.025	21279
887.149	21169
887.274	20861
887.399	20994
887.523	20891
887.648	20941
887.773	20849
887.897	21001
888.021	20891
888.146	20758
888.27	21066
888.395	20979
888.519	20948
888.643	20979
888.767	20971
888.891	20811
889.015	20880
889.139	20880
889.263	20701
889.387	20868
889.511	21039
889.635	20705
889.759	20731
889.883	20659
890.006	20731
890.13	20765
890.254	20636
890.377	20648
890.501	20514
890.624	20549
890.748	20556
890.871	20400
890.995	20263
891.118	20214
891.241	20290
891.364	20328
891.488	20461
891.611	20370
891.734	20256
891.857	20332
891.98	20256
892.103	20294
892.226	20233
892.349	20229
892.471	20096
892.594	20294
892.717	20252
892.839	20161
892.962	20187
893.085	20419
893.207	20263
893.33	20020
893.452	20088
893.575	20176
893.697	20210
893.819	20320
893.941	20412
894.064	20275
894.186	20233
894.308	19978
894.43	20244
894.552	20438
894.674	20362
894.796	20073
894.918	20172
895.04	20210
895.161	20347
895.283	20218
895.405	20126
895.526	20088
895.648	20233
895.769	20195
895.891	20221
896.012	20298
896.134	20309
896.255	20332
896.376	20168
896.498	20267
896.619	20187
896.74	20183
896.861	20191
896.982	20507
897.103	20621
897.224	20484
897.345	20370
897.466	20374
897.587	20381
897.708	20583
897.828	20564
897.949	20377
898.07	20145
898.19	20313
898.311	20507
898.431	20313
898.552	20328
898.672	20511
898.792	20393
898.913	20400
899.033	20259
899.153	20252
899.273	20096
899.393	20157
899.513	20149
899.633	20092
899.753	20210
899.873	20069
899.993	20126
900.113	20126
900.232	20073
900.352	20001
900.472	19856
900.591	19932
900.711	20008
900.83	19799
900.95	19978
901.069	19860
901.189	19731
901.308	19594
901.427	19510
901.546	19525
901.665	19407
901.784	19582
901.904	19358
902.023	19365
902.141	19148
902.26	18989
902.379	19179
902.498	19110
902.617	18863
902.735	18996
902.854	18989
902.973	18943
903.091	18707
903.21	18703
903.328	18658
903.446	18627
903.565	18559
903.683	18429
903.801	18391
903.919	18582
904.038	18422
904.156	18228
904.274	18403
904.392	18235
904.51	18319
904.627	18243
904.745	18262
904.863	18289
904.981	18072
905.098	17866
905.216	17722
905.334	18068
905.451	17973
905.569	17927
905.686	17904
905.803	17950
905.921	17805
906.038	17843
906.155	17642
906.272	17516
906.389	17623
906.506	17505
906.623	17505
906.74	17440
906.857	17299
906.974	17379
907.091	17585
907.208	17619
907.324	17585
907.441	17360
907.557	17296
907.674	17193
907.79	17170
907.907	17102
908.023	17174
908.139	17280
908.256	17193
908.372	17083
908.488	17132
908.604	16961
908.72	16869
908.836	16862
908.952	16790
909.068	16995
909.184	16972
909.3	16862
909.415	16965
909.531	16812
909.647	16759
909.762	16592
909.878	16569
909.993	16554
910.108	16550
910.224	16558
910.339	16554
910.454	16493
910.57	16558
910.685	16246
910.8	16691
910.915	16569
911.03	16428
911.145	16261
911.259	16124
911.374	16284
911.489	16162
911.604	16017
911.718	15979
911.833	15979
911.947	15850
912.062	15713
912.176	15926
912.291	15911
912.405	15869
912.519	16169
912.633	16215
912.748	15930
912.862	15880
912.976	15686
913.09	15606
913.204	15713
913.318	15934
913.431	15899
913.545	15755
913.659	15724
913.772	15705
913.886	15580
914	15545
914.113	15663
914.226	15610
914.34	15701
914.453	15458
914.566	15618
914.68	15374
914.793	15363
914.906	15188
915.019	15150
915.132	15032
915.245	15214
915.358	15195
915.47	15142
915.583	15222
915.696	15173
915.809	15302
915.921	15378
916.034	15077
916.146	15051
916.259	14921
916.371	15214
916.483	15009
916.595	15036
916.708	15039
916.82	15009
916.932	14975
917.044	14986
917.156	14883
917.268	14899
917.38	14762
917.491	14788
917.603	14811
917.715	14872
917.826	14834
917.938	14712
918.049	14674
918.161	14739
918.272	14948
918.384	14800
918.495	14864
918.606	14511
918.717	14495
918.828	14526
918.939	14606
919.05	14503
919.161	14579
919.272	14377
919.383	14328
919.494	14571
919.604	14743
919.715	14575
919.826	14568
919.936	14480
920.047	14594
920.157	14587
920.267	14731
920.378	14549
920.488	14442
920.598	14686
920.708	14735
920.818	14571
920.928	14590
921.038	14842
921.148	14735
921.258	14488
921.368	14427
921.477	14290
921.587	14240
921.697	14092
921.806	14206
921.916	14138
922.025	13936
922.134	13917
922.244	13776
922.353	13963
922.462	13704
922.571	13712
922.68	13525
922.789	13563
922.898	13624
923.007	13506
923.116	13594
923.224	13529
923.333	13559
923.442	13495
923.55	13419
923.659	13365
923.767	13396
923.876	13270
923.984	13400
924.092	13308
924.201	13327
924.309	13236
924.417	13293
924.525	13206
924.633	13289
924.741	14168
924.849	12894
924.956	13110
925.064	13008
925.172	12970
925.279	13008
925.387	12924
925.494	13027
925.602	13084
925.709	13019
925.816	12901
925.924	12890
926.031	12973
926.138	12905
926.245	12928
926.352	12821
926.459	13031
926.566	13008
926.673	12810
926.779	12654
926.886	12798
926.993	12623
927.099	12608
927.206	12456
927.312	12441
927.419	12593
927.525	12525
927.631	12582
927.737	12407
927.843	12395
927.95	12334
928.056	12365
928.162	12292
928.267	12395
928.373	12951
928.479	12437
928.585	12270
928.69	12247
928.796	12289
928.901	12186
929.007	12060
929.112	12197
929.218	12175
929.323	12091
929.428	12076
929.533	12220
929.638	12011
929.743	12022
929.848	12125
929.953	11977
930.058	11912
930.163	11775
930.267	11836
930.372	11855
930.477	11794
930.581	11874
930.685	11794
930.79	11722
930.894	11657
930.998	11589
931.103	11752
931.207	11326
931.311	11292
931.415	11201
931.519	11052
931.623	11003
