Data from test_V78500241_560.txt Node
Date: Fri Mar 25 15:13:45 CST 2022
User: usil
Spectrometer: V785-0024
Trigger mode: 0
Integration Time (sec): 4.000000E-1
Scans to average: 1
Nonlinearity correction enabled: false
Boxcar width: 0
Storing dark spectrum: false
XAxis mode: Wavelengths
Number of Pixels in Spectrum: 1024
>>>>>Begin Spectral Data<<<<<
801.071	27074
801.214	27009
801.356	26811
801.499	26640
801.641	26587
801.783	26579
801.926	26579
802.068	26556
802.211	26427
802.353	26377
802.496	26434
802.638	26278
802.78	26096
802.923	26301
803.065	26073
803.208	26259
803.35	26130
803.492	26320
803.635	26355
803.777	26107
803.919	26396
804.061	26743
804.204	26271
804.346	26320
804.488	26252
804.63	26286
804.773	26126
804.915	26347
805.057	26438
805.199	26248
805.341	26408
805.483	26453
805.626	26339
805.768	26385
805.91	26442
806.052	26305
806.194	26328
806.336	26659
806.478	26423
806.62	26442
806.762	26575
806.904	26781
807.046	27081
807.188	26963
807.33	26823
807.472	26906
807.614	26765
807.756	26819
807.898	26750
808.04	26727
808.182	26530
808.324	26708
808.465	26705
808.607	26686
808.749	27017
808.891	27028
809.033	27173
809.174	27096
809.316	27100
809.458	27005
809.6	27013
809.741	27192
809.883	27161
810.025	27306
810.166	27382
810.308	27268
810.45	27329
810.591	27291
810.733	27188
810.875	26986
811.016	27047
811.158	27001
811.299	27055
811.441	27233
811.582	27173
811.724	27047
811.865	27039
812.007	26979
812.148	26990
812.29	27043
812.431	27302
812.573	27332
812.714	27389
812.855	27545
812.997	27572
813.138	27930
813.279	27781
813.421	27644
813.562	27500
813.703	27386
813.845	27268
813.986	27055
814.127	26777
814.268	26724
814.41	26773
814.551	26708
814.692	26644
814.833	26613
814.974	26629
815.115	26769
815.256	26609
815.397	26530
815.539	26621
815.68	26587
815.821	26473
815.962	26366
816.103	26423
816.244	26301
816.385	26240
816.526	26351
816.666	26084
816.807	25913
816.948	26077
817.089	26043
817.23	26111
817.371	25959
817.512	26081
817.653	25913
817.793	26001
817.934	26069
818.075	25978
818.216	25909
818.356	25940
818.497	25715
818.638	25616
818.778	25674
818.919	25681
819.06	25772
819.2	25856
819.341	26001
819.481	25890
819.622	25989
819.762	26278
819.903	26058
820.043	26271
820.184	26077
820.324	26058
820.465	26183
820.605	26206
820.746	26092
820.886	25913
821.026	26115
821.167	25894
821.307	26077
821.447	25936
821.588	25837
821.728	25909
821.868	25529
822.008	25552
822.149	25327
822.289	25445
822.429	25270
822.569	25099
822.709	25148
822.849	25019
822.99	24951
823.13	24901
823.27	24798
823.41	24772
823.55	24722
823.69	24779
823.83	24757
823.97	24654
824.11	24589
824.25	24547
824.389	24544
824.529	24589
824.669	24547
824.809	24711
824.949	24646
825.089	24669
825.228	24661
825.368	24536
825.508	24536
825.648	24471
825.787	24422
825.927	24494
826.067	24346
826.206	24433
826.346	24445
826.485	24456
826.625	24380
826.765	24429
826.904	24384
827.044	24136
827.183	24224
827.323	24262
827.462	24038
827.601	24129
827.741	23961
827.88	24285
828.02	24030
828.159	23882
828.298	24178
828.437	24186
828.577	24110
828.716	24209
828.855	24117
828.994	23832
829.134	23920
829.273	23832
829.412	23745
829.551	23809
829.69	23859
829.829	23961
829.968	23851
830.107	23939
830.246	23866
830.385	23908
830.524	23691
830.663	23790
830.802	23547
830.941	23505
831.08	23414
831.219	23539
831.357	23642
831.496	23687
831.635	23497
831.774	23379
831.913	23269
832.051	23220
832.19	23151
832.329	23280
832.467	23208
832.606	23200
832.744	23170
832.883	23174
833.022	23200
833.16	23147
833.299	23242
833.437	23181
833.576	23178
833.714	23223
833.852	23387
833.991	23200
834.129	23318
834.267	23368
834.406	23242
834.544	23254
834.682	23128
834.821	23147
834.959	23334
835.097	23181
835.235	23273
835.373	23318
835.511	23178
835.65	23083
835.788	23041
835.926	23006
836.064	22961
836.202	22896
836.34	22995
836.478	23189
836.615	23044
836.753	23132
836.891	23231
837.029	23041
837.167	22934
837.305	22968
837.443	23037
837.58	23022
837.718	23064
837.856	22949
837.993	22824
838.131	22923
838.269	22763
838.406	22786
838.544	22683
838.681	22694
838.819	22508
838.956	22500
839.094	22341
839.231	22569
839.369	22607
839.506	22881
839.643	22763
839.781	22428
839.918	22398
840.055	22322
840.193	22341
840.33	22287
840.467	22341
840.604	22329
840.742	22603
840.879	22211
841.016	22367
841.153	22238
841.29	22447
841.427	22238
841.564	22470
841.701	22363
841.838	22291
841.975	22226
842.112	22177
842.249	22086
842.385	22082
842.522	22356
842.659	22128
842.796	22063
842.933	22093
843.069	22040
843.206	22147
843.343	22029
843.479	22063
843.616	22086
843.752	21888
843.889	21884
844.025	22021
844.162	21854
844.298	22006
844.435	21808
844.571	21808
844.708	21915
844.844	22006
844.98	22063
845.117	22063
845.253	21774
845.389	21728
845.525	21728
845.661	21724
845.798	21705
845.934	21671
846.07	21690
846.206	21675
846.342	21603
846.478	21549
846.614	21458
846.75	21294
846.886	21329
847.022	21412
847.158	21329
847.294	21321
847.429	21329
847.565	21302
847.701	21622
847.837	21089
847.972	21055
848.108	21188
848.244	21184
848.379	20956
848.515	20853
848.65	20971
848.786	21039
848.921	20944
849.057	20971
849.192	20990
849.328	21062
849.463	20857
849.598	20975
849.734	20880
849.869	20830
850.004	20735
850.14	20758
850.275	20613
850.41	20636
850.545	20598
850.68	20575
850.815	20693
850.95	20617
851.085	20773
851.22	20750
851.355	20724
851.49	20617
851.625	20640
851.76	20606
851.895	20518
852.03	20560
852.165	20701
852.299	20758
852.434	20834
852.569	20788
852.703	20743
852.838	20648
852.973	20773
853.107	20758
853.242	20621
853.376	20533
853.511	20370
853.645	20579
853.78	20701
853.914	20522
854.048	20377
854.183	20598
854.317	20583
854.451	20632
854.585	20442
854.72	20503
854.854	20594
854.988	20347
855.122	20480
855.256	20442
855.39	20499
855.524	20594
855.658	20461
855.792	20552
855.926	20556
856.06	20571
856.194	20590
856.327	20495
856.461	20568
856.595	20495
856.729	20457
856.862	20590
856.996	20450
857.13	20583
857.263	20667
857.397	20648
857.53	20617
857.664	20495
857.797	20621
857.931	20701
858.064	20609
858.197	20693
858.331	20518
858.464	20522
858.597	20404
858.731	20575
858.864	20457
858.997	20507
859.13	20537
859.263	20552
859.396	20629
859.529	20446
859.662	20537
859.795	20492
859.928	20545
860.061	20727
860.194	20644
860.327	20598
860.46	20575
860.592	20644
860.725	20758
860.858	20739
860.99	20503
861.123	20552
861.256	20511
861.388	20473
861.521	21363
861.653	20389
861.786	20324
861.918	20385
862.05	20404
862.183	20564
862.315	20484
862.447	20598
862.58	20347
862.712	20252
862.844	20111
862.976	20324
863.108	20282
863.24	20697
863.372	20263
863.504	20218
863.636	20290
863.768	20225
863.9	20263
864.032	20206
864.164	20214
864.296	20400
864.428	20377
864.559	20282
864.691	20210
864.823	20183
864.954	20275
865.086	20107
865.217	20202
865.349	20024
865.48	20248
865.612	20157
865.743	20233
865.875	20161
866.006	20050
866.137	20172
866.269	20054
866.4	20134
866.531	20081
866.662	19993
866.793	20027
866.924	20103
867.055	20077
867.186	20122
867.317	20001
867.448	20001
867.579	20088
867.71	19978
867.841	20077
867.972	20138
868.103	20054
868.233	20172
868.364	20008
868.495	20115
868.625	20366
868.756	20377
868.886	20286
869.017	20206
869.147	20366
869.278	20427
869.408	20298
869.539	20286
869.669	20396
869.799	20476
869.929	20419
870.06	20427
870.19	20667
870.32	20708
870.45	20674
870.58	20727
870.71	20758
870.84	20834
870.97	20727
871.1	20613
871.23	20914
871.36	20872
871.489	20750
871.619	20902
871.749	20921
871.879	20975
872.008	21085
872.138	20838
872.267	20921
872.397	20823
872.526	20811
872.656	20727
872.785	20800
872.915	20815
873.044	21009
873.173	20906
873.303	21043
873.432	20918
873.561	21051
873.69	20960
873.819	20960
873.948	21127
874.077	20948
874.206	20876
874.335	20982
874.464	21066
874.593	21176
874.722	21146
874.851	21138
874.979	21138
875.108	21195
875.237	21093
875.365	21157
875.494	21180
875.623	21169
875.751	21192
875.88	21203
876.008	21291
876.136	21363
876.265	21625
876.393	21751
876.521	21587
876.65	21698
876.778	21572
876.906	21466
877.034	21481
877.162	21526
877.29	21545
877.418	21530
877.546	21523
877.674	21473
877.802	21561
877.93	21568
878.058	21481
878.185	21401
878.313	21447
878.441	21450
878.568	21405
878.696	21355
878.824	21538
878.951	21606
879.079	21732
879.206	21732
879.333	21812
879.461	21542
879.588	21656
879.715	21663
879.842	21865
879.97	21610
880.097	21496
880.224	21279
880.351	21466
880.478	21405
880.605	21344
880.732	21310
880.859	21591
880.986	21408
881.112	21325
881.239	21169
881.366	21252
881.493	21100
881.619	20982
881.746	20967
881.872	21013
881.999	20937
882.125	20891
882.252	20960
882.378	20994
882.505	21089
882.631	20838
882.757	20735
882.883	20750
883.01	20655
883.136	20758
883.262	20488
883.388	20431
883.514	20640
883.64	20606
883.766	20598
883.892	20461
884.018	20503
884.143	20537
884.269	20697
884.395	20469
884.52	20229
884.646	20347
884.772	20240
884.897	20278
885.023	20294
885.148	20404
885.274	20370
885.399	20423
885.524	20355
885.65	20370
885.775	20461
885.9	20324
886.025	20442
886.15	20434
886.275	20275
886.4	20119
886.525	20328
886.65	20278
886.775	20313
886.9	20377
887.025	20556
887.149	20183
887.274	20199
887.399	20077
887.523	20050
887.648	20062
887.773	20050
887.897	20187
888.021	20172
888.146	19906
888.27	20046
888.395	20168
888.519	20225
888.643	20111
888.767	20115
888.891	20012
889.015	19955
889.139	19951
889.263	19807
889.387	20016
889.511	20100
889.635	19940
889.759	19860
889.883	19967
890.006	20035
890.13	19982
890.254	19772
890.377	19708
890.501	19647
890.624	19590
890.748	19738
890.871	19575
890.995	19415
891.118	19430
891.241	19559
891.364	19514
891.488	19616
891.611	19502
891.734	19384
891.857	19483
891.98	19590
892.103	19491
892.226	19480
892.349	19453
892.471	19206
892.594	19400
892.717	19460
892.839	19316
892.962	19514
893.085	19518
893.207	19460
893.33	19327
893.452	19384
893.575	19354
893.697	19297
893.819	19449
893.941	19624
894.064	19502
894.186	19297
894.308	19316
894.43	19415
894.552	19521
894.674	19480
894.796	19263
894.918	19346
895.04	19358
895.161	19540
895.283	19472
895.405	19289
895.526	19388
895.648	19388
895.769	19415
895.891	19426
896.012	19518
896.134	19426
896.255	19426
896.376	19346
896.498	19407
896.619	19548
896.74	19362
896.861	19518
896.982	19723
897.103	19845
897.224	19655
897.345	19499
897.466	19605
897.587	19609
897.708	19791
897.828	19628
897.949	19689
898.07	19346
898.19	19575
898.311	19635
898.431	19556
898.552	19670
898.672	19670
898.792	19753
898.913	19666
899.033	19628
899.153	19392
899.273	19278
899.393	19407
899.513	19464
899.633	19259
899.753	19453
899.873	19259
899.993	19422
900.113	19331
900.232	19312
900.352	19362
900.472	19255
900.591	19175
900.711	19274
900.83	19148
900.95	19255
901.069	19289
901.189	19114
901.308	18833
901.427	18753
901.546	18768
901.665	18821
901.784	18726
901.904	18654
902.023	18566
902.141	18323
902.26	18395
902.379	18426
902.498	18232
902.617	18220
902.735	18300
902.854	18220
902.973	18205
903.091	18034
903.21	17942
903.328	17870
903.446	17794
903.565	17828
903.683	17752
903.801	17714
903.919	17741
904.038	17703
904.156	17577
904.274	17634
904.392	17619
904.51	17570
904.627	17543
904.745	17600
904.863	17619
904.981	17356
905.098	17261
905.216	17208
905.334	17395
905.451	17204
905.569	17208
905.686	17307
905.803	17239
905.921	17045
906.038	17090
906.155	17071
906.272	17006
906.389	16968
906.506	16778
906.623	16850
906.74	16725
906.857	16660
906.974	16759
907.091	16812
907.208	16949
907.324	16733
907.441	16713
907.557	16634
907.674	16592
907.79	16405
907.907	16462
908.023	16599
908.139	16523
908.256	16409
908.372	16504
908.488	16508
908.604	16337
908.72	16169
908.836	16280
908.952	16280
909.068	16367
909.184	16405
909.3	16303
909.415	16257
909.531	16188
909.647	16071
909.762	15960
909.878	16029
909.993	16032
910.108	15983
910.224	15907
910.339	15903
910.454	15857
910.57	15728
910.685	15724
910.8	16025
910.915	15880
911.03	15823
911.145	15698
911.259	15553
911.374	15504
911.489	15424
911.604	15485
911.718	15389
911.833	15329
911.947	15241
912.062	15256
912.176	15241
912.291	15325
912.405	15313
912.519	15378
912.633	15500
912.748	15340
912.862	15348
912.976	15176
913.09	15047
913.204	15173
913.318	15085
913.431	15211
913.545	15218
913.659	15203
913.772	15036
913.886	15074
914	14918
914.113	15020
914.226	15055
914.34	14982
914.453	14845
914.566	14876
914.68	14861
914.793	14823
914.906	14716
915.019	14541
915.132	14533
915.245	14454
915.358	14526
915.47	14537
915.583	14499
915.696	14564
915.809	14670
915.921	14781
916.034	14454
916.146	14454
916.259	14533
916.371	14750
916.483	14560
916.595	14442
916.708	14328
916.82	14404
916.932	14419
917.044	14366
917.156	14366
917.268	14210
917.38	14328
917.491	14214
917.603	14229
917.715	14358
917.826	14263
917.938	14176
918.049	14096
918.161	14195
918.272	14343
918.384	14282
918.495	14161
918.606	14062
918.717	14024
918.828	14062
918.939	14115
919.05	13898
919.161	13955
919.272	13883
919.383	13936
919.494	14054
919.604	14180
919.715	14062
919.826	13887
919.936	13978
920.047	14012
920.157	14081
920.267	14084
920.378	14031
920.488	14005
920.598	14077
920.708	14221
920.818	14145
920.928	14039
921.038	14324
921.148	14252
921.258	13967
921.368	13830
921.477	13715
921.587	13784
921.697	13689
921.806	13818
921.916	13521
922.025	13472
922.134	13365
922.244	13308
922.353	13422
922.462	13247
922.571	13187
922.68	13088
922.789	13065
922.898	13160
923.007	13031
923.116	13023
923.224	12993
923.333	12951
923.442	12939
923.55	12844
923.659	12958
923.767	12909
923.876	12802
923.984	12901
924.092	12730
924.201	12878
924.309	12810
924.417	12715
924.525	12707
924.633	12757
924.741	13487
924.849	12642
924.956	12760
925.064	12585
925.172	12410
925.279	12456
925.387	12486
925.494	12521
925.602	12669
925.709	12547
925.816	12327
925.924	12429
926.031	12521
926.138	12357
926.245	12517
926.352	12448
926.459	12445
926.566	12502
926.673	12277
926.779	12338
926.886	12292
926.993	12254
927.099	12087
927.206	11950
927.312	12015
927.419	12148
927.525	12041
927.631	12064
927.737	11999
927.843	11866
927.95	11897
928.056	11904
928.162	11855
928.267	12007
928.373	12551
928.479	11950
928.585	11779
928.69	11927
928.796	11916
928.901	11783
929.007	11619
929.112	11798
929.218	11699
929.323	11688
929.428	11630
929.533	11805
929.638	11558
929.743	11516
929.848	11615
929.953	11596
930.058	11493
930.163	11360
930.267	11368
930.372	11562
930.477	11303
930.581	11543
930.685	11387
930.79	11261
930.894	11360
930.998	11197
931.103	11379
931.207	10976
931.311	10957
931.415	10942
931.519	10675
931.623	10618
