Data from test_V78500241_1821.txt Node
Date: Fri Mar 25 15:22:32 CST 2022
User: usil
Spectrometer: V785-0024
Trigger mode: 0
Integration Time (sec): 4.000000E-1
Scans to average: 1
Nonlinearity correction enabled: false
Boxcar width: 0
Storing dark spectrum: false
XAxis mode: Wavelengths
Number of Pixels in Spectrum: 1024
>>>>>Begin Spectral Data<<<<<
801.071	27789
801.214	27850
801.356	27435
801.499	27534
801.641	27416
801.783	27275
801.926	27386
802.068	27340
802.211	27218
802.353	27245
802.496	26994
802.638	27036
802.78	27055
802.923	26883
803.065	26895
803.208	26853
803.35	26925
803.492	27116
803.635	27104
803.777	27066
803.919	27207
804.061	27408
804.204	27245
804.346	27154
804.488	27116
804.63	27135
804.773	27146
804.915	27127
805.057	27207
805.199	27085
805.341	27287
805.483	27298
805.626	27264
805.768	27165
805.91	27256
806.052	27336
806.194	27279
806.336	27530
806.478	27317
806.62	27332
806.762	27511
806.904	27553
807.046	27835
807.188	27850
807.33	27648
807.472	27671
807.614	27747
807.756	27663
807.898	27656
808.04	27542
808.182	27526
808.324	27591
808.465	27568
808.607	27720
808.749	27854
808.891	28029
809.033	28093
809.174	27953
809.316	27846
809.458	27888
809.6	27823
809.741	28097
809.883	28173
810.025	28192
810.166	28230
810.308	28154
810.45	28257
810.591	28120
810.733	27949
810.875	27922
811.016	27895
811.158	27694
811.299	27926
811.441	28128
811.582	27998
811.724	27937
811.865	27953
812.007	28013
812.148	27800
812.29	28002
812.431	28211
812.573	28135
812.714	28287
812.855	28367
812.997	28508
813.138	28687
813.279	28542
813.421	28394
813.562	28398
813.703	28268
813.845	28040
813.986	27956
814.127	27823
814.268	27663
814.41	27549
814.551	27580
814.692	27637
814.833	27530
814.974	27682
815.115	27485
815.256	27538
815.397	27507
815.539	27492
815.68	27447
815.821	27348
815.962	27447
816.103	27287
816.244	27256
816.385	27157
816.526	27340
816.666	27066
816.807	26944
816.948	26906
817.089	27013
817.23	26933
817.371	26842
817.512	26891
817.653	27017
817.793	26750
817.934	26986
818.075	26902
818.216	26826
818.356	26940
818.497	26701
818.638	26632
818.778	26590
818.919	26644
819.06	26609
819.2	26830
819.341	26990
819.481	26777
819.622	27176
819.762	27272
819.903	27131
820.043	26982
820.184	26906
820.324	27036
820.465	27108
820.605	26998
820.746	26990
820.886	26872
821.026	26940
821.167	27005
821.307	26971
821.447	26781
821.588	26785
821.728	26758
821.868	26488
822.008	26389
822.149	26423
822.289	26396
822.429	26077
822.569	26100
822.709	25993
822.849	25978
822.99	25879
823.13	25963
823.27	25765
823.41	25715
823.55	25571
823.69	25681
823.83	25791
823.97	25647
824.11	25495
824.25	25597
824.389	25396
824.529	25575
824.669	25518
824.809	25582
824.949	25639
825.089	25609
825.228	25674
825.368	25312
825.508	25479
825.648	25426
825.787	25411
825.927	25453
826.067	25499
826.206	25346
826.346	25487
826.485	25441
826.625	25430
826.765	25624
826.904	25491
827.044	25270
827.183	25183
827.323	25034
827.462	25129
827.601	25194
827.741	25255
827.88	25141
828.02	25000
828.159	25137
828.298	25095
828.437	25339
828.577	25152
828.716	25285
828.855	25050
828.994	24821
829.134	24939
829.273	24932
829.412	24859
829.551	24677
829.69	24871
829.829	24856
829.968	24859
830.107	24897
830.246	24764
830.385	24829
830.524	24772
830.663	24623
830.802	24593
830.941	24574
831.08	24422
831.219	24570
831.357	24566
831.496	24776
831.635	24528
831.774	24479
831.913	24391
832.051	24513
832.19	24091
832.329	24357
832.467	24125
832.606	24049
832.744	24152
832.883	23961
833.022	24182
833.16	24140
833.299	24034
833.437	24270
833.576	24304
833.714	24224
833.852	24182
833.991	24258
834.129	24395
834.267	24228
834.406	24266
834.544	24273
834.682	24270
834.821	24178
834.959	24209
835.097	24323
835.235	24270
835.373	24319
835.511	24205
835.65	24091
835.788	24045
835.926	23954
836.064	23767
836.202	23882
836.34	24038
836.478	24311
836.615	23980
836.753	24003
836.891	24049
837.029	24114
837.167	24007
837.305	24057
837.443	24030
837.58	23863
837.718	23954
837.856	23882
837.993	23836
838.131	23920
838.269	23699
838.406	23840
838.544	23817
838.681	23592
838.819	23528
838.956	23421
839.094	23486
839.231	23471
839.369	23490
839.506	23767
839.643	23592
839.781	23421
839.918	23296
840.055	23486
840.193	23280
840.33	23227
840.467	23303
840.604	23288
840.742	23516
840.879	23223
841.016	23090
841.153	23105
841.29	23330
841.427	23288
841.564	23303
841.701	23322
841.838	23406
841.975	23151
842.112	23174
842.249	23075
842.385	23208
842.522	23258
842.659	23159
842.796	23064
842.933	23166
843.069	23052
843.206	22987
843.343	23052
843.479	23136
843.616	23044
843.752	22889
843.889	22843
844.025	22949
844.162	22763
844.298	22972
844.435	22900
844.571	22847
844.708	22873
844.844	23006
844.98	23003
845.117	22816
845.253	22736
845.389	22626
845.525	22702
845.661	22656
845.798	22592
845.934	22630
846.07	22500
846.206	22641
846.342	22713
846.478	22565
846.614	22322
846.75	22223
846.886	22295
847.022	22325
847.158	22265
847.294	22207
847.429	22322
847.565	22261
847.701	22402
847.837	22082
847.972	22101
848.108	22139
848.244	22025
848.379	21941
848.515	21873
848.65	21842
848.786	21846
848.921	21857
849.057	21861
849.192	21953
849.328	22017
849.463	21854
849.598	21766
849.734	21888
849.869	21751
850.004	21675
850.14	21728
850.275	21701
850.41	21606
850.545	21610
850.68	21561
850.815	21739
850.95	21549
851.085	21827
851.22	21778
851.355	21686
851.49	21705
851.625	21690
851.76	21644
851.895	21576
852.03	21545
852.165	21576
852.299	21667
852.434	21819
852.569	21625
852.703	21610
852.838	21568
852.973	21797
853.107	21774
853.242	21458
853.376	21374
853.511	21340
853.645	21351
853.78	21622
853.914	21561
854.048	21496
854.183	21424
854.317	21492
854.451	21591
854.585	21405
854.72	21519
854.854	21663
854.988	21458
855.122	21351
855.256	21374
855.39	21454
855.524	21576
855.658	21435
855.792	21523
855.926	21477
856.06	21389
856.194	21561
856.327	21435
856.461	21382
856.595	21370
856.729	21530
856.862	21496
856.996	21443
857.13	21538
857.263	21458
857.397	21637
857.53	21416
857.664	21454
857.797	21557
857.931	21625
858.064	21591
858.197	21507
858.331	21393
858.464	21325
858.597	21367
858.731	21526
858.864	21538
858.997	21382
859.13	21431
859.263	21561
859.396	21599
859.529	21481
859.662	21412
859.795	21325
859.928	21466
860.061	21618
860.194	21819
860.327	21530
860.46	21549
860.592	21679
860.725	21652
860.858	21641
860.99	21454
861.123	21382
861.256	21393
861.388	21424
861.521	22169
861.653	21351
861.786	21386
861.918	21374
862.05	21294
862.183	21466
862.315	21454
862.447	21374
862.58	21378
862.712	21142
862.844	21203
862.976	21340
863.108	21192
863.24	21485
863.372	21203
863.504	21237
863.636	21226
863.768	21264
863.9	21287
864.032	21176
864.164	21188
864.296	21291
864.428	21226
864.559	21146
864.691	21135
864.823	21241
864.954	21184
865.086	21123
865.217	21089
865.349	20952
865.48	21055
865.612	21119
865.743	21188
865.875	21093
866.006	20971
866.137	20986
866.269	21089
866.4	20979
866.531	21036
866.662	21001
866.793	21055
866.924	20834
867.055	21070
867.186	20990
867.317	21131
867.448	20864
867.579	20975
867.71	20872
867.841	20963
867.972	21043
868.103	21051
868.233	21089
868.364	21017
868.495	21161
868.625	21256
868.756	21382
868.886	21207
869.017	21241
869.147	21348
869.278	21302
869.408	21199
869.539	21260
869.669	21405
869.799	21233
869.929	21412
870.06	21367
870.19	21466
870.32	21526
870.45	21660
870.58	21538
870.71	21781
870.84	21690
870.97	21682
871.1	21770
871.23	21861
871.36	21953
871.489	21686
871.619	21682
871.749	21998
871.879	21869
872.008	21854
872.138	21778
872.267	21918
872.397	21816
872.526	21637
872.656	21545
872.785	21629
872.915	21926
873.044	21972
873.173	21846
873.303	21835
873.432	22006
873.561	22131
873.69	21926
873.819	21816
873.948	21797
874.077	21854
874.206	21762
874.335	21838
874.464	22013
874.593	22086
874.722	22006
874.851	22112
874.979	22006
875.108	22185
875.237	21994
875.365	21899
875.494	21930
875.623	22097
875.751	22006
875.88	22128
876.008	22246
876.136	22310
876.265	22470
876.393	22599
876.521	22527
876.65	22542
876.778	22618
876.906	22432
877.034	22386
877.162	22489
877.29	22478
877.418	22405
877.546	22314
877.674	22535
877.802	22386
877.93	22481
878.058	22360
878.185	22265
878.313	22348
878.441	22424
878.568	22185
878.696	22356
878.824	22280
878.951	22542
879.079	22653
879.206	22755
879.333	22641
879.461	22489
879.588	22535
879.715	22538
879.842	22816
879.97	22478
880.097	22341
880.224	22303
880.351	22394
880.478	22268
880.605	22272
880.732	22268
880.859	22489
880.986	22291
881.112	22230
881.239	22131
881.366	21998
881.493	21873
881.619	21774
881.746	21876
881.872	21808
881.999	21850
882.125	21812
882.252	21827
882.378	21724
882.505	21857
882.631	21717
882.757	21568
882.883	21701
883.01	21557
883.136	21561
883.262	21477
883.388	21351
883.514	21523
883.64	21656
883.766	21462
883.892	21260
884.018	21298
884.143	21382
884.269	21671
884.395	21329
884.52	21093
884.646	21222
884.772	21226
884.897	20990
885.023	21222
885.148	21306
885.274	21275
885.399	21317
885.524	21233
885.65	21207
885.775	21131
885.9	20994
886.025	21207
886.15	21207
886.275	21176
886.4	21028
886.525	21096
886.65	21150
886.775	21039
886.9	21214
887.025	21348
887.149	21199
887.274	20994
887.399	20914
887.523	20952
887.648	20834
887.773	20861
887.897	20990
888.021	21055
888.146	20842
888.27	20986
888.395	21116
888.519	20929
888.643	20807
888.767	20872
888.891	20807
889.015	20617
889.139	20804
889.263	20689
889.387	20724
889.511	20960
889.635	20941
889.759	20754
889.883	20788
890.006	20705
890.13	20800
890.254	20682
890.377	20598
890.501	20461
890.624	20545
890.748	20473
890.871	20381
890.995	20351
891.118	20282
891.241	20332
891.364	20320
891.488	20404
891.611	20275
891.734	20240
891.857	20320
891.98	20256
892.103	20271
892.226	20298
892.349	20339
892.471	20058
892.594	20134
892.717	20195
892.839	20202
892.962	20332
893.085	20202
893.207	20199
893.33	19993
893.452	20187
893.575	20286
893.697	20176
893.819	20275
893.941	20336
894.064	20381
894.186	20153
894.308	20077
894.43	20305
894.552	20336
894.674	20183
894.796	20130
894.918	20183
895.04	20248
895.161	20206
895.283	20225
895.405	20164
895.526	20039
895.648	20142
895.769	20320
895.891	20122
896.012	20259
896.134	20332
896.255	20248
896.376	20050
896.498	20122
896.619	20199
896.74	20218
896.861	20278
896.982	20552
897.103	20606
897.224	20450
897.345	20332
897.466	20332
897.587	20434
897.708	20560
897.828	20400
897.949	20415
898.07	20153
898.19	20336
898.311	20438
898.431	20339
898.552	20419
898.672	20408
898.792	20518
898.913	20476
899.033	20465
899.153	20073
899.273	20073
899.393	20214
899.513	20096
899.633	20088
899.753	20149
899.873	20065
899.993	20218
900.113	20081
900.232	20001
900.352	20039
900.472	20001
900.591	19830
900.711	19887
900.83	19864
900.95	20054
901.069	19978
901.189	19849
901.308	19651
901.427	19540
901.546	19426
901.665	19499
901.784	19559
901.904	19316
902.023	19217
902.141	19046
902.26	19053
902.379	19084
902.498	19008
902.617	18932
902.735	19008
902.854	18989
902.973	18928
903.091	18650
903.21	18650
903.328	18684
903.446	18570
903.565	18395
903.683	18490
903.801	18300
903.919	18395
904.038	18384
904.156	18254
904.274	18311
904.392	18201
904.51	18178
904.627	18270
904.745	18243
904.863	18254
904.981	18053
905.098	17908
905.216	17961
905.334	17954
905.451	17859
905.569	17973
905.686	17950
905.803	17961
905.921	17767
906.038	17684
906.155	17649
906.272	17699
906.389	17608
906.506	17490
906.623	17501
906.74	17596
906.857	17261
906.974	17463
907.091	17486
907.208	17646
907.324	17516
907.441	17474
907.557	17220
907.674	17174
907.79	17159
907.907	17094
908.023	17140
908.139	17322
908.256	17121
908.372	17064
908.488	16991
908.604	16934
908.72	16892
908.836	16805
908.952	16839
909.068	16889
909.184	16999
909.3	16900
909.415	16889
909.531	16896
909.647	16702
909.762	16615
909.878	16611
909.993	16573
910.108	16459
910.224	16550
910.339	16497
910.454	16474
910.57	16417
910.685	16367
910.8	16637
910.915	16592
911.03	16459
911.145	16211
911.259	16253
911.374	16238
911.489	16211
911.604	16105
911.718	15949
911.833	15922
911.947	15854
912.062	15641
912.176	15804
912.291	15911
912.405	15895
912.519	16063
912.633	16090
912.748	15926
912.862	15892
912.976	15743
913.09	15686
913.204	15717
913.318	15698
913.431	15842
913.545	15816
913.659	15793
913.772	15728
913.886	15622
914	15682
914.113	15591
914.226	15675
914.34	15629
914.453	15450
914.566	15572
914.68	15401
914.793	15420
914.906	15230
915.019	15249
915.132	15085
915.245	15222
915.358	15176
915.47	15207
915.583	15127
915.696	15100
915.809	15195
915.921	15321
916.034	15127
916.146	15024
916.259	15005
916.371	15123
916.483	15108
916.595	14963
916.708	15005
916.82	14986
916.932	14933
917.044	14891
917.156	14864
917.268	14834
917.38	14819
917.491	14754
917.603	14731
917.715	14830
917.826	14868
917.938	14731
918.049	14613
918.161	14811
918.272	14864
918.384	14910
918.495	14716
918.606	14629
918.717	14511
918.828	14549
918.939	14613
919.05	14503
919.161	14556
919.272	14393
919.383	14446
919.494	14556
919.604	14663
919.715	14594
919.826	14450
919.936	14465
920.047	14644
920.157	14564
920.267	14716
920.378	14499
920.488	14511
920.598	14693
920.708	14804
920.818	14667
920.928	14625
921.038	14792
921.148	14705
921.258	14507
921.368	14271
921.477	14271
921.587	14210
921.697	14092
921.806	14263
921.916	14039
922.025	13955
922.134	13860
922.244	13890
922.353	13986
922.462	13731
922.571	13704
922.68	13582
922.789	13662
922.898	13624
923.007	13502
923.116	13586
923.224	13559
923.333	13575
923.442	13343
923.55	13415
923.659	13411
923.767	13384
923.876	13350
923.984	13339
924.092	13236
924.201	13304
924.309	13369
924.417	13377
924.525	13285
924.633	13228
924.741	14115
924.849	13015
924.956	13126
925.064	13034
925.172	12909
925.279	12970
925.387	13038
925.494	12996
925.602	13126
925.709	12996
925.816	12840
925.924	12867
926.031	13046
926.138	12875
926.245	12943
926.352	12821
926.459	12920
926.566	12966
926.673	12787
926.779	12665
926.886	12726
926.993	12616
927.099	12479
927.206	12517
927.312	12498
927.419	12483
927.525	12403
927.631	12467
927.737	12388
927.843	12384
927.95	12201
928.056	12380
928.162	12414
928.267	12414
928.373	12966
928.479	12399
928.585	12235
928.69	12262
928.796	12342
928.901	12197
929.007	12076
929.112	12205
929.218	12178
929.323	12038
929.428	12038
929.533	12213
929.638	11996
929.743	12060
929.848	12064
929.953	12022
930.058	11904
930.163	11729
930.267	11783
930.372	11847
930.477	11821
930.581	11961
930.685	11752
930.79	11592
930.894	11653
930.998	11688
931.103	11752
931.207	11440
931.311	11277
931.415	11239
931.519	11022
931.623	10980
