Data from test_V78500241_81.txt Node
Date: Fri Mar 25 15:10:25 CST 2022
User: usil
Spectrometer: V785-0024
Trigger mode: 0
Integration Time (sec): 4.000000E-1
Scans to average: 1
Nonlinearity correction enabled: false
Boxcar width: 0
Storing dark spectrum: false
XAxis mode: Wavelengths
Number of Pixels in Spectrum: 1024
>>>>>Begin Spectral Data<<<<<
801.071	28630
801.214	28500
801.356	28303
801.499	28181
801.641	28192
801.783	28128
801.926	28188
802.068	28181
802.211	28006
802.353	27934
802.496	27770
802.638	27842
802.78	27660
802.923	27641
803.065	27595
803.208	27663
803.35	27610
803.492	27842
803.635	27819
803.777	27713
803.919	28002
804.061	28124
804.204	27865
804.346	27781
804.488	27679
804.63	27747
804.773	27625
804.915	27743
805.057	27857
805.199	27648
805.341	27819
805.483	28048
805.626	27732
805.768	27755
805.91	27804
806.052	27800
806.194	27823
806.336	28048
806.478	27903
806.62	27808
806.762	27861
806.904	28135
807.046	28333
807.188	28272
807.33	28303
807.472	28284
807.614	28162
807.756	28242
807.898	27918
808.04	28032
808.182	28131
808.324	28010
808.465	28097
808.607	28093
808.749	28314
808.891	28379
809.033	28379
809.174	28417
809.316	28489
809.458	28451
809.6	28360
809.741	28405
809.883	28443
810.025	28580
810.166	28542
810.308	28637
810.45	28428
810.591	28428
810.733	28257
810.875	28196
811.016	28192
811.158	28188
811.299	28375
811.441	28409
811.582	28386
811.724	28204
811.865	28291
812.007	28253
812.148	28375
812.29	28325
812.431	28588
812.573	28554
812.714	28656
812.855	28987
812.997	28824
813.138	29014
813.279	29033
813.421	28850
813.562	28782
813.703	28489
813.845	28341
813.986	28230
814.127	28124
814.268	27922
814.41	28010
814.551	27827
814.692	27956
814.833	27914
814.974	27808
815.115	27911
815.256	27656
815.397	27694
815.539	27747
815.68	27686
815.821	27648
815.962	27572
816.103	27557
816.244	27599
816.385	27519
816.526	27332
816.666	27176
816.807	27081
816.948	27100
817.089	27237
817.23	27077
817.371	27127
817.512	27001
817.653	26994
817.793	26994
817.934	26914
818.075	26948
818.216	27043
818.356	26940
818.497	26876
818.638	26667
818.778	26663
818.919	26659
819.06	26918
819.2	26769
819.341	27028
819.481	26826
819.622	27119
819.762	27127
819.903	27161
820.043	27051
820.184	27176
820.324	27150
820.465	27104
820.605	26990
820.746	27077
820.886	26918
821.026	27100
821.167	26986
821.307	27032
821.447	26883
821.588	26834
821.728	26731
821.868	26533
822.008	26469
822.149	26263
822.289	26271
822.429	26229
822.569	26084
822.709	26134
822.849	25795
822.99	25852
823.13	25753
823.27	25856
823.41	25632
823.55	25544
823.69	25571
823.83	25632
823.97	25510
824.11	25373
824.25	25419
824.389	25400
824.529	25491
824.669	25533
824.809	25613
824.949	25400
825.089	25487
825.228	25487
825.368	25206
825.508	25217
825.648	25320
825.787	25194
825.927	25194
826.067	25141
826.206	25160
826.346	25209
826.485	25327
826.625	25190
826.765	25426
826.904	25152
827.044	25038
827.183	24901
827.323	24779
827.462	24897
827.601	24973
827.741	24943
827.88	24837
828.02	24741
828.159	24707
828.298	24981
828.437	24966
828.577	24783
828.716	24989
828.855	24795
828.994	24642
829.134	24593
829.273	24604
829.412	24486
829.551	24494
829.69	24490
829.829	24574
829.968	24551
830.107	24536
830.246	24570
830.385	24441
830.524	24460
830.663	24308
830.802	24232
830.941	24114
831.08	24178
831.219	24235
831.357	24095
831.496	24304
831.635	24121
831.774	23999
831.913	23969
832.051	24030
832.19	23882
832.329	23912
832.467	23718
832.606	23646
832.744	23668
832.883	23817
833.022	23752
833.16	23623
833.299	23794
833.437	23726
833.576	23813
833.714	23695
833.852	23718
833.991	23760
834.129	23745
834.267	23893
834.406	23813
834.544	23695
834.682	23714
834.821	23786
834.959	23954
835.097	23672
835.235	23813
835.373	23691
835.511	23718
835.65	23710
835.788	23551
835.926	23315
836.064	23364
836.202	23402
836.34	23467
836.478	23570
836.615	23585
836.753	23547
836.891	23824
837.029	23653
837.167	23463
837.305	23440
837.443	23474
837.58	23341
837.718	23531
837.856	23269
837.993	23368
838.131	23463
838.269	23239
838.406	23353
838.544	23200
838.681	23018
838.819	22927
838.956	22812
839.094	22854
839.231	22908
839.369	22953
839.506	23246
839.643	23071
839.781	22679
839.918	22725
840.055	22653
840.193	22683
840.33	22656
840.467	22717
840.604	22702
840.742	22889
840.879	22527
841.016	22717
841.153	22554
841.29	22729
841.427	22679
841.564	22713
841.701	22725
841.838	22645
841.975	22527
842.112	22565
842.249	22421
842.385	22413
842.522	22580
842.659	22523
842.796	22390
842.933	22478
843.069	22363
843.206	22272
843.343	22356
843.479	22398
843.616	22276
843.752	22234
843.889	22200
844.025	22276
844.162	21964
844.298	22299
844.435	22112
844.571	22055
844.708	22150
844.844	22291
844.98	22253
845.117	22226
845.253	21998
845.389	21979
845.525	21930
845.661	22021
845.798	21816
845.934	21850
846.07	21751
846.206	21865
846.342	22090
846.478	21808
846.614	21629
846.75	21462
846.886	21576
847.022	21644
847.158	21545
847.294	21534
847.429	21694
847.565	21633
847.701	21690
847.837	21329
847.972	21233
848.108	21393
848.244	21351
848.379	21207
848.515	21085
848.65	21020
848.786	21131
848.921	21157
849.057	21230
849.192	21306
849.328	21150
849.463	21241
849.598	21020
849.734	21058
849.869	21013
850.004	20941
850.14	20910
850.275	20910
850.41	20868
850.545	20826
850.68	20838
850.815	20857
850.95	20891
851.085	20925
851.22	20979
851.355	20769
851.49	20880
851.625	20807
851.76	20754
851.895	20785
852.03	20712
852.165	20800
852.299	20914
852.434	20883
852.569	21020
852.703	20781
852.838	20910
852.973	20887
853.107	20937
853.242	20674
853.376	20590
853.511	20560
853.645	20590
853.78	20815
853.914	20678
854.048	20640
854.183	20556
854.317	20648
854.451	20971
854.585	20667
854.72	20701
854.854	20804
854.988	20564
855.122	20716
855.256	20488
855.39	20712
855.524	20708
855.658	20746
855.792	20648
855.926	20735
856.06	20590
856.194	20686
856.327	20625
856.461	20609
856.595	20625
856.729	20701
856.862	20777
856.996	20621
857.13	20689
857.263	20750
857.397	20735
857.53	20670
857.664	20587
857.797	20754
857.931	20830
858.064	20625
858.197	20708
858.331	20663
858.464	20419
858.597	20393
858.731	20541
858.864	20583
858.997	20594
859.13	20598
859.263	20579
859.396	20705
859.529	20537
859.662	20552
859.795	20454
859.928	20663
860.061	20613
860.194	20743
860.327	20579
860.46	20594
860.592	20636
860.725	20663
860.858	20659
860.99	20571
861.123	20434
861.256	20446
861.388	20549
861.521	21176
861.653	20587
861.786	20404
861.918	20385
862.05	20461
862.183	20514
862.315	20568
862.447	20651
862.58	20640
862.712	20267
862.844	20290
862.976	20431
863.108	20351
863.24	20830
863.372	20195
863.504	20294
863.636	20275
863.768	20263
863.9	20183
864.032	20263
864.164	20187
864.296	20290
864.428	20377
864.559	20400
864.691	20351
864.823	20305
864.954	20237
865.086	20252
865.217	20081
865.349	20157
865.48	19989
865.612	20164
865.743	20374
865.875	20248
866.006	20069
866.137	20161
866.269	20195
866.4	20180
866.531	20115
866.662	20012
866.793	20168
866.924	20164
867.055	20027
867.186	20183
867.317	20107
867.448	20039
867.579	20024
867.71	20046
867.841	19906
867.972	20050
868.103	20065
868.233	20119
868.364	20092
868.495	20225
868.625	20286
868.756	20476
868.886	20355
869.017	20347
869.147	20393
869.278	20362
869.408	20343
869.539	20214
869.669	20396
869.799	20328
869.929	20400
870.06	20427
870.19	20640
870.32	20686
870.45	20640
870.58	20815
870.71	20804
870.84	20769
870.97	20716
871.1	20716
871.23	20876
871.36	20883
871.489	20880
871.619	20944
871.749	20941
871.879	20944
872.008	21077
872.138	20910
872.267	20952
872.397	20826
872.526	20762
872.656	20705
872.785	20727
872.915	20819
873.044	21077
873.173	20902
873.303	21108
873.432	20937
873.561	21070
873.69	20990
873.819	20994
873.948	20998
874.077	20921
874.206	20982
874.335	20960
874.464	21024
874.593	21214
874.722	21112
874.851	21203
874.979	21279
875.108	21249
875.237	21226
875.365	21112
875.494	21321
875.623	21188
875.751	21207
875.88	21237
876.008	21332
876.136	21374
876.265	21682
876.393	21694
876.521	21701
876.65	21644
876.778	21644
876.906	21625
877.034	21542
877.162	21580
877.29	21473
877.418	21568
877.546	21511
877.674	21583
877.802	21545
877.93	21564
878.058	21633
878.185	21466
878.313	21656
878.441	21568
878.568	21420
878.696	21515
878.824	21538
878.951	21583
879.079	21694
879.206	21846
879.333	21675
879.461	21591
879.588	21785
879.715	21663
879.842	21766
879.97	21572
880.097	21294
880.224	21466
880.351	21473
880.478	21397
880.605	21294
880.732	21329
880.859	21671
880.986	21355
881.112	21420
881.239	21272
881.366	21207
881.493	21077
881.619	21055
881.746	21009
881.872	20929
881.999	20868
882.125	20880
882.252	21017
882.378	21039
882.505	21116
882.631	20804
882.757	20697
882.883	20727
883.01	20716
883.136	20697
883.262	20625
883.388	20412
883.514	20598
883.64	20743
883.766	20667
883.892	20442
884.018	20492
884.143	20549
884.269	20800
884.395	20431
884.52	20385
884.646	20465
884.772	20290
884.897	20259
885.023	20343
885.148	20366
885.274	20507
885.399	20450
885.524	20400
885.65	20339
885.775	20305
885.9	20282
886.025	20419
886.15	20332
886.275	20282
886.4	20259
886.525	20290
886.65	20263
886.775	20248
886.9	20423
887.025	20518
887.149	20358
887.274	20199
887.399	20039
887.523	20126
887.648	20138
887.773	19947
887.897	20180
888.021	20100
888.146	20039
888.27	20149
888.395	20202
888.519	19978
888.643	20183
888.767	20065
888.891	20005
889.015	19818
889.139	19944
889.263	19936
889.387	20122
889.511	20062
889.635	20035
889.759	19947
889.883	19864
890.006	19769
890.13	19856
890.254	19708
890.377	19833
890.501	19632
890.624	19651
890.748	19696
890.871	19392
890.995	19388
891.118	19312
891.241	19502
891.364	19525
891.488	19597
891.611	19472
891.734	19434
891.857	19468
891.98	19502
892.103	19518
892.226	19540
892.349	19480
892.471	19225
892.594	19422
892.717	19388
892.839	19358
892.962	19331
893.085	19457
893.207	19373
893.33	19179
893.452	19457
893.575	19373
893.697	19301
893.819	19464
893.941	19559
894.064	19537
894.186	19308
894.308	19168
894.43	19403
894.552	19457
894.674	19282
894.796	19381
894.918	19240
895.04	19312
895.161	19495
895.283	19468
895.405	19244
895.526	19362
895.648	19365
895.769	19426
895.891	19384
896.012	19457
896.134	19468
896.255	19453
896.376	19457
896.498	19403
896.619	19544
896.74	19381
896.861	19434
896.982	19742
897.103	19868
897.224	19609
897.345	19700
897.466	19590
897.587	19681
897.708	19708
897.828	19681
897.949	19529
898.07	19495
898.19	19613
898.311	19849
898.431	19556
898.552	19788
898.672	19769
898.792	19841
898.913	19605
899.033	19575
899.153	19396
899.273	19335
899.393	19377
899.513	19293
899.633	19343
899.753	19285
899.873	19183
899.993	19304
900.113	19259
900.232	19282
900.352	19278
900.472	19137
900.591	19061
900.711	19114
900.83	19050
900.95	19209
901.069	19175
901.189	19053
901.308	18875
901.427	18715
901.546	18707
901.665	18757
901.784	18741
901.904	18616
902.023	18528
902.141	18319
902.26	18171
902.379	18220
902.498	18289
902.617	18194
902.735	18273
902.854	18258
902.973	18163
903.091	17920
903.21	17882
903.328	17923
903.446	17840
903.565	17760
903.683	17733
903.801	17668
903.919	17771
904.038	17695
904.156	17459
904.274	17539
904.392	17490
904.51	17463
904.627	17478
904.745	17551
904.863	17505
904.981	17246
905.098	17117
905.216	17060
905.334	17098
905.451	17178
905.569	17147
905.686	17189
905.803	17132
905.921	16968
906.038	17018
906.155	17102
906.272	16900
906.389	16797
906.506	16588
906.623	16744
906.74	16649
906.857	16561
906.974	16698
907.091	16786
907.208	16839
907.324	16668
907.441	16596
907.557	16352
907.674	16481
907.79	16402
907.907	16268
908.023	16310
908.139	16394
908.256	16257
908.372	16299
908.488	16261
908.604	16215
908.72	16036
908.836	16116
908.952	16036
909.068	16181
909.184	16131
909.3	16055
909.415	16188
909.531	16044
909.647	15831
909.762	15854
909.878	15660
909.993	15751
910.108	15743
910.224	15694
910.339	15679
910.454	15709
910.57	15622
910.685	15542
910.8	15842
910.915	15698
911.03	15515
911.145	15340
911.259	15428
911.374	15405
911.489	15260
911.604	15138
911.718	15150
911.833	15074
911.947	15032
912.062	15036
912.176	15097
912.291	15070
912.405	15093
912.519	15279
912.633	15321
912.748	15100
912.862	15039
912.976	14948
913.09	14853
913.204	14800
913.318	14819
913.431	14899
913.545	14910
913.659	15066
913.772	14834
913.886	14788
914	14769
914.113	14758
914.226	14902
914.34	14674
914.453	14602
914.566	14746
914.68	14750
914.793	14644
914.906	14419
915.019	14374
915.132	14252
915.245	14271
915.358	14446
915.47	14476
915.583	14351
915.696	14400
915.809	14511
915.921	14568
916.034	14343
916.146	14237
916.259	14183
916.371	14313
916.483	14290
916.595	14351
916.708	14180
916.82	14237
916.932	14195
917.044	14164
917.156	14252
917.268	14149
917.38	14027
917.491	13963
917.603	14142
917.715	14103
917.826	14054
917.938	13970
918.049	13936
918.161	13909
918.272	14149
918.384	14161
918.495	14001
918.606	13826
918.717	13814
918.828	13803
918.939	13883
919.05	13685
919.161	13799
919.272	13620
919.383	13632
919.494	13791
919.604	13982
919.715	13795
919.826	13674
919.936	13761
920.047	13898
920.157	13769
920.267	13909
920.378	13689
920.488	13674
920.598	13894
920.708	14050
920.818	13807
920.928	13837
921.038	14073
921.148	14084
921.258	13753
921.368	13620
921.477	13529
921.587	13441
921.697	13377
921.806	13457
921.916	13407
922.025	13190
922.134	13171
922.244	13171
922.353	13255
922.462	13027
922.571	12924
922.68	12791
922.789	12776
922.898	12722
923.007	12753
923.116	12741
923.224	12783
923.333	12707
923.442	12582
923.55	12597
923.659	12608
923.767	12715
923.876	12521
923.984	12662
924.092	12525
924.201	12582
924.309	12536
924.417	12563
924.525	12536
924.633	12445
924.741	13228
924.849	12346
924.956	12498
925.064	12292
925.172	12148
925.279	12148
925.387	12346
925.494	12330
925.602	12350
925.709	12292
925.816	12213
925.924	12190
926.031	12213
926.138	12175
926.245	12251
926.352	12102
926.459	12254
926.566	12258
926.673	12163
926.779	11973
926.886	12053
926.993	11950
927.099	11840
927.206	11745
927.312	11870
927.419	11817
927.525	11859
927.631	11923
927.737	11695
927.843	11714
927.95	11600
928.056	11611
928.162	11684
928.267	11676
928.373	12213
928.479	11741
928.585	11512
928.69	11665
928.796	11600
928.901	11509
929.007	11474
929.112	11554
929.218	11471
929.323	11455
929.428	11353
929.533	11478
929.638	11349
929.743	11337
929.848	11474
929.953	11402
930.058	11284
930.163	11181
930.267	11140
930.372	11292
930.477	11083
930.581	11303
930.685	11121
930.79	11041
930.894	11048
930.998	10911
931.103	11105
931.207	10698
931.311	10599
931.415	10634
931.519	10356
931.623	10363
