Data from test_V78500241_3023.txt Node
Date: Fri Mar 25 15:30:54 CST 2022
User: usil
Spectrometer: V785-0024
Trigger mode: 0
Integration Time (sec): 4.000000E-1
Scans to average: 1
Nonlinearity correction enabled: false
Boxcar width: 0
Storing dark spectrum: false
XAxis mode: Wavelengths
Number of Pixels in Spectrum: 1024
>>>>>Begin Spectral Data<<<<<
801.071	27043
801.214	27382
801.356	26979
801.499	26868
801.641	26689
801.783	26746
801.926	26773
802.068	26781
802.211	26587
802.353	26667
802.496	26492
802.638	26488
802.78	26446
802.923	26271
803.065	26393
803.208	26267
803.35	26442
803.492	26404
803.635	26503
803.777	26492
803.919	26556
804.061	26925
804.204	26518
804.346	26495
804.488	26488
804.63	26602
804.773	26374
804.915	26644
805.057	26632
805.199	26560
805.341	26651
805.483	26568
805.626	26746
805.768	26511
805.91	26731
806.052	26644
806.194	26613
806.336	26785
806.478	26594
806.62	26674
806.762	26769
806.904	26876
807.046	27112
807.188	27180
807.33	27146
807.472	27203
807.614	27089
807.756	26994
807.898	26918
808.04	26902
808.182	26758
808.324	26944
808.465	26952
808.607	27287
808.749	27310
808.891	27340
809.033	27325
809.174	27348
809.316	27199
809.458	27321
809.6	27161
809.741	27367
809.883	27485
810.025	27458
810.166	27504
810.308	27618
810.45	27431
810.591	27424
810.733	27180
810.875	27325
811.016	27287
811.158	27199
811.299	27389
811.441	27424
811.582	27564
811.724	27420
811.865	27264
812.007	27310
812.148	27222
812.29	27397
812.431	27507
812.573	27747
812.714	27789
812.855	27720
812.997	27937
813.138	27899
813.279	27895
813.421	27762
813.562	27804
813.703	27561
813.845	27389
813.986	27154
814.127	26952
814.268	26998
814.41	27024
814.551	26872
814.692	26994
814.833	26819
814.974	26769
815.115	27051
815.256	26861
815.397	26921
815.539	26872
815.68	26739
815.821	26560
815.962	26762
816.103	26689
816.244	26552
816.385	26396
816.526	26503
816.666	26305
816.807	26157
816.948	26195
817.089	26358
817.23	26256
817.371	26180
817.512	26244
817.653	26161
817.793	26111
817.934	26191
818.075	26225
818.216	26370
818.356	26077
818.497	25989
818.638	25925
818.778	25997
818.919	25868
819.06	25989
819.2	26005
819.341	26218
819.481	26130
819.622	26362
819.762	26488
819.903	26450
820.043	26393
820.184	26248
820.324	26294
820.465	26404
820.605	26259
820.746	26313
820.886	26191
821.026	26343
821.167	26187
821.307	26282
821.447	26191
821.588	25997
821.728	25982
821.868	25841
822.008	25609
822.149	25689
822.289	25670
822.429	25301
822.569	25362
822.709	25472
822.849	25225
822.99	25099
823.13	25027
823.27	25168
823.41	25034
823.55	24806
823.69	25046
823.83	24890
823.97	24856
824.11	24688
824.25	24612
824.389	24772
824.529	24745
824.669	24772
824.809	24791
824.949	24760
825.089	24924
825.228	24825
825.368	24627
825.508	24597
825.648	24639
825.787	24601
825.927	24677
826.067	24688
826.206	24566
826.346	24730
826.485	24741
826.625	24661
826.765	24700
826.904	24700
827.044	24372
827.183	24601
827.323	24403
827.462	24376
827.601	24369
827.741	24338
827.88	24357
828.02	24194
828.159	24205
828.298	24304
828.437	24418
828.577	24270
828.716	24467
828.855	24197
828.994	23870
829.134	24015
829.273	24083
829.412	23946
829.551	23946
829.69	24133
829.829	24182
829.968	24064
830.107	24064
830.246	24030
830.385	23977
830.524	23984
830.663	23821
830.802	23802
830.941	23665
831.08	23657
831.219	23764
831.357	23737
831.496	23923
831.635	23775
831.774	23490
831.913	23531
832.051	23448
832.19	23531
832.329	23539
832.467	23364
832.606	23372
832.744	23239
832.883	23395
833.022	23337
833.16	23356
833.299	23429
833.437	23459
833.576	23337
833.714	23463
833.852	23345
833.991	23425
834.129	23452
834.267	23497
834.406	23337
834.544	23497
834.682	23395
834.821	23383
834.959	23657
835.097	23444
835.235	23478
835.373	23250
835.511	23474
835.65	23250
835.788	23200
835.926	23136
836.064	23014
836.202	23067
836.34	23170
836.478	23261
836.615	23227
836.753	23181
836.891	23356
837.029	23341
837.167	23166
837.305	23098
837.443	23151
837.58	23132
837.718	23113
837.856	23052
837.993	23010
838.131	23136
838.269	22976
838.406	22965
838.544	23044
838.681	22717
838.819	22702
838.956	22645
839.094	22683
839.231	22615
839.369	22736
839.506	22877
839.643	22782
839.781	22577
839.918	22653
840.055	22588
840.193	22523
840.33	22489
840.467	22538
840.604	22550
840.742	22755
840.879	22485
841.016	22535
841.153	22314
841.29	22550
841.427	22561
841.564	22485
841.701	22481
841.838	22470
841.975	22356
842.112	22367
842.249	22337
842.385	22230
842.522	22615
842.659	22337
842.796	22272
842.933	22363
843.069	22215
843.206	22124
843.343	22272
843.479	22246
843.616	22249
843.752	22120
843.889	22048
844.025	22200
844.162	21987
844.298	22002
844.435	21960
844.571	21953
844.708	22044
844.844	22188
844.98	22101
845.117	22120
845.253	21884
845.389	21972
845.525	21945
845.661	21838
845.798	21736
845.934	21793
846.07	21724
846.206	21793
846.342	21926
846.478	21660
846.614	21622
846.75	21348
846.886	21393
847.022	21595
847.158	21523
847.294	21583
847.429	21515
847.565	21469
847.701	21774
847.837	21184
847.972	21241
848.108	21294
848.244	21317
848.379	21150
848.515	21055
848.65	21169
848.786	21093
848.921	21093
849.057	21195
849.192	21138
849.328	21157
849.463	21218
849.598	21077
849.734	21020
849.869	21005
850.004	20906
850.14	20838
850.275	20967
850.41	20800
850.545	20785
850.68	20891
850.815	20899
850.95	20773
851.085	20937
851.22	20986
851.355	20872
851.49	20880
851.625	20826
851.76	20815
851.895	20902
852.03	20739
852.165	20838
852.299	20944
852.434	20971
852.569	20788
852.703	20857
852.838	20906
852.973	21066
853.107	20864
853.242	20807
853.376	20663
853.511	20564
853.645	20568
853.78	20697
853.914	20746
854.048	20762
854.183	20663
854.317	20735
854.451	20788
854.585	20625
854.72	20655
854.854	20705
854.988	20659
855.122	20811
855.256	20613
855.39	20693
855.524	20682
855.658	20727
855.792	20762
855.926	20689
856.06	20792
856.194	20727
856.327	20644
856.461	20655
856.595	20606
856.729	20617
856.862	20834
856.996	20758
857.13	20788
857.263	20933
857.397	20800
857.53	20625
857.664	20659
857.797	20788
857.931	20792
858.064	20651
858.197	20769
858.331	20667
858.464	20579
858.597	20697
858.731	20682
858.864	20720
858.997	20674
859.13	20674
859.263	20727
859.396	20746
859.529	20670
859.662	20503
859.795	20609
859.928	20762
860.061	20785
860.194	20777
860.327	20712
860.46	20724
860.592	20720
860.725	20762
860.858	20792
860.99	20769
861.123	20560
861.256	20602
861.388	20511
861.521	21268
861.653	20450
861.786	20545
861.918	20442
862.05	20469
862.183	20587
862.315	20705
862.447	20667
862.58	20575
862.712	20385
862.844	20351
862.976	20438
863.108	20476
863.24	20754
863.372	20317
863.504	20347
863.636	20396
863.768	20423
863.9	20324
864.032	20396
864.164	20332
864.296	20377
864.428	20442
864.559	20434
864.691	20465
864.823	20404
864.954	20461
865.086	20355
865.217	20309
865.349	20221
865.48	20237
865.612	20248
865.743	20431
865.875	20286
866.006	20240
866.137	20377
866.269	20366
866.4	20248
866.531	20298
866.662	20195
866.793	20164
866.924	20290
867.055	20294
867.186	20286
867.317	20275
867.448	20058
867.579	20218
867.71	20161
867.841	20263
867.972	20290
868.103	20176
868.233	20248
868.364	20313
868.495	20294
868.625	20454
868.756	20484
868.886	20431
869.017	20518
869.147	20613
869.278	20473
869.408	20457
869.539	20377
869.669	20541
869.799	20522
869.929	20590
870.06	20602
870.19	20769
870.32	20842
870.45	20861
870.58	20948
870.71	20948
870.84	20956
870.97	20777
871.1	20769
871.23	21013
871.36	21116
871.489	20975
871.619	21055
871.749	21055
871.879	21055
872.008	21138
872.138	21066
872.267	21036
872.397	20868
872.526	20868
872.656	20830
872.785	20880
872.915	21112
873.044	21108
873.173	21001
873.303	21100
873.432	21165
873.561	21142
873.69	21055
873.819	21157
873.948	21093
874.077	21058
874.206	21081
874.335	21214
874.464	21310
874.593	21336
874.722	21321
874.851	21310
874.979	21367
875.108	21306
875.237	21310
875.365	21218
875.494	21382
875.623	21488
875.751	21321
875.88	21439
876.008	21435
876.136	21671
876.265	21686
876.393	21892
876.521	21736
876.65	21915
876.778	21800
876.906	21759
877.034	21755
877.162	21633
877.29	21610
877.418	21724
877.546	21633
877.674	21610
877.802	21736
877.93	21682
878.058	21583
878.185	21625
878.313	21656
878.441	21663
878.568	21458
878.696	21690
878.824	21629
878.951	21739
879.079	21770
879.206	21972
879.333	21831
879.461	21762
879.588	21850
879.715	21911
879.842	21998
879.97	21705
880.097	21545
880.224	21420
880.351	21557
880.478	21481
880.605	21496
880.732	21507
880.859	21656
880.986	21572
881.112	21614
881.239	21469
881.366	21256
881.493	21283
881.619	20994
881.746	21116
881.872	21081
881.999	21112
882.125	21085
882.252	21074
882.378	21176
882.505	21275
882.631	20883
882.757	20815
882.883	20876
883.01	20887
883.136	20743
883.262	20743
883.388	20587
883.514	20785
883.64	20864
883.766	20773
883.892	20583
884.018	20530
884.143	20842
884.269	20834
884.395	20514
884.52	20400
884.646	20419
884.772	20377
884.897	20275
885.023	20492
885.148	20632
885.274	20689
885.399	20507
885.524	20488
885.65	20442
885.775	20465
885.9	20393
886.025	20564
886.15	20469
886.275	20377
886.4	20362
886.525	20309
886.65	20400
886.775	20358
886.9	20537
887.025	20541
887.149	20419
887.274	20168
887.399	20298
887.523	20214
887.648	20016
887.773	20077
887.897	20221
888.021	20229
888.146	20142
888.27	20244
888.395	20282
888.519	20111
888.643	20290
888.767	20377
888.891	20149
889.015	20020
889.139	20138
889.263	20058
889.387	20145
889.511	20275
889.635	20142
889.759	19982
889.883	20084
890.006	20084
890.13	20115
890.254	19955
890.377	20016
890.501	19818
890.624	19803
890.748	19830
890.871	19712
890.995	19571
891.118	19510
891.241	19632
891.364	19666
891.488	19860
891.611	19609
891.734	19559
891.857	19647
891.98	19590
892.103	19685
892.226	19609
892.349	19544
892.471	19441
892.594	19540
892.717	19681
892.839	19476
892.962	19556
893.085	19510
893.207	19544
893.33	19426
893.452	19350
893.575	19518
893.697	19491
893.819	19601
893.941	19696
894.064	19605
894.186	19472
894.308	19358
894.43	19620
894.552	19677
894.674	19628
894.796	19480
894.918	19540
895.04	19502
895.161	19635
895.283	19556
895.405	19445
895.526	19449
895.648	19609
895.769	19384
895.891	19575
896.012	19578
896.134	19567
896.255	19430
896.376	19544
896.498	19655
896.619	19624
896.74	19514
896.861	19559
896.982	19841
897.103	19818
897.224	19833
897.345	19772
897.466	19742
897.587	19868
897.708	19837
897.828	19826
897.949	19681
898.07	19597
898.19	19685
898.311	19795
898.431	19795
898.552	19765
898.672	19925
898.792	19807
898.913	19811
899.033	19647
899.153	19651
899.273	19533
899.393	19483
899.513	19605
899.633	19647
899.753	19514
899.873	19506
899.993	19643
900.113	19453
900.232	19419
900.352	19491
900.472	19240
900.591	19244
900.711	19301
900.83	19316
900.95	19460
901.069	19460
901.189	19129
901.308	18962
901.427	18863
901.546	18985
901.665	19015
901.784	18985
901.904	18806
902.023	18540
902.141	18498
902.26	18448
902.379	18540
902.498	18448
902.617	18384
902.735	18490
902.854	18410
902.973	18292
903.091	18144
903.21	18152
903.328	18102
903.446	17958
903.565	17950
903.683	17897
903.801	17843
903.919	17756
904.038	17813
904.156	17748
904.274	17733
904.392	17668
904.51	17630
904.627	17589
904.745	17718
904.863	17760
904.981	17535
905.098	17410
905.216	17398
905.334	17448
905.451	17303
905.569	17220
905.686	17360
905.803	17330
905.921	17288
906.038	17258
906.155	17147
906.272	16995
906.389	17056
906.506	16923
906.623	16911
906.74	16831
906.857	16854
906.974	16759
907.091	16934
907.208	16995
907.324	16915
907.441	16812
907.557	16584
907.674	16649
907.79	16481
907.907	16535
908.023	16637
908.139	16653
908.256	16516
908.372	16565
908.488	16481
908.604	16363
908.72	16284
908.836	16382
908.952	16402
909.068	16303
909.184	16455
909.3	16333
909.415	16344
909.531	16261
909.647	16112
909.762	16010
909.878	16074
909.993	16192
910.108	15994
910.224	15953
910.339	16006
910.454	15960
910.57	15911
910.685	15816
910.8	15972
910.915	16067
911.03	15892
911.145	15789
911.259	15694
911.374	15682
911.489	15507
911.604	15595
911.718	15420
911.833	15416
911.947	15401
912.062	15351
912.176	15424
912.291	15481
912.405	15420
912.519	15530
912.633	15545
912.748	15393
912.862	15367
912.976	15199
913.09	15055
913.204	15135
913.318	15359
913.431	15313
913.545	15275
913.659	15264
913.772	15184
913.886	15062
914	15024
914.113	15047
914.226	15230
914.34	15085
914.453	15024
914.566	15043
914.68	14990
914.793	14857
914.906	14769
915.019	14545
915.132	14518
915.245	14750
915.358	14629
915.47	14724
915.583	14602
915.696	14667
915.809	14712
915.921	14712
916.034	14549
916.146	14587
916.259	14507
916.371	14716
916.483	14610
916.595	14552
916.708	14476
916.82	14522
916.932	14396
917.044	14461
917.156	14396
917.268	14290
917.38	14431
917.491	14252
917.603	14298
917.715	14374
917.826	14389
917.938	14290
918.049	14187
918.161	14244
918.272	14438
918.384	14415
918.495	14229
918.606	14187
918.717	13986
918.828	14107
918.939	14069
919.05	14126
919.161	14142
919.272	13868
919.383	13963
919.494	14100
919.604	14290
919.715	14043
919.826	14027
919.936	14065
920.047	14050
920.157	14035
920.267	14233
920.378	14103
920.488	14001
920.598	14153
920.708	14298
920.818	14218
920.928	14180
921.038	14336
921.148	14290
921.258	13974
921.368	13970
921.477	13731
921.587	13791
921.697	13677
921.806	13803
921.916	13655
922.025	13438
922.134	13419
922.244	13480
922.353	13441
922.462	13396
922.571	13331
922.68	13110
922.789	13065
922.898	13137
923.007	13118
923.116	13175
923.224	13034
923.333	13107
923.442	12935
923.55	13000
923.659	12924
923.767	13027
923.876	12913
923.984	12882
924.092	12802
924.201	12901
924.309	12871
924.417	12791
924.525	12787
924.633	12810
924.741	13533
924.849	12601
924.956	12734
925.064	12502
925.172	12410
925.279	12479
925.387	12509
925.494	12445
925.602	12604
925.709	12566
925.816	12399
925.924	12494
926.031	12642
926.138	12410
926.245	12471
926.352	12357
926.459	12627
926.566	12544
926.673	12433
926.779	12346
926.886	12296
926.993	12144
927.099	12201
927.206	12064
927.312	12079
927.419	12190
927.525	12163
927.631	12163
927.737	12060
927.843	11965
927.95	11931
928.056	11942
928.162	11992
928.267	12087
928.373	12578
928.479	12030
928.585	11866
928.69	11912
928.796	12007
928.901	11916
929.007	11684
929.112	11836
929.218	11824
929.323	11665
929.428	11581
929.533	11805
929.638	11596
929.743	11665
929.848	11630
929.953	11623
930.058	11562
930.163	11364
930.267	11391
930.372	11547
930.477	11337
930.581	11615
930.685	11440
930.79	11296
930.894	11383
930.998	11299
931.103	11528
931.207	10976
931.311	10877
931.415	10862
931.519	10733
931.623	10698
