Data from test_V78500241_1824.txt Node
Date: Fri Mar 25 15:22:33 CST 2022
User: usil
Spectrometer: V785-0024
Trigger mode: 0
Integration Time (sec): 4.000000E-1
Scans to average: 1
Nonlinearity correction enabled: false
Boxcar width: 0
Storing dark spectrum: false
XAxis mode: Wavelengths
Number of Pixels in Spectrum: 1024
>>>>>Begin Spectral Data<<<<<
801.071	27861
801.214	27861
801.356	27473
801.499	27519
801.641	27408
801.783	27412
801.926	27420
802.068	27382
802.211	27412
802.353	27237
802.496	27203
802.638	27085
802.78	26952
802.923	27150
803.065	26963
803.208	26944
803.35	27005
803.492	27123
803.635	27351
803.777	27176
803.919	27233
804.061	27591
804.204	27355
804.346	27180
804.488	27089
804.63	27142
804.773	27173
804.915	27336
805.057	27382
805.199	27192
805.341	27313
805.483	27405
805.626	27306
805.768	27173
805.91	27351
806.052	27325
806.194	27241
806.336	27606
806.478	27321
806.62	27256
806.762	27340
806.904	27713
807.046	27835
807.188	27793
807.33	27747
807.472	27865
807.614	27816
807.756	27857
807.898	27690
808.04	27599
808.182	27701
808.324	27682
808.465	27614
808.607	27979
808.749	27964
808.891	28109
809.033	28025
809.174	28074
809.316	27914
809.458	27899
809.6	28032
809.741	28158
809.883	28044
810.025	28143
810.166	28181
810.308	28337
810.45	28162
810.591	28158
810.733	28097
810.875	27880
811.016	27705
811.158	27831
811.299	28029
811.441	28090
811.582	28010
811.724	27956
811.865	27918
812.007	27934
812.148	28029
812.29	28044
812.431	28154
812.573	28303
812.714	28409
812.855	28432
812.997	28447
813.138	28805
813.279	28382
813.421	28485
813.562	28379
813.703	28261
813.845	28101
813.986	27816
814.127	27759
814.268	27667
814.41	27633
814.551	27561
814.692	27633
814.833	27572
814.974	27633
815.115	27671
815.256	27633
815.397	27656
815.539	27572
815.68	27458
815.821	27469
815.962	27386
816.103	27348
816.244	27279
816.385	27188
816.526	27332
816.666	26952
816.807	26868
816.948	27081
817.089	27036
817.23	26960
817.371	26895
817.512	26876
817.653	26762
817.793	26868
817.934	27005
818.075	26921
818.216	27119
818.356	26864
818.497	26880
818.638	26667
818.778	26598
818.919	26872
819.06	26724
819.2	26773
819.341	27066
819.481	26979
819.622	26994
819.762	27279
819.903	27260
820.043	27013
820.184	27214
820.324	27268
820.465	27173
820.605	27085
820.746	27096
820.886	27020
821.026	26967
821.167	26925
821.307	26990
821.447	27005
821.588	26883
821.728	26762
821.868	26609
822.008	26438
822.149	26461
822.289	26518
822.429	26065
822.569	26142
822.709	26103
822.849	25959
822.99	25997
823.13	25925
823.27	25940
823.41	25902
823.55	25674
823.69	25723
823.83	25727
823.97	25674
824.11	25438
824.25	25563
824.389	25529
824.529	25483
824.669	25613
824.809	25712
824.949	25708
825.089	25601
825.228	25681
825.368	25464
825.508	25457
825.648	25563
825.787	25483
825.927	25594
826.067	25563
826.206	25491
826.346	25586
826.485	25510
826.625	25491
826.765	25548
826.904	25392
827.044	25171
827.183	25198
827.323	25164
827.462	25251
827.601	25316
827.741	25156
827.88	25236
828.02	25000
828.159	25103
828.298	25107
828.437	25213
828.577	25168
828.716	25236
828.855	25107
828.994	25019
829.134	24871
829.273	24913
829.412	24947
829.551	24856
829.69	24772
829.829	24981
829.968	25031
830.107	24939
830.246	24882
830.385	24814
830.524	25034
830.663	24703
830.802	24688
830.941	24441
831.08	24505
831.219	24388
831.357	24517
831.496	24703
831.635	24582
831.774	24479
831.913	24494
832.051	24186
832.19	24346
832.329	24296
832.467	24292
832.606	24232
832.744	24163
832.883	24091
833.022	24232
833.16	24083
833.299	24243
833.437	24197
833.576	24155
833.714	24285
833.852	24403
833.991	24220
834.129	24285
834.267	24262
834.406	24232
834.544	24296
834.682	24194
834.821	24186
834.959	24452
835.097	24338
835.235	24213
835.373	24102
835.511	24209
835.65	24174
835.788	24045
835.926	24068
836.064	23973
836.202	24068
836.34	23973
836.478	24129
836.615	23984
836.753	24076
836.891	24285
837.029	24125
837.167	24041
837.305	24053
837.443	24114
837.58	23999
837.718	23920
837.856	23927
837.993	23794
838.131	23992
838.269	23764
838.406	23870
838.544	23733
838.681	23642
838.819	23474
838.956	23444
839.094	23452
839.231	23463
839.369	23687
839.506	23821
839.643	23733
839.781	23417
839.918	23372
840.055	23501
840.193	23387
840.33	23254
840.467	23330
840.604	23516
840.742	23615
840.879	23349
841.016	23284
841.153	23216
841.29	23440
841.427	23433
841.564	23318
841.701	23360
841.838	23269
841.975	23269
842.112	23155
842.249	23269
842.385	23090
842.522	23235
842.659	23113
842.796	23052
842.933	23147
843.069	22987
843.206	23117
843.343	23178
843.479	23170
843.616	23060
843.752	22965
843.889	22869
844.025	23060
844.162	22881
844.298	22987
844.435	22889
844.571	22850
844.708	22885
844.844	23003
844.98	23071
845.117	22919
845.253	22755
845.389	22694
845.525	22771
845.661	22694
845.798	22679
845.934	22717
846.07	22584
846.206	22630
846.342	22656
846.478	22550
846.614	22440
846.75	22291
846.886	22333
847.022	22424
847.158	22367
847.294	22234
847.429	22417
847.565	22344
847.701	22535
847.837	22055
847.972	21934
848.108	22215
848.244	22192
848.379	21918
848.515	21903
848.65	21915
848.786	21941
848.921	21975
849.057	21884
849.192	22029
849.328	22006
849.463	21949
849.598	21953
849.734	21766
849.869	21819
850.004	21641
850.14	21667
850.275	21618
850.41	21618
850.545	21625
850.68	21679
850.815	21675
850.95	21739
851.085	21846
851.22	21747
851.355	21652
851.49	21778
851.625	21694
851.76	21709
851.895	21694
852.03	21701
852.165	21610
852.299	21675
852.434	21812
852.569	21648
852.703	21641
852.838	21732
852.973	21755
853.107	21781
853.242	21523
853.376	21462
853.511	21378
853.645	21523
853.78	21542
853.914	21610
854.048	21332
854.183	21424
854.317	21587
854.451	21682
854.585	21447
854.72	21428
854.854	21595
854.988	21504
855.122	21485
855.256	21351
855.39	21583
855.524	21618
855.658	21526
855.792	21492
855.926	21568
856.06	21504
856.194	21618
856.327	21492
856.461	21519
856.595	21439
856.729	21542
856.862	21557
856.996	21466
857.13	21428
857.263	21633
857.397	21507
857.53	21526
857.664	21576
857.797	21515
857.931	21637
858.064	21523
858.197	21625
858.331	21576
858.464	21367
858.597	21382
858.731	21538
858.864	21447
858.997	21523
859.13	21420
859.263	21534
859.396	21542
859.529	21538
859.662	21420
859.795	21488
859.928	21424
860.061	21717
860.194	21656
860.327	21523
860.46	21553
860.592	21663
860.725	21671
860.858	21580
860.99	21507
861.123	21393
861.256	21367
861.388	21454
861.521	22086
861.653	21466
861.786	21317
861.918	21291
862.05	21408
862.183	21439
862.315	21507
862.447	21549
862.58	21412
862.712	21192
862.844	21127
862.976	21294
863.108	21344
863.24	21561
863.372	21142
863.504	21203
863.636	21081
863.768	21203
863.9	21237
864.032	21146
864.164	21192
864.296	21184
864.428	21329
864.559	21329
864.691	21264
864.823	21211
864.954	21070
865.086	21146
865.217	20967
865.349	20998
865.48	21062
865.612	21043
865.743	21192
865.875	21119
866.006	20971
866.137	21123
866.269	21230
866.4	21081
866.531	21104
866.662	21028
866.793	21055
866.924	21104
867.055	21028
867.186	21020
867.317	20918
867.448	20998
867.579	21089
867.71	21020
867.841	20963
867.972	21043
868.103	20998
868.233	21066
868.364	21146
868.495	21287
868.625	21237
868.756	21481
868.886	21264
869.017	21237
869.147	21317
869.278	21424
869.408	21241
869.539	21291
869.669	21420
869.799	21233
869.929	21340
870.06	21420
870.19	21614
870.32	21466
870.45	21545
870.58	21762
870.71	21728
870.84	21720
870.97	21618
871.1	21694
871.23	21838
871.36	21945
871.489	21766
871.619	21747
871.749	21789
871.879	21873
872.008	22044
872.138	21823
872.267	21838
872.397	21743
872.526	21778
872.656	21770
872.785	21732
872.915	21789
873.044	21899
873.173	21869
873.303	22006
873.432	21880
873.561	21956
873.69	21918
873.819	21960
873.948	21960
874.077	21880
874.206	21717
874.335	21960
874.464	21968
874.593	22200
874.722	21991
874.851	22109
874.979	22013
875.108	22101
875.237	21994
875.365	21949
875.494	22131
875.623	22192
875.751	22051
875.88	22067
876.008	22295
876.136	22143
876.265	22409
876.393	22569
876.521	22599
876.65	22565
876.778	22523
876.906	22371
877.034	22398
877.162	22474
877.29	22363
877.418	22424
877.546	22516
877.674	22451
877.802	22466
877.93	22409
878.058	22386
878.185	22287
878.313	22440
878.441	22432
878.568	22272
878.696	22329
878.824	22500
878.951	22500
879.079	22554
879.206	22740
879.333	22596
879.461	22527
879.588	22519
879.715	22557
879.842	22839
879.97	22565
880.097	22185
880.224	22207
880.351	22268
880.478	22272
880.605	22188
880.732	22188
880.859	22592
880.986	22299
881.112	22185
881.239	22124
881.366	21846
881.493	21953
881.619	21808
881.746	22010
881.872	21956
881.999	21816
882.125	21846
882.252	21892
882.378	21789
882.505	21861
882.631	21781
882.757	21603
882.883	21675
883.01	21614
883.136	21568
883.262	21397
883.388	21329
883.514	21420
883.64	21572
883.766	21553
883.892	21329
884.018	21317
884.143	21447
884.269	21549
884.395	21363
884.52	21074
884.646	21161
884.772	21157
884.897	21161
885.023	21252
885.148	21275
885.274	21317
885.399	21264
885.524	21192
885.65	21184
885.775	21230
885.9	21222
886.025	21287
886.15	21195
886.275	21154
886.4	21135
886.525	21066
886.65	21173
886.775	21123
886.9	21195
887.025	21477
887.149	21135
887.274	20910
887.399	21020
887.523	20982
887.648	20834
887.773	21001
887.897	20979
888.021	20956
888.146	20910
888.27	21047
888.395	21127
888.519	20952
888.643	21013
888.767	20956
888.891	20746
889.015	20743
889.139	20781
889.263	20743
889.387	20895
889.511	20929
889.635	20834
889.759	20819
889.883	20606
890.006	20686
890.13	20872
890.254	20583
890.377	20568
890.501	20549
890.624	20480
890.748	20594
890.871	20362
890.995	20320
891.118	20355
891.241	20305
891.364	20393
891.488	20431
891.611	20339
891.734	20396
891.857	20317
891.98	20294
892.103	20484
892.226	20385
892.349	20332
892.471	20100
892.594	20263
892.717	20164
892.839	20172
892.962	20244
893.085	20210
893.207	20202
893.33	20092
893.452	20157
893.575	20225
893.697	20195
893.819	20476
893.941	20355
894.064	20294
894.186	20149
894.308	20130
894.43	20336
894.552	20305
894.674	20180
894.796	20054
894.918	20081
895.04	20199
895.161	20267
895.283	20309
895.405	20016
895.526	20259
895.648	20153
895.769	20221
895.891	20191
896.012	20244
896.134	20313
896.255	20202
896.376	20088
896.498	20267
896.619	20290
896.74	20244
896.861	20332
896.982	20457
897.103	20644
897.224	20419
897.345	20469
897.466	20358
897.587	20495
897.708	20552
897.828	20484
897.949	20370
898.07	20206
898.19	20370
898.311	20560
898.431	20461
898.552	20511
898.672	20480
898.792	20457
898.913	20499
899.033	20355
899.153	20206
899.273	20096
899.393	20100
899.513	20157
899.633	20149
899.753	20252
899.873	20046
899.993	20343
900.113	20130
900.232	20073
900.352	20176
900.472	20024
900.591	19887
900.711	20005
900.83	19875
900.95	19970
901.069	19982
901.189	19788
901.308	19616
901.427	19518
901.546	19476
901.665	19548
901.784	19525
901.904	19335
902.023	19240
902.141	19034
902.26	19145
902.379	19069
902.498	19012
902.617	18886
902.735	19072
902.854	18973
902.973	18916
903.091	18719
903.21	18597
903.328	18654
903.446	18635
903.565	18566
903.683	18642
903.801	18311
903.919	18403
904.038	18479
904.156	18300
904.274	18464
904.392	18285
904.51	18235
904.627	18194
904.745	18224
904.863	18361
904.981	17992
905.098	17923
905.216	17904
905.334	18011
905.451	17942
905.569	18022
905.686	18026
905.803	17969
905.921	17741
906.038	17832
906.155	17783
906.272	17608
906.389	17630
906.506	17505
906.623	17501
906.74	17414
906.857	17368
906.974	17433
907.091	17551
907.208	17520
907.324	17436
907.441	17337
907.557	17296
907.674	17132
907.79	17204
907.907	17117
908.023	17216
908.139	17197
908.256	17045
908.372	17067
908.488	17140
908.604	16965
908.72	16847
908.836	17014
908.952	16900
909.068	16889
909.184	17060
909.3	16927
909.415	16858
909.531	16873
909.647	16672
909.762	16569
909.878	16649
909.993	16596
910.108	16630
910.224	16618
910.339	16694
910.454	16375
910.57	16440
910.685	16333
910.8	16733
910.915	16577
911.03	16394
911.145	16276
911.259	16234
911.374	16196
911.489	16063
911.604	16086
911.718	15994
911.833	15960
911.947	15728
912.062	15751
912.176	15960
912.291	15907
912.405	15956
912.519	16063
912.633	16143
912.748	16093
912.862	15907
912.976	15842
913.09	15625
913.204	15732
913.318	15838
913.431	15819
913.545	15732
913.659	15850
913.772	15816
913.886	15523
914	15572
914.113	15675
914.226	15698
914.34	15625
914.453	15519
914.566	15545
914.68	15515
914.793	15469
914.906	15161
915.019	15195
915.132	15150
915.245	15222
915.358	15131
915.47	15237
915.583	15192
915.696	15154
915.809	15241
915.921	15359
916.034	15017
916.146	15131
916.259	15005
916.371	15180
916.483	15123
916.595	14967
916.708	15032
916.82	14986
916.932	14921
917.044	14925
917.156	14929
917.268	14845
917.38	14826
917.491	14800
917.603	14876
917.715	15005
917.826	14872
917.938	14758
918.049	14629
918.161	14796
918.272	14880
918.384	14849
918.495	14754
918.606	14705
918.717	14518
918.828	14583
918.939	14537
919.05	14476
919.161	14442
919.272	14324
919.383	14511
919.494	14530
919.604	14686
919.715	14514
919.826	14457
919.936	14438
920.047	14678
920.157	14537
920.267	14667
920.378	14488
920.488	14476
920.598	14731
920.708	14906
920.818	14674
920.928	14617
921.038	14765
921.148	14788
921.258	14461
921.368	14457
921.477	14259
921.587	14313
921.697	14206
921.806	14301
921.916	14259
922.025	14031
922.134	13982
922.244	13830
922.353	13898
922.462	13871
922.571	13799
922.68	13651
922.789	13563
922.898	13594
923.007	13487
923.116	13620
923.224	13647
923.333	13548
923.442	13335
923.55	13350
923.659	13384
923.767	13426
923.876	13320
923.984	13411
924.092	13327
924.201	13411
924.309	13278
924.417	13297
924.525	13194
924.633	13152
924.741	14065
924.849	13027
924.956	13171
925.064	13118
925.172	12943
925.279	12951
925.387	13050
925.494	12973
925.602	13023
925.709	12993
925.816	12806
925.924	12852
926.031	13027
926.138	12954
926.245	12909
926.352	12863
926.459	12954
926.566	12996
926.673	12833
926.779	12730
926.886	12703
926.993	12585
927.099	12563
927.206	12448
927.312	12517
927.419	12582
927.525	12555
927.631	12563
927.737	12445
927.843	12346
927.95	12327
928.056	12338
928.162	12380
928.267	12418
928.373	12996
928.479	12429
928.585	12201
928.69	12262
928.796	12281
928.901	12266
929.007	12102
929.112	12178
929.218	12175
929.323	11980
929.428	12159
929.533	12319
929.638	12026
929.743	12041
929.848	12171
929.953	11988
930.058	11920
930.163	11752
930.267	11722
930.372	11889
930.477	11718
930.581	11893
930.685	11756
930.79	11684
930.894	11718
930.998	11570
931.103	11809
931.207	11417
931.311	11318
931.415	11265
931.519	10991
931.623	10991
