Data from test_V78500241_2212.txt Node
Date: Fri Mar 25 15:25:15 CST 2022
User: usil
Spectrometer: V785-0024
Trigger mode: 0
Integration Time (sec): 4.000000E-1
Scans to average: 1
Nonlinearity correction enabled: false
Boxcar width: 0
Storing dark spectrum: false
XAxis mode: Wavelengths
Number of Pixels in Spectrum: 1024
>>>>>Begin Spectral Data<<<<<
801.071	27705
801.214	28029
801.356	27618
801.499	27363
801.641	27374
801.783	27336
801.926	27370
802.068	27310
802.211	27405
802.353	27173
802.496	27195
802.638	26971
802.78	26982
802.923	27013
803.065	26876
803.208	26990
803.35	27020
803.492	27325
803.635	27252
803.777	27028
803.919	27291
804.061	27553
804.204	27298
804.346	27169
804.488	27192
804.63	27256
804.773	27241
804.915	27207
805.057	27298
805.199	27169
805.341	27313
805.483	27302
805.626	27230
805.768	27264
805.91	27340
806.052	27427
806.194	27233
806.336	27488
806.478	27348
806.62	27412
806.762	27443
806.904	27701
807.046	27823
807.188	27778
807.33	27759
807.472	27911
807.614	27797
807.756	27816
807.898	27606
808.04	27526
808.182	27606
808.324	27610
808.465	27637
808.607	27846
808.749	28070
808.891	28059
809.033	28128
809.174	27994
809.316	28086
809.458	27945
809.6	28017
809.741	28204
809.883	28063
810.025	28310
810.166	28394
810.308	28177
810.45	28234
810.591	28128
810.733	27949
810.875	27899
811.016	27873
811.158	27888
811.299	27926
811.441	28109
811.582	28234
811.724	27975
811.865	27914
812.007	28021
812.148	27953
812.29	28029
812.431	28253
812.573	28341
812.714	28451
812.855	28546
812.997	28546
813.138	28793
813.279	28637
813.421	28531
813.562	28508
813.703	28268
813.845	28173
813.986	28025
814.127	27800
814.268	27736
814.41	27614
814.551	27625
814.692	27641
814.833	27663
814.974	27648
815.115	27751
815.256	27671
815.397	27568
815.539	27568
815.68	27519
815.821	27427
815.962	27389
816.103	27378
816.244	27340
816.385	27123
816.526	27237
816.666	27123
816.807	27001
816.948	27036
817.089	27093
817.23	27089
817.371	26990
817.512	27020
817.653	26910
817.793	26918
817.934	26971
818.075	27032
818.216	27032
818.356	27070
818.497	26750
818.638	26674
818.778	26743
818.919	26819
819.06	26819
819.2	26998
819.341	26986
819.481	27009
819.622	27051
819.762	27325
819.903	27192
820.043	27188
820.184	27047
820.324	27100
820.465	27009
820.605	27199
820.746	27081
820.886	26975
821.026	27051
821.167	26952
821.307	27222
821.447	26952
821.588	26887
821.728	26712
821.868	26727
822.008	26374
822.149	26374
822.289	26396
822.429	26145
822.569	26138
822.709	25982
822.849	25955
822.99	25966
823.13	25875
823.27	25917
823.41	25833
823.55	25647
823.69	25727
823.83	25753
823.97	25704
824.11	25521
824.25	25632
824.389	25400
824.529	25658
824.669	25613
824.809	25696
824.949	25776
825.089	25575
825.228	25594
825.368	25506
825.508	25438
825.648	25403
825.787	25419
825.927	25540
826.067	25419
826.206	25274
826.346	25476
826.485	25487
826.625	25403
826.765	25518
826.904	25556
827.044	25255
827.183	25061
827.323	25114
827.462	25179
827.601	25202
827.741	25148
827.88	25152
828.02	25019
828.159	25164
828.298	25232
828.437	25251
828.577	25084
828.716	25304
828.855	25160
828.994	24951
829.134	24863
829.273	24772
829.412	24840
829.551	24928
829.69	24795
829.829	24901
829.968	24901
830.107	24840
830.246	24814
830.385	24604
830.524	24612
830.663	24513
830.802	24525
830.941	24479
831.08	24505
831.219	24563
831.357	24521
831.496	24696
831.635	24471
831.774	24384
831.913	24369
832.051	24376
832.19	24155
832.329	24399
832.467	24182
832.606	24144
832.744	23999
832.883	23973
833.022	24095
833.16	24003
833.299	24190
833.437	24121
833.576	24079
833.714	24117
833.852	24186
833.991	24216
834.129	24247
834.267	24258
834.406	24148
834.544	24247
834.682	24163
834.821	24159
834.959	24270
835.097	24060
835.235	24091
835.373	24201
835.511	24163
835.65	23961
835.788	23988
835.926	23904
836.064	24015
836.202	23809
836.34	24018
836.478	24011
836.615	23999
836.753	24041
836.891	24057
837.029	24098
837.167	23969
837.305	23897
837.443	23897
837.58	23855
837.718	23893
837.856	23764
837.993	23805
838.131	23840
838.269	23668
838.406	23703
838.544	23596
838.681	23436
838.819	23356
838.956	23284
839.094	23258
839.231	23326
839.369	23516
839.506	23524
839.643	23512
839.781	23326
839.918	23124
840.055	23299
840.193	23372
840.33	23318
840.467	23174
840.604	23212
840.742	23429
840.879	23033
841.016	23094
841.153	23048
841.29	23223
841.427	23174
841.564	23349
841.701	23204
841.838	23155
841.975	23025
842.112	23022
842.249	23044
842.385	22991
842.522	23246
842.659	22995
842.796	22972
842.933	23022
843.069	22904
843.206	22892
843.343	22999
843.479	22911
843.616	22915
843.752	22793
843.889	22649
844.025	22862
844.162	22725
844.298	22889
844.435	22706
844.571	22683
844.708	22698
844.844	22999
844.98	22873
845.117	22839
845.253	22672
845.389	22649
845.525	22618
845.661	22527
845.798	22489
845.934	22474
846.07	22497
846.206	22500
846.342	22565
846.478	22337
846.614	22405
846.75	22207
846.886	22128
847.022	22280
847.158	22280
847.294	22257
847.429	22276
847.565	22169
847.701	22527
847.837	21979
847.972	21884
848.108	21975
848.244	22097
848.379	21747
848.515	21800
848.65	21789
848.786	21854
848.921	21728
849.057	21960
849.192	21873
849.328	21903
849.463	21766
849.598	21705
849.734	21751
849.869	21644
850.004	21530
850.14	21488
850.275	21717
850.41	21492
850.545	21534
850.68	21523
850.815	21561
850.95	21587
851.085	21743
851.22	21652
851.355	21583
851.49	21542
851.625	21545
851.76	21526
851.895	21485
852.03	21393
852.165	21530
852.299	21545
852.434	21663
852.569	21622
852.703	21534
852.838	21439
852.973	21622
853.107	21625
853.242	21412
853.376	21447
853.511	21378
853.645	21367
853.78	21454
853.914	21355
854.048	21313
854.183	21450
854.317	21408
854.451	21591
854.585	21382
854.72	21363
854.854	21408
854.988	21340
855.122	21412
855.256	21157
855.39	21389
855.524	21378
855.658	21317
855.792	21355
855.926	21355
856.06	21431
856.194	21382
856.327	21408
856.461	21256
856.595	21302
856.729	21348
856.862	21462
856.996	21428
857.13	21351
857.263	21519
857.397	21496
857.53	21428
857.664	21466
857.797	21485
857.931	21454
858.064	21504
858.197	21416
858.331	21279
858.464	21272
858.597	21249
858.731	21294
858.864	21389
858.997	21313
859.13	21336
859.263	21359
859.396	21458
859.529	21188
859.662	21359
859.795	21321
859.928	21340
860.061	21587
860.194	21538
860.327	21485
860.46	21374
860.592	21477
860.725	21561
860.858	21496
860.99	21454
861.123	21306
861.256	21294
861.388	21408
861.521	22048
861.653	21195
861.786	21249
861.918	21195
862.05	21184
862.183	21256
862.315	21378
862.447	21359
862.58	21256
862.712	20994
862.844	21081
862.976	21074
863.108	21214
863.24	21405
863.372	21013
863.504	21085
863.636	21070
863.768	21039
863.9	21070
864.032	20990
864.164	21039
864.296	21085
864.428	21066
864.559	21161
864.691	21165
864.823	21024
864.954	20982
865.086	21047
865.217	21020
865.349	20948
865.48	20971
865.612	20906
865.743	21013
865.875	20933
866.006	20887
866.137	21001
866.269	20910
866.4	20925
866.531	20921
866.662	21028
866.793	20910
866.924	20948
867.055	20963
867.186	20815
867.317	20910
867.448	20735
867.579	20921
867.71	20781
867.841	20792
867.972	20937
868.103	20807
868.233	20937
868.364	20849
868.495	21028
868.625	21055
868.756	21279
868.886	21062
869.017	21207
869.147	21180
869.278	21283
869.408	21138
869.539	21112
869.669	21199
869.799	21283
869.929	21291
870.06	21291
870.19	21534
870.32	21355
870.45	21564
870.58	21690
870.71	21603
870.84	21622
870.97	21511
871.1	21519
871.23	21759
871.36	21698
871.489	21641
871.619	21652
871.749	21747
871.879	21823
872.008	21937
872.138	21614
872.267	21747
872.397	21652
872.526	21523
872.656	21561
872.785	21637
872.915	21751
873.044	21854
873.173	21831
873.303	21857
873.432	21694
873.561	21865
873.69	21739
873.819	21694
873.948	21922
874.077	21838
874.206	21713
874.335	21728
874.464	21934
874.593	21960
874.722	21934
874.851	21918
874.979	22063
875.108	22078
875.237	22021
875.365	21884
875.494	21907
875.623	21968
875.751	21876
875.88	21911
876.008	22204
876.136	22234
876.265	22398
876.393	22527
876.521	22451
876.65	22565
876.778	22261
876.906	22226
877.034	22261
877.162	22204
877.29	22382
877.418	22405
877.546	22386
877.674	22344
877.802	22280
877.93	22360
878.058	22284
878.185	22257
878.313	22287
878.441	22303
878.568	22067
878.696	22188
878.824	22371
878.951	22344
879.079	22607
879.206	22618
879.333	22382
879.461	22268
879.588	22413
879.715	22440
879.842	22630
879.97	22478
880.097	22200
880.224	22154
880.351	22291
880.478	22185
880.605	22090
880.732	22120
880.859	22284
880.986	22150
881.112	22192
881.239	22040
881.366	21880
881.493	21698
881.619	21618
881.746	21850
881.872	21793
881.999	21759
882.125	21682
882.252	21717
882.378	21648
882.505	21720
882.631	21549
882.757	21477
882.883	21534
883.01	21469
883.136	21313
883.262	21150
883.388	21222
883.514	21431
883.64	21351
883.766	21275
883.892	21233
884.018	21146
884.143	21363
884.269	21412
884.395	21233
884.52	21112
884.646	21013
884.772	20967
884.897	21039
885.023	21096
885.148	21218
885.274	21237
885.399	21294
885.524	21051
885.65	21184
885.775	21104
885.9	20990
886.025	21146
886.15	21157
886.275	21036
886.4	20895
886.525	21020
886.65	21001
886.775	21005
886.9	21154
887.025	21176
887.149	20929
887.274	20861
887.399	20705
887.523	20796
887.648	20724
887.773	20788
887.897	20944
888.021	20861
888.146	20743
888.27	20979
888.395	20937
888.519	20998
888.643	20933
888.767	20830
888.891	20750
889.015	20537
889.139	20739
889.263	20655
889.387	20648
889.511	20853
889.635	20792
889.759	20693
889.883	20484
890.006	20629
890.13	20636
890.254	20484
890.377	20533
890.501	20393
890.624	20431
890.748	20571
890.871	20225
890.995	20313
891.118	20168
891.241	20122
891.364	20210
891.488	20294
891.611	20199
891.734	20191
891.857	20157
891.98	20229
892.103	20233
892.226	20237
892.349	20187
892.471	19997
892.594	20107
892.717	20172
892.839	20035
892.962	19997
893.085	20103
893.207	20176
893.33	19993
893.452	20001
893.575	20126
893.697	20084
893.819	20324
893.941	20252
894.064	20221
894.186	20016
894.308	19921
894.43	20176
894.552	20278
894.674	20134
894.796	20016
894.918	20043
895.04	20016
895.161	20100
895.283	20122
895.405	19970
895.526	20081
895.648	20138
895.769	20119
895.891	20149
896.012	20328
896.134	20081
896.255	20043
896.376	20001
896.498	20145
896.619	20081
896.74	20168
896.861	20164
896.982	20396
897.103	20514
897.224	20434
897.345	20431
897.466	20294
897.587	20309
897.708	20355
897.828	20336
897.949	20298
898.07	20092
898.19	20347
898.311	20343
898.431	20191
898.552	20332
898.672	20267
898.792	20366
898.913	20381
899.033	20305
899.153	20149
899.273	20008
899.393	20088
899.513	20077
899.633	20096
899.753	20122
899.873	20035
899.993	20065
900.113	20054
900.232	20107
900.352	19967
900.472	19849
900.591	19780
900.711	19864
900.83	19890
900.95	19875
901.069	19906
901.189	19799
901.308	19567
901.427	19449
901.546	19415
901.665	19502
901.784	19491
901.904	19343
902.023	19247
902.141	19023
902.26	19027
902.379	19050
902.498	18958
902.617	18958
902.735	19065
902.854	18913
902.973	18943
903.091	18730
903.21	18681
903.328	18681
903.446	18570
903.565	18308
903.683	18528
903.801	18399
903.919	18361
904.038	18353
904.156	18239
904.274	18216
904.392	18167
904.51	18117
904.627	18114
904.745	18308
904.863	18273
904.981	17992
905.098	17901
905.216	17885
905.334	17946
905.451	17942
905.569	17809
905.686	17813
905.803	17775
905.921	17710
906.038	17863
906.155	17741
906.272	17600
906.389	17577
906.506	17417
906.623	17452
906.74	17398
906.857	17299
906.974	17280
907.091	17482
907.208	17486
907.324	17379
907.441	17315
907.557	17056
907.674	17174
907.79	17010
907.907	17113
908.023	17132
908.139	17185
908.256	17143
908.372	17041
908.488	16968
908.604	16820
908.72	16923
908.836	16885
908.952	16801
909.068	16839
909.184	16790
909.3	16793
909.415	16873
909.531	16850
909.647	16561
909.762	16577
909.878	16424
909.993	16527
910.108	16546
910.224	16466
910.339	16455
910.454	16402
910.57	16379
910.685	16261
910.8	16622
910.915	16493
911.03	16360
911.145	16162
911.259	16169
911.374	16177
911.489	16162
911.604	16048
911.718	15789
911.833	15911
911.947	15827
912.062	15682
912.176	15819
912.291	15846
912.405	15876
912.519	15987
912.633	16006
912.748	15888
912.862	15823
912.976	15755
913.09	15622
913.204	15603
913.318	15686
913.431	15816
913.545	15759
913.659	15812
913.772	15694
913.886	15545
914	15530
914.113	15675
914.226	15641
914.34	15504
914.453	15473
914.566	15576
914.68	15428
914.793	15321
914.906	15142
915.019	15100
915.132	14906
915.245	15062
915.358	15131
915.47	15119
915.583	15085
915.696	15161
915.809	15188
915.921	15245
916.034	15047
916.146	14960
916.259	14982
916.371	15070
916.483	14986
916.595	14971
916.708	14883
916.82	14967
916.932	14891
917.044	14883
917.156	14849
917.268	14720
917.38	14765
917.491	14762
917.603	14800
917.715	14765
917.826	14838
917.938	14758
918.049	14610
918.161	14712
918.272	14796
918.384	14815
918.495	14720
918.606	14514
918.717	14522
918.828	14492
918.939	14549
919.05	14442
919.161	14461
919.272	14317
919.383	14343
919.494	14560
919.604	14754
919.715	14400
919.826	14320
919.936	14465
920.047	14533
920.157	14473
920.267	14621
920.378	14442
920.488	14393
920.598	14598
920.708	14785
920.818	14598
920.928	14629
921.038	14830
921.148	14689
921.258	14404
921.368	14347
921.477	14172
921.587	14191
921.697	14123
921.806	14176
921.916	14058
922.025	13799
922.134	13852
922.244	13731
922.353	13841
922.462	13696
922.571	13658
922.68	13510
922.789	13480
922.898	13502
923.007	13506
923.116	13468
923.224	13438
923.333	13510
923.442	13346
923.55	13327
923.659	13369
923.767	13400
923.876	13255
923.984	13419
924.092	13202
924.201	13335
924.309	13247
924.417	13350
924.525	13103
924.633	13129
924.741	13959
924.849	12962
924.956	13042
925.064	12939
925.172	12993
925.279	12932
925.387	12924
925.494	12882
925.602	13019
925.709	12935
925.816	12810
925.924	12829
926.031	12951
926.138	12970
926.245	12890
926.352	12806
926.459	12875
926.566	12875
926.673	12692
926.779	12635
926.886	12631
926.993	12521
927.099	12521
927.206	12372
927.312	12448
927.419	12509
927.525	12475
927.631	12467
927.737	12369
927.843	12357
927.95	12216
928.056	12277
928.162	12338
928.267	12323
928.373	12954
928.479	12338
928.585	12186
928.69	12285
928.796	12311
928.901	12136
929.007	12049
929.112	12171
929.218	12167
929.323	12076
929.428	12015
929.533	12110
929.638	12011
929.743	12011
929.848	11923
929.953	11954
930.058	11832
930.163	11688
930.267	11688
930.372	11783
930.477	11695
930.581	11923
930.685	11684
930.79	11573
930.894	11585
930.998	11543
931.103	11714
931.207	11383
931.311	11265
931.415	11121
931.519	11006
931.623	10946
