Data from test_V78500241_1891.txt Node
Date: Fri Mar 25 15:23:01 CST 2022
User: usil
Spectrometer: V785-0024
Trigger mode: 0
Integration Time (sec): 4.000000E-1
Scans to average: 1
Nonlinearity correction enabled: false
Boxcar width: 0
Storing dark spectrum: false
XAxis mode: Wavelengths
Number of Pixels in Spectrum: 1024
>>>>>Begin Spectral Data<<<<<
801.071	27922
801.214	27880
801.356	27545
801.499	27427
801.641	27348
801.783	27317
801.926	27416
802.068	27283
802.211	27096
802.353	27188
802.496	27024
802.638	27009
802.78	27066
802.923	26902
803.065	26883
803.208	26895
803.35	26960
803.492	27150
803.635	27100
803.777	27032
803.919	27150
804.061	27473
804.204	27230
804.346	27138
804.488	26960
804.63	27009
804.773	27093
804.915	27127
805.057	27203
805.199	27169
805.341	27275
805.483	27264
805.626	27252
805.768	27055
805.91	27207
806.052	27287
806.194	27298
806.336	27283
806.478	27382
806.62	27260
806.762	27283
806.904	27500
807.046	27770
807.188	27766
807.33	27542
807.472	27690
807.614	27652
807.756	27652
807.898	27549
808.04	27526
808.182	27542
808.324	27526
808.465	27519
808.607	27846
808.749	27873
808.891	27941
809.033	27953
809.174	27895
809.316	27926
809.458	27869
809.6	27800
809.741	28021
809.883	27899
810.025	28238
810.166	28185
810.308	28131
810.45	28013
810.591	28063
810.733	27975
810.875	27808
811.016	27743
811.158	27698
811.299	27831
811.441	27918
811.582	28040
811.724	27945
811.865	27903
812.007	27835
812.148	27797
812.29	27857
812.431	28124
812.573	28055
812.714	28139
812.855	28398
812.997	28557
813.138	28713
813.279	28318
813.421	28401
813.562	28360
813.703	28166
813.845	28029
813.986	27739
814.127	27709
814.268	27523
814.41	27568
814.551	27610
814.692	27701
814.833	27519
814.974	27595
815.115	27576
815.256	27321
815.397	27363
815.539	27321
815.68	27382
815.821	27203
815.962	27291
816.103	27268
816.244	27203
816.385	27195
816.526	27199
816.666	26906
816.807	26838
816.948	26982
817.089	26963
817.23	26963
817.371	26876
817.512	26777
817.653	26785
817.793	26815
817.934	26739
818.075	26929
818.216	26819
818.356	26788
818.497	26667
818.638	26560
818.778	26598
818.919	26579
819.06	26720
819.2	26720
819.341	26902
819.481	26819
819.622	26902
819.762	27252
819.903	27093
820.043	27043
820.184	26853
820.324	26861
820.465	27024
820.605	26963
820.746	26834
820.886	26963
821.026	26891
821.167	26960
821.307	26960
821.447	26830
821.588	26735
821.728	26724
821.868	26560
822.008	26218
822.149	26370
822.289	26229
822.429	26031
822.569	26039
822.709	25890
822.849	25913
822.99	25814
823.13	25780
823.27	25772
823.41	25624
823.55	25559
823.69	25635
823.83	25616
823.97	25655
824.11	25518
824.25	25324
824.389	25468
824.529	25422
824.669	25460
824.809	25563
824.949	25510
825.089	25715
825.228	25590
825.368	25369
825.508	25346
825.648	25377
825.787	25350
825.927	25346
826.067	25415
826.206	25335
826.346	25362
826.485	25396
826.625	25396
826.765	25468
826.904	25457
827.044	25145
827.183	25145
827.323	25046
827.462	25263
827.601	25114
827.741	25027
827.88	25088
828.02	24981
828.159	24981
828.298	25046
828.437	25152
828.577	25046
828.716	25160
828.855	25069
828.994	24810
829.134	24642
829.273	24753
829.412	24669
829.551	24772
829.69	24795
829.829	24722
829.968	24901
830.107	24779
830.246	24837
830.385	24692
830.524	24665
830.663	24536
830.802	24486
830.941	24475
831.08	24365
831.219	24418
831.357	24418
831.496	24673
831.635	24338
831.774	24285
831.913	24448
832.051	24239
832.19	24190
832.329	24239
832.467	24148
832.606	24133
832.744	24022
832.883	24114
833.022	24022
833.16	24022
833.299	24114
833.437	24155
833.576	24186
833.714	24038
833.852	24209
833.991	24091
834.129	24213
834.267	24159
834.406	24060
834.544	24262
834.682	24266
834.821	24251
834.959	24247
835.097	24030
835.235	24102
835.373	24190
835.511	24129
835.65	23840
835.788	23893
835.926	23828
836.064	23771
836.202	23832
836.34	23931
836.478	24087
836.615	23828
836.753	23866
836.891	23996
837.029	23984
837.167	23908
837.305	23935
837.443	23901
837.58	23745
837.718	23802
837.856	23901
837.993	23859
838.131	23840
838.269	23630
838.406	23752
838.544	23611
838.681	23455
838.819	23421
838.956	23429
839.094	23246
839.231	23265
839.369	23421
839.506	23630
839.643	23509
839.781	23311
839.918	23246
840.055	23383
840.193	23220
840.33	23193
840.467	23155
840.604	23254
840.742	23376
840.879	22999
841.016	23140
841.153	23197
841.29	23315
841.427	23151
841.564	23261
841.701	23292
841.838	23105
841.975	23025
842.112	23113
842.249	22949
842.385	23014
842.522	23189
842.659	23010
842.796	22881
842.933	23022
843.069	22991
843.206	22915
843.343	23178
843.479	22908
843.616	22934
843.752	22725
843.889	22812
844.025	22889
844.162	22668
844.298	22793
844.435	22645
844.571	22713
844.708	22725
844.844	22869
844.98	22809
845.117	22778
845.253	22641
845.389	22694
845.525	22637
845.661	22573
845.798	22485
845.934	22508
846.07	22436
846.206	22447
846.342	22573
846.478	22455
846.614	22280
846.75	22166
846.886	22192
847.022	22204
847.158	22261
847.294	22234
847.429	22207
847.565	22128
847.701	22481
847.837	21918
847.972	21857
848.108	21968
848.244	22067
848.379	21960
848.515	21785
848.65	21774
848.786	21770
848.921	21724
849.057	21895
849.192	21968
849.328	21934
849.463	21785
849.598	21793
849.734	21633
849.869	21648
850.004	21618
850.14	21633
850.275	21485
850.41	21443
850.545	21610
850.68	21504
850.815	21629
850.95	21549
851.085	21766
851.22	21652
851.355	21568
851.49	21709
851.625	21500
851.76	21488
851.895	21511
852.03	21370
852.165	21492
852.299	21629
852.434	21633
852.569	21530
852.703	21587
852.838	21557
852.973	21705
853.107	21652
853.242	21450
853.376	21382
853.511	21211
853.645	21359
853.78	21374
853.914	21393
854.048	21355
854.183	21363
854.317	21317
854.451	21583
854.585	21378
854.72	21359
854.854	21336
854.988	21386
855.122	21313
855.256	21268
855.39	21435
855.524	21458
855.658	21348
855.792	21378
855.926	21431
856.06	21405
856.194	21435
856.327	21313
856.461	21389
856.595	21283
856.729	21313
856.862	21386
856.996	21466
857.13	21473
857.263	21526
857.397	21450
857.53	21336
857.664	21348
857.797	21450
857.931	21492
858.064	21313
858.197	21424
858.331	21412
858.464	21355
858.597	21218
858.731	21439
858.864	21367
858.997	21397
859.13	21306
859.263	21408
859.396	21447
859.529	21363
859.662	21340
859.795	21386
859.928	21389
860.061	21408
860.194	21583
860.327	21363
860.46	21374
860.592	21564
860.725	21561
860.858	21542
860.99	21408
861.123	21363
861.256	21325
861.388	21435
861.521	22010
861.653	21211
861.786	21332
861.918	21123
862.05	21386
862.183	21317
862.315	21374
862.447	21313
862.58	21332
862.712	21135
862.844	20967
862.976	21260
863.108	21252
863.24	21496
863.372	21089
863.504	21127
863.636	21066
863.768	21085
863.9	21096
864.032	21104
864.164	21154
864.296	21100
864.428	21218
864.559	21199
864.691	21245
864.823	21089
864.954	21112
865.086	21051
865.217	21146
865.349	20971
865.48	20998
865.612	21131
865.743	21119
865.875	21032
866.006	21005
866.137	21096
866.269	20948
866.4	21028
866.531	20902
866.662	20994
866.793	20971
866.924	20906
867.055	20963
867.186	20967
867.317	20895
867.448	20849
867.579	20899
867.71	20880
867.841	20906
867.972	20975
868.103	20902
868.233	21001
868.364	21017
868.495	20960
868.625	21093
868.756	21264
868.886	21093
869.017	21203
869.147	21294
869.278	21226
869.408	21188
869.539	21108
869.669	21119
869.799	21192
869.929	21313
870.06	21275
870.19	21538
870.32	21564
870.45	21618
870.58	21542
870.71	21705
870.84	21622
870.97	21648
871.1	21583
871.23	21724
871.36	21869
871.489	21705
871.619	21717
871.749	21747
871.879	21926
872.008	21895
872.138	21739
872.267	21679
872.397	21755
872.526	21511
872.656	21633
872.785	21663
872.915	21831
873.044	21778
873.173	21793
873.303	21846
873.432	21793
873.561	21857
873.69	21755
873.819	21831
873.948	21865
874.077	21743
874.206	21713
874.335	21838
874.464	21903
874.593	22082
874.722	22097
874.851	22128
874.979	22109
875.108	22048
875.237	21979
875.365	21960
875.494	21854
875.623	22082
875.751	22097
875.88	21998
876.008	22204
876.136	22169
876.265	22474
876.393	22588
876.521	22569
876.65	22580
876.778	22478
876.906	22356
877.034	22310
877.162	22409
877.29	22390
877.418	22284
877.546	22276
877.674	22447
877.802	22371
877.93	22436
878.058	22333
878.185	22341
878.313	22405
878.441	22386
878.568	22169
878.696	22348
878.824	22371
878.951	22424
879.079	22573
879.206	22717
879.333	22447
879.461	22527
879.588	22573
879.715	22546
879.842	22588
879.97	22322
880.097	22234
880.224	22154
880.351	22291
880.478	22238
880.605	22131
880.732	22166
880.859	22413
880.986	22188
881.112	22246
881.239	22010
881.366	21899
881.493	21816
881.619	21854
881.746	21812
881.872	21720
881.999	21857
882.125	21736
882.252	21648
882.378	21797
882.505	21892
882.631	21587
882.757	21504
882.883	21511
883.01	21504
883.136	21431
883.262	21329
883.388	21283
883.514	21492
883.64	21511
883.766	21424
883.892	21378
884.018	21275
884.143	21412
884.269	21313
884.395	21214
884.52	21127
884.646	21199
884.772	21085
884.897	20986
885.023	21138
885.148	21264
885.274	21230
885.399	21222
885.524	21169
885.65	21161
885.775	21074
885.9	20956
886.025	21100
886.15	21199
886.275	21123
886.4	21020
886.525	21142
886.65	21005
886.775	21028
886.9	21332
887.025	21226
887.149	21089
887.274	20895
887.399	20883
887.523	20826
887.648	20883
887.773	20929
887.897	20914
888.021	20826
888.146	20842
888.27	20994
888.395	21032
888.519	20727
888.643	20777
888.767	20823
888.891	20773
889.015	20701
889.139	20727
889.263	20667
889.387	20739
889.511	20967
889.635	20960
889.759	20670
889.883	20530
890.006	20830
890.13	20678
890.254	20579
890.377	20667
890.501	20377
890.624	20351
890.748	20381
890.871	20438
890.995	20195
891.118	20210
891.241	20263
891.364	20256
891.488	20324
891.611	20218
891.734	20221
891.857	20286
891.98	20248
892.103	20256
892.226	20259
892.349	20252
892.471	20050
892.594	20252
892.717	20126
892.839	20115
892.962	20100
893.085	20195
893.207	20176
893.33	20100
893.452	20180
893.575	20244
893.697	20206
893.819	20275
893.941	20294
894.064	20343
894.186	20138
894.308	20027
894.43	20157
894.552	20332
894.674	20172
894.796	20126
894.918	20149
895.04	20031
895.161	20199
895.283	20183
895.405	20081
895.526	20130
895.648	20172
895.769	20172
895.891	20107
896.012	20206
896.134	20088
896.255	20164
896.376	20157
896.498	20168
896.619	20138
896.74	20096
896.861	20256
896.982	20499
897.103	20579
897.224	20347
897.345	20400
897.466	20263
897.587	20278
897.708	20461
897.828	20434
897.949	20248
898.07	20187
898.19	20370
898.311	20461
898.431	20305
898.552	20229
898.672	20336
898.792	20381
898.913	20336
899.033	20290
899.153	20142
899.273	20054
899.393	20130
899.513	20229
899.633	20084
899.753	20122
899.873	20027
899.993	20180
900.113	20069
900.232	20103
900.352	19963
900.472	19947
900.591	19811
900.711	19928
900.83	19852
900.95	20016
901.069	19890
901.189	19750
901.308	19468
901.427	19373
901.546	19457
901.665	19491
901.784	19521
901.904	19289
902.023	19301
902.141	19160
902.26	19065
902.379	18916
902.498	19038
902.617	18996
902.735	19072
902.854	18795
902.973	18837
903.091	18700
903.21	18711
903.328	18692
903.446	18551
903.565	18532
903.683	18506
903.801	18357
903.919	18388
904.038	18403
904.156	18224
904.274	18323
904.392	18178
904.51	18235
904.627	18270
904.745	18311
904.863	18292
904.981	18034
905.098	17893
905.216	17961
905.334	17923
905.451	18030
905.569	17912
905.686	18034
905.803	17771
905.921	17718
906.038	17889
906.155	17733
906.272	17623
906.389	17627
906.506	17368
906.623	17440
906.74	17383
906.857	17296
906.974	17334
907.091	17440
907.208	17493
907.324	17379
907.441	17296
907.557	17181
907.674	17174
907.79	17090
907.907	17109
908.023	17242
908.139	17170
908.256	17075
908.372	17083
908.488	16984
908.604	16869
908.72	16987
908.836	16755
908.952	16812
909.068	16911
909.184	16908
909.3	16793
909.415	16839
909.531	16900
909.647	16687
909.762	16664
909.878	16489
909.993	16584
910.108	16481
910.224	16474
910.339	16538
910.454	16504
910.57	16382
910.685	16223
910.8	16656
910.915	16497
911.03	16314
911.145	16284
911.259	16078
911.374	16097
911.489	16010
911.604	16006
911.718	15861
911.833	15861
911.947	15823
912.062	15747
912.176	15774
912.291	15899
912.405	15842
912.519	16021
912.633	15949
912.748	15972
912.862	15759
912.976	15713
913.09	15564
913.204	15690
913.318	15762
913.431	15892
913.545	15759
913.659	15789
913.772	15694
913.886	15587
914	15431
914.113	15614
914.226	15553
914.34	15542
914.453	15382
914.566	15530
914.68	15443
914.793	15386
914.906	15176
915.019	15192
915.132	15074
915.245	15123
915.358	15135
915.47	15157
915.583	15066
915.696	15127
915.809	15230
915.921	15199
916.034	15146
916.146	14975
916.259	14937
916.371	15074
916.483	15112
916.595	14963
916.708	14975
916.82	14891
916.932	14895
917.044	14902
917.156	14861
917.268	14842
917.38	14807
917.491	14842
917.603	14823
917.715	14781
917.826	14834
917.938	14686
918.049	14621
918.161	14727
918.272	14914
918.384	14895
918.495	14731
918.606	14552
918.717	14480
918.828	14514
918.939	14590
919.05	14503
919.161	14514
919.272	14415
919.383	14419
919.494	14492
919.604	14758
919.715	14461
919.826	14442
919.936	14358
920.047	14530
920.157	14514
920.267	14727
920.378	14454
920.488	14499
920.598	14648
920.708	14815
920.818	14708
920.928	14594
921.038	14708
921.148	14724
921.258	14412
921.368	14343
921.477	14214
921.587	14221
921.697	14130
921.806	14298
921.916	14115
922.025	13978
922.134	13909
922.244	13788
922.353	13947
922.462	13704
922.571	13765
922.68	13514
922.789	13552
922.898	13468
923.007	13388
923.116	13540
923.224	13434
923.333	13571
923.442	13377
923.55	13350
923.659	13297
923.767	13407
923.876	13251
923.984	13407
924.092	13160
924.201	13255
924.309	13278
924.417	13350
924.525	13213
924.633	13126
924.741	14134
924.849	12985
924.956	13156
925.064	12977
925.172	12833
925.279	12901
925.387	13027
925.494	12928
925.602	13091
925.709	13042
925.816	12882
925.924	12791
926.031	13031
926.138	12837
926.245	12810
926.352	12730
926.459	12875
926.566	12939
926.673	12821
926.779	12715
926.886	12722
926.993	12525
927.099	12540
927.206	12547
927.312	12464
927.419	12559
927.525	12532
927.631	12525
927.737	12388
927.843	12308
927.95	12201
928.056	12323
928.162	12296
928.267	12376
928.373	12886
928.479	12441
928.585	12186
928.69	12281
928.796	12239
928.901	12327
929.007	11965
929.112	12197
929.218	12175
929.323	12083
929.428	12072
929.533	12201
929.638	12034
929.743	12038
929.848	12125
929.953	12053
930.058	11931
930.163	11733
930.267	11752
930.372	11794
930.477	11707
930.581	11931
930.685	11817
930.79	11665
930.894	11710
930.998	11623
931.103	11752
931.207	11406
931.311	11360
931.415	11277
931.519	11056
931.623	11045
