Data from test_V78500241_1660.txt Node
Date: Fri Mar 25 15:21:24 CST 2022
User: usil
Spectrometer: V785-0024
Trigger mode: 0
Integration Time (sec): 4.000000E-1
Scans to average: 1
Nonlinearity correction enabled: false
Boxcar width: 0
Storing dark spectrum: false
XAxis mode: Wavelengths
Number of Pixels in Spectrum: 1024
>>>>>Begin Spectral Data<<<<<
801.071	27892
801.214	27869
801.356	27576
801.499	27701
801.641	27496
801.783	27553
801.926	27564
802.068	27469
802.211	27424
802.353	27443
802.496	27252
802.638	27127
802.78	27173
802.923	27131
803.065	27039
803.208	26937
803.35	27245
803.492	27306
803.635	27447
803.777	27150
803.919	27393
804.061	27663
804.204	27481
804.346	27268
804.488	27283
804.63	27378
804.773	27321
804.915	27530
805.057	27469
805.199	27481
805.341	27534
805.483	27496
805.626	27408
805.768	27382
805.91	27466
806.052	27447
806.194	27405
806.336	27614
806.478	27492
806.62	27644
806.762	27667
806.904	27694
807.046	28006
807.188	28032
807.33	27964
807.472	27918
807.614	27888
807.756	27812
807.898	27743
808.04	27857
808.182	27720
808.324	27804
808.465	28025
808.607	28029
808.749	28112
808.891	28303
809.033	28322
809.174	28291
809.316	28188
809.458	28013
809.6	28021
809.741	28230
809.883	28196
810.025	28310
810.166	28398
810.308	28363
810.45	28322
810.591	28337
810.733	28074
810.875	28131
811.016	28025
811.158	27941
811.299	28261
811.441	28169
811.582	28360
811.724	28192
811.865	27972
812.007	28059
812.148	28177
812.29	28226
812.431	28337
812.573	28497
812.714	28691
812.855	28615
812.997	28831
813.138	28862
813.279	28694
813.421	28691
813.562	28592
813.703	28382
813.845	28405
813.986	28150
814.127	27880
814.268	27873
814.41	27797
814.551	27823
814.692	27831
814.833	27755
814.974	27656
815.115	27857
815.256	27568
815.397	27667
815.539	27618
815.68	27713
815.821	27500
815.962	27637
816.103	27507
816.244	27591
816.385	27370
816.526	27389
816.666	27283
816.807	27165
816.948	27127
817.089	27226
817.23	27157
817.371	27108
817.512	27100
817.653	27138
817.793	26986
817.934	27024
818.075	27085
818.216	27123
818.356	27070
818.497	26880
818.638	26876
818.778	26773
818.919	26849
819.06	26960
819.2	27032
819.341	27119
819.481	27180
819.622	27252
819.762	27496
819.903	27416
820.043	27382
820.184	27344
820.324	27275
820.465	27340
820.605	27180
820.746	27146
820.886	27058
821.026	27108
821.167	27165
821.307	27131
821.447	27173
821.588	27081
821.728	26868
821.868	26670
822.008	26503
822.149	26495
822.289	26606
822.429	26370
822.569	26233
822.709	26225
822.849	26081
822.99	26119
823.13	26046
823.27	26005
823.41	25906
823.55	25769
823.69	25917
823.83	26084
823.97	25814
824.11	25700
824.25	25666
824.389	25666
824.529	25772
824.669	25674
824.809	25845
824.949	25727
825.089	25909
825.228	25708
825.368	25559
825.508	25655
825.648	25731
825.787	25757
825.927	25719
826.067	25613
826.206	25548
826.346	25616
826.485	25590
826.625	25502
826.765	25738
826.904	25643
827.044	25365
827.183	25373
827.323	25304
827.462	25369
827.601	25331
827.741	25350
827.88	25384
828.02	25160
828.159	25377
828.298	25308
828.437	25476
828.577	25316
828.716	25392
828.855	25171
828.994	25050
829.134	24992
829.273	25061
829.412	24951
829.551	25110
829.69	25050
829.829	24966
829.968	24958
830.107	25099
830.246	25076
830.385	24932
830.524	24951
830.663	24875
830.802	24669
830.941	24582
831.08	24620
831.219	24707
831.357	24722
831.496	24878
831.635	24486
831.774	24597
831.913	24437
832.051	24521
832.19	24357
832.329	24429
832.467	24334
832.606	24174
832.744	24239
832.883	24220
833.022	24292
833.16	24407
833.299	24334
833.437	24319
833.576	24258
833.714	24456
833.852	24464
833.991	24414
834.129	24483
834.267	24426
834.406	24418
834.544	24327
834.682	24410
834.821	24342
834.959	24574
835.097	24315
835.235	24441
835.373	24334
835.511	24300
835.65	24384
835.788	24197
835.926	24098
836.064	23984
836.202	24064
836.34	24292
836.478	24159
836.615	24178
836.753	24266
836.891	24205
837.029	24243
837.167	24140
837.305	24117
837.443	24030
837.58	24049
837.718	24045
837.856	24102
837.993	23897
838.131	23946
838.269	23775
838.406	23980
838.544	23764
838.681	23684
838.819	23809
838.956	23520
839.094	23505
839.231	23714
839.369	23836
839.506	23977
839.643	23741
839.781	23543
839.918	23444
840.055	23410
840.193	23539
840.33	23368
840.467	23372
840.604	23402
840.742	23745
840.879	23292
841.016	23307
841.153	23303
841.29	23539
841.427	23315
841.564	23429
841.701	23349
841.838	23372
841.975	23284
842.112	23345
842.249	23364
842.385	23151
842.522	23292
842.659	23197
842.796	23269
842.933	23231
843.069	23178
843.206	23109
843.343	23227
843.479	23212
843.616	23136
843.752	22885
843.889	22953
844.025	23109
844.162	23056
844.298	23033
844.435	22999
844.571	22866
844.708	23037
844.844	22980
844.98	23124
845.117	23147
845.253	23003
845.389	22797
845.525	22809
845.661	22759
845.798	22656
845.934	22622
846.07	22733
846.206	22660
846.342	22858
846.478	22599
846.614	22436
846.75	22402
846.886	22306
847.022	22504
847.158	22455
847.294	22504
847.429	22485
847.565	22459
847.701	22683
847.837	22181
847.972	22112
848.108	22261
848.244	22253
848.379	22116
848.515	22013
848.65	21899
848.786	21994
848.921	21857
849.057	21991
849.192	22082
849.328	22162
849.463	21998
849.598	22040
849.734	21873
849.869	21869
850.004	21823
850.14	21785
850.275	21808
850.41	21637
850.545	21633
850.68	21713
850.815	21850
850.95	21705
851.085	21934
851.22	21846
851.355	21880
851.49	21724
851.625	21724
851.76	21838
851.895	21686
852.03	21766
852.165	21732
852.299	21709
852.434	21922
852.569	21823
852.703	21812
852.838	21873
852.973	21949
853.107	21865
853.242	21755
853.376	21633
853.511	21466
853.645	21473
853.78	21728
853.914	21561
854.048	21458
854.183	21488
854.317	21603
854.451	21922
854.585	21641
854.72	21545
854.854	21599
854.988	21542
855.122	21599
855.256	21545
855.39	21698
855.524	21675
855.658	21576
855.792	21587
855.926	21644
856.06	21679
856.194	21561
856.327	21545
856.461	21515
856.595	21492
856.729	21770
856.862	21583
856.996	21496
857.13	21652
857.263	21717
857.397	21648
857.53	21488
857.664	21633
857.797	21648
857.931	21686
858.064	21614
858.197	21652
858.331	21500
858.464	21492
858.597	21420
858.731	21553
858.864	21549
858.997	21603
859.13	21526
859.263	21511
859.396	21717
859.529	21504
859.662	21561
859.795	21500
859.928	21553
860.061	21736
860.194	21816
860.327	21675
860.46	21660
860.592	21629
860.725	21698
860.858	21663
860.99	21709
861.123	21504
861.256	21587
861.388	21576
861.521	22131
861.653	21378
861.786	21363
861.918	21408
862.05	21496
862.183	21488
862.315	21473
862.447	21553
862.58	21500
862.712	21325
862.844	21154
862.976	21428
863.108	21450
863.24	21766
863.372	21199
863.504	21294
863.636	21173
863.768	21306
863.9	21119
864.032	21157
864.164	21329
864.296	21332
864.428	21405
864.559	21363
864.691	21450
864.823	21287
864.954	21340
865.086	21222
865.217	21169
865.349	21127
865.48	21119
865.612	21180
865.743	21268
865.875	21131
866.006	21146
866.137	21123
866.269	21199
866.4	20986
866.531	21184
866.662	21070
866.793	21081
866.924	21154
867.055	21135
867.186	21062
867.317	21001
867.448	21085
867.579	21291
867.71	21081
867.841	21051
867.972	21199
868.103	21176
868.233	21161
868.364	21123
868.495	21131
868.625	21325
868.756	21469
868.886	21233
869.017	21363
869.147	21363
869.278	21431
869.408	21329
869.539	21340
869.669	21340
869.799	21367
869.929	21469
870.06	21412
870.19	21675
870.32	21606
870.45	21667
870.58	21793
870.71	21770
870.84	21838
870.97	21682
871.1	21656
871.23	21884
871.36	21823
871.489	21926
871.619	21846
871.749	21941
871.879	21949
872.008	22109
872.138	21968
872.267	21941
872.397	21895
872.526	21717
872.656	21739
872.785	21789
872.915	22010
873.044	22040
873.173	21953
873.303	22029
873.432	22078
873.561	22067
873.69	22021
873.819	21960
873.948	22070
874.077	21983
874.206	21880
874.335	22010
874.464	22048
874.593	22238
874.722	22105
874.851	22276
874.979	22196
875.108	22196
875.237	22124
875.365	22029
875.494	22268
875.623	22299
875.751	22101
875.88	22299
876.008	22379
876.136	22398
876.265	22497
876.393	22828
876.521	22702
876.65	22599
876.778	22535
876.906	22535
877.034	22519
877.162	22500
877.29	22542
877.418	22443
877.546	22497
877.674	22478
877.802	22580
877.93	22535
878.058	22462
878.185	22417
878.313	22405
878.441	22565
878.568	22341
878.696	22421
878.824	22516
878.951	22481
879.079	22538
879.206	22771
879.333	22752
879.461	22573
879.588	22611
879.715	22687
879.842	22831
879.97	22527
880.097	22443
880.224	22386
880.351	22363
880.478	22421
880.605	22230
880.732	22314
880.859	22527
880.986	22348
881.112	22352
881.239	22230
881.366	22048
881.493	21953
881.619	21918
881.746	21922
881.872	21953
881.999	21930
882.125	21846
882.252	22002
882.378	21797
882.505	21998
882.631	21755
882.757	21713
882.883	21751
883.01	21720
883.136	21595
883.262	21580
883.388	21492
883.514	21625
883.64	21656
883.766	21599
883.892	21340
884.018	21428
884.143	21523
884.269	21675
884.395	21344
884.52	21119
884.646	21226
884.772	21127
884.897	21199
885.023	21325
885.148	21332
885.274	21447
885.399	21401
885.524	21264
885.65	21325
885.775	21382
885.9	21218
886.025	21359
886.15	21241
886.275	21291
886.4	21176
886.525	21218
886.65	21169
886.775	21154
886.9	21393
887.025	21397
887.149	21226
887.274	21081
887.399	20998
887.523	21089
887.648	21020
887.773	20914
887.897	21116
888.021	21066
888.146	20910
888.27	21085
888.395	21047
888.519	21089
888.643	21032
888.767	21020
888.891	20899
889.015	20834
889.139	20902
889.263	20891
889.387	20807
889.511	20921
889.635	20952
889.759	20788
889.883	20830
890.006	20842
890.13	20921
890.254	20788
890.377	20925
890.501	20541
890.624	20446
890.748	20739
890.871	20514
890.995	20469
891.118	20377
891.241	20415
891.364	20358
891.488	20522
891.611	20438
891.734	20480
891.857	20393
891.98	20412
892.103	20370
892.226	20434
892.349	20343
892.471	20286
892.594	20263
892.717	20305
892.839	20355
892.962	20362
893.085	20351
893.207	20225
893.33	20256
893.452	20374
893.575	20404
893.697	20202
893.819	20438
893.941	20488
894.064	20480
894.186	20191
894.308	20157
894.43	20434
894.552	20415
894.674	20362
894.796	20130
894.918	20183
895.04	20290
895.161	20339
895.283	20366
895.405	20339
895.526	20393
895.648	20233
895.769	20244
895.891	20290
896.012	20336
896.134	20431
896.255	20320
896.376	20195
896.498	20476
896.619	20343
896.74	20461
896.861	20408
896.982	20655
897.103	20727
897.224	20530
897.345	20629
897.466	20396
897.587	20556
897.708	20549
897.828	20530
897.949	20457
898.07	20336
898.19	20473
898.311	20526
898.431	20362
898.552	20461
898.672	20655
898.792	20606
898.913	20480
899.033	20389
899.153	20336
899.273	20202
899.393	20233
899.513	20366
899.633	20195
899.753	20339
899.873	20145
899.993	20176
900.113	20100
900.232	20282
900.352	20176
900.472	20142
900.591	19955
900.711	20126
900.83	19951
900.95	20180
901.069	20088
901.189	20092
901.308	19753
901.427	19533
901.546	19666
901.665	19567
901.784	19757
901.904	19578
902.023	19415
902.141	19285
902.26	19088
902.379	19168
902.498	19012
902.617	19053
902.735	19110
902.854	19236
902.973	18996
903.091	18913
903.21	18741
903.328	18821
903.446	18757
903.565	18574
903.683	18585
903.801	18536
903.919	18498
904.038	18547
904.156	18460
904.274	18448
904.392	18395
904.51	18376
904.627	18357
904.745	18376
904.863	18395
904.981	18239
905.098	18079
905.216	18019
905.334	18106
905.451	18068
905.569	17961
905.686	18117
905.803	17977
905.921	17783
906.038	17961
906.155	17901
906.272	17573
906.389	17748
906.506	17676
906.623	17611
906.74	17649
906.857	17440
906.974	17463
907.091	17623
907.208	17676
907.324	17570
907.441	17512
907.557	17337
907.674	17242
907.79	17360
907.907	17265
908.023	17254
908.139	17227
908.256	17105
908.372	17235
908.488	17166
908.604	17105
908.72	16938
908.836	16961
908.952	17033
909.068	16942
909.184	17124
909.3	16987
909.415	17102
909.531	17003
909.647	16809
909.762	16649
909.878	16668
909.993	16717
910.108	16790
910.224	16664
910.339	16523
910.454	16637
910.57	16470
910.685	16398
910.8	16774
910.915	16683
911.03	16455
911.145	16459
911.259	16356
911.374	16253
911.489	16169
911.604	16230
911.718	16025
911.833	16036
911.947	15972
912.062	15941
912.176	16029
912.291	16044
912.405	16048
912.519	16188
912.633	16310
912.748	16131
912.862	15979
912.976	15926
913.09	15774
913.204	15850
913.318	15854
913.431	15918
913.545	15873
913.659	15930
913.772	15892
913.886	15705
914	15694
914.113	15728
914.226	15846
914.34	15656
914.453	15587
914.566	15671
914.68	15549
914.793	15549
914.906	15370
915.019	15230
915.132	15241
915.245	15272
915.358	15237
915.47	15199
915.583	15195
915.696	15218
915.809	15363
915.921	15268
916.034	15188
916.146	15085
916.259	15123
916.371	15123
916.483	15135
916.595	15032
916.708	15108
916.82	15123
916.932	15058
917.044	15199
917.156	14982
917.268	14944
917.38	14823
917.491	14921
917.603	14956
917.715	14979
917.826	14925
917.938	14902
918.049	14746
918.161	14967
918.272	14891
918.384	14948
918.495	14895
918.606	14590
918.717	14632
918.828	14781
918.939	14659
919.05	14594
919.161	14636
919.272	14408
919.383	14526
919.494	14720
919.604	14811
919.715	14552
919.826	14457
919.936	14632
920.047	14788
920.157	14560
920.267	14800
920.378	14575
920.488	14670
920.598	14823
920.708	14960
920.818	14682
920.928	14716
921.038	14899
921.148	14845
921.258	14606
921.368	14495
921.477	14450
921.587	14259
921.697	14282
921.806	14309
921.916	14237
922.025	14123
922.134	14008
922.244	13902
922.353	14046
922.462	13906
922.571	13913
922.68	13807
922.789	13620
922.898	13715
923.007	13529
923.116	13639
923.224	13685
923.333	13662
923.442	13464
923.55	13434
923.659	13502
923.767	13438
923.876	13343
923.984	13415
924.092	13289
924.201	13358
924.309	13430
924.417	13381
924.525	13312
924.633	13316
924.741	14111
924.849	13061
924.956	13274
925.064	13053
925.172	12939
925.279	13031
925.387	13057
925.494	13012
925.602	13221
925.709	13095
925.816	13034
925.924	13027
926.031	13152
926.138	13057
926.245	13031
926.352	12783
926.459	12928
926.566	13034
926.673	12920
926.779	12817
926.886	12783
926.993	12642
927.099	12639
927.206	12566
927.312	12601
927.419	12635
927.525	12620
927.631	12612
927.737	12536
927.843	12372
927.95	12380
928.056	12467
928.162	12452
928.267	12456
928.373	13164
928.479	12582
928.585	12350
928.69	12395
928.796	12414
928.901	12323
929.007	12155
929.112	12235
929.218	12235
929.323	12197
929.428	12247
929.533	12315
929.638	12095
929.743	12121
929.848	12072
929.953	12159
930.058	12045
930.163	11802
930.267	11870
930.372	11988
930.477	11798
930.581	12030
930.685	11878
930.79	11733
930.894	11714
930.998	11710
931.103	11847
931.207	11433
931.311	11433
931.415	11303
931.519	11083
931.623	11121
