Data from test_V78500241_3159.txt Node
Date: Fri Mar 25 15:31:51 CST 2022
User: usil
Spectrometer: V785-0024
Trigger mode: 0
Integration Time (sec): 4.000000E-1
Scans to average: 1
Nonlinearity correction enabled: false
Boxcar width: 0
Storing dark spectrum: false
XAxis mode: Wavelengths
Number of Pixels in Spectrum: 1024
>>>>>Begin Spectral Data<<<<<
801.071	27241
801.214	27195
801.356	26857
801.499	26887
801.641	26606
801.783	26800
801.926	26785
802.068	26583
802.211	26651
802.353	26636
802.496	26492
802.638	26446
802.78	26374
802.923	26252
803.065	26313
803.208	26195
803.35	26290
803.492	26598
803.635	26503
803.777	26351
803.919	26545
804.061	26872
804.204	26522
804.346	26530
804.488	26389
804.63	26511
804.773	26400
804.915	26571
805.057	26621
805.199	26511
805.341	26568
805.483	26712
805.626	26632
805.768	26564
805.91	26564
806.052	26716
806.194	26575
806.336	26769
806.478	26583
806.62	26598
806.762	26830
806.904	26895
807.046	27207
807.188	27169
807.33	27169
807.472	27062
807.614	26998
807.756	26929
807.898	26990
808.04	26971
808.182	26792
808.324	26868
808.465	26914
808.607	27032
808.749	27161
808.891	27233
809.033	27405
809.174	27237
809.316	27222
809.458	27291
809.6	27176
809.741	27119
809.883	27397
810.025	27416
810.166	27427
810.308	27549
810.45	27439
810.591	27515
810.733	27363
810.875	27291
811.016	27218
811.158	27218
811.299	27230
811.441	27519
811.582	27310
811.724	27340
811.865	27233
812.007	27230
812.148	27150
812.29	27135
812.431	27389
812.573	27698
812.714	27542
812.855	27679
812.997	27770
813.138	27888
813.279	27785
813.421	27857
813.562	27599
813.703	27534
813.845	27443
813.986	27074
814.127	27142
814.268	26937
814.41	26963
814.551	26811
814.692	26960
814.833	26765
814.974	26788
815.115	26952
815.256	26796
815.397	26769
815.539	26773
815.68	26674
815.821	26560
815.962	26727
816.103	26625
816.244	26530
816.385	26385
816.526	26339
816.666	26317
816.807	26084
816.948	26248
817.089	26256
817.23	26233
817.371	26210
817.512	26218
817.653	26149
817.793	26103
817.934	26149
818.075	26107
818.216	26046
818.356	26191
818.497	26020
818.638	26005
818.778	25788
818.919	25795
819.06	26008
819.2	25978
819.341	26111
819.481	26145
819.622	26309
819.762	26541
819.903	26317
820.043	26412
820.184	26290
820.324	26111
820.465	26336
820.605	26286
820.746	26271
820.886	26199
821.026	26142
821.167	26107
821.307	26294
821.447	26172
821.588	25982
821.728	25856
821.868	25780
822.008	25647
822.149	25700
822.289	25514
822.429	25365
822.569	25308
822.709	25373
822.849	25183
822.99	25145
823.13	25175
823.27	25103
823.41	25012
823.55	24749
823.69	24863
823.83	24859
823.97	24856
824.11	24738
824.25	24707
824.389	24700
824.529	24840
824.669	24661
824.809	24890
824.949	24890
825.089	24810
825.228	24848
825.368	24627
825.508	24665
825.648	24585
825.787	24707
825.927	24730
826.067	24532
826.206	24654
826.346	24719
826.485	24745
826.625	24623
826.765	24757
826.904	24627
827.044	24395
827.183	24365
827.323	24228
827.462	24475
827.601	24498
827.741	24361
827.88	24327
828.02	24171
828.159	24395
828.298	24311
828.437	24308
828.577	24277
828.716	24433
828.855	24262
828.994	24011
829.134	24068
829.273	24224
829.412	23984
829.551	23870
829.69	24003
829.829	24049
829.968	23980
830.107	24068
830.246	24060
830.385	24007
830.524	23882
830.663	23832
830.802	23764
830.941	23577
831.08	23802
831.219	23775
831.357	23733
831.496	23935
831.635	23722
831.774	23543
831.913	23509
832.051	23402
832.19	23303
832.329	23425
832.467	23299
832.606	23246
832.744	23231
832.883	23280
833.022	23280
833.16	23280
833.299	23478
833.437	23292
833.576	23444
833.714	23322
833.852	23512
833.991	23406
834.129	23539
834.267	23478
834.406	23299
834.544	23463
834.682	23322
834.821	23395
834.959	23531
835.097	23292
835.235	23387
835.373	23391
835.511	23433
835.65	23349
835.788	23189
835.926	23113
836.064	22942
836.202	23079
836.34	23349
836.478	23497
836.615	23212
836.753	23254
836.891	23372
837.029	23223
837.167	23147
837.305	23227
837.443	23181
837.58	23079
837.718	23200
837.856	22991
837.993	23006
838.131	23170
838.269	23048
838.406	23056
838.544	22911
838.681	22622
838.819	22763
838.956	22649
839.094	22470
839.231	22603
839.369	22713
839.506	22980
839.643	22809
839.781	22512
839.918	22436
840.055	22512
840.193	22481
840.33	22417
840.467	22516
840.604	22569
840.742	22793
840.879	22390
841.016	22413
841.153	22405
841.29	22630
841.427	22500
841.564	22584
841.701	22550
841.838	22466
841.975	22379
842.112	22402
842.249	22333
842.385	22158
842.522	22565
842.659	22329
842.796	22257
842.933	22284
843.069	22234
843.206	22242
843.343	22249
843.479	22230
843.616	22253
843.752	21994
843.889	22082
844.025	22234
844.162	22029
844.298	22090
844.435	21994
844.571	22105
844.708	22090
844.844	22173
844.98	22139
845.117	22166
845.253	22040
845.389	21895
845.525	21899
845.661	21850
845.798	21774
845.934	21808
846.07	21785
846.206	21850
846.342	21838
846.478	21778
846.614	21663
846.75	21420
846.886	21511
847.022	21557
847.158	21526
847.294	21500
847.429	21481
847.565	21507
847.701	21694
847.837	21112
847.972	21268
848.108	21332
848.244	21348
848.379	21222
848.515	21074
848.65	21070
848.786	21062
848.921	21161
849.057	21188
849.192	21233
849.328	21241
849.463	21150
849.598	21119
849.734	20975
849.869	20906
850.004	20994
850.14	20906
850.275	20899
850.41	20750
850.545	20842
850.68	20777
850.815	20914
850.95	20804
851.085	20990
851.22	21005
851.355	21036
851.49	20906
851.625	20754
851.76	20758
851.895	20815
852.03	20811
852.165	20796
852.299	20876
852.434	21066
852.569	20868
852.703	20929
852.838	21100
852.973	21028
853.107	20975
853.242	20792
853.376	20663
853.511	20629
853.645	20632
853.78	20842
853.914	20632
854.048	20560
854.183	20708
854.317	20693
854.451	20857
854.585	20609
854.72	20667
854.854	20689
854.988	20716
855.122	20644
855.256	20644
855.39	20640
855.524	20754
855.658	20701
855.792	20716
855.926	20796
856.06	20727
856.194	20663
856.327	20682
856.461	20720
856.595	20507
856.729	20686
856.862	20667
856.996	20632
857.13	20739
857.263	20880
857.397	20849
857.53	20800
857.664	20800
857.797	20796
857.931	20785
858.064	20682
858.197	20765
858.331	20632
858.464	20629
858.597	20625
858.731	20629
858.864	20746
858.997	20670
859.13	20743
859.263	20743
859.396	20804
859.529	20613
859.662	20583
859.795	20651
859.928	20674
860.061	20857
860.194	20902
860.327	20651
860.46	20746
860.592	20777
860.725	20826
860.858	20834
860.99	20720
861.123	20674
861.256	20674
861.388	20712
861.521	21291
861.653	20625
861.786	20568
861.918	20625
862.05	20746
862.183	20541
862.315	20697
862.447	20678
862.58	20625
862.712	20450
862.844	20522
862.976	20568
863.108	20476
863.24	20663
863.372	20415
863.504	20412
863.636	20431
863.768	20404
863.9	20377
864.032	20256
864.164	20438
864.296	20476
864.428	20552
864.559	20492
864.691	20488
864.823	20484
864.954	20324
865.086	20332
865.217	20320
865.349	20225
865.48	20271
865.612	20263
865.743	20355
865.875	20244
866.006	20313
866.137	20309
866.269	20267
866.4	20271
866.531	20240
866.662	20153
866.793	20355
866.924	20324
867.055	20229
867.186	20313
867.317	20210
867.448	20153
867.579	20221
867.71	20206
867.841	20271
867.972	20233
868.103	20248
868.233	20263
868.364	20355
868.495	20415
868.625	20499
868.756	20541
868.886	20469
869.017	20495
869.147	20461
869.278	20613
869.408	20507
869.539	20427
869.669	20446
869.799	20526
869.929	20655
870.06	20575
870.19	20758
870.32	20788
870.45	20994
870.58	20982
870.71	20998
870.84	20918
870.97	20921
871.1	20948
871.23	21055
871.36	21104
871.489	20914
871.619	21058
871.749	21020
871.879	21089
872.008	21214
872.138	21081
872.267	21104
872.397	21024
872.526	20925
872.656	21055
872.785	20998
872.915	21184
873.044	21233
873.173	21226
873.303	21123
873.432	21180
873.561	21157
873.69	21047
873.819	20857
873.948	21203
874.077	21173
874.206	21138
874.335	21154
874.464	21275
874.593	21348
874.722	21233
874.851	21374
874.979	21428
875.108	21507
875.237	21275
875.365	21291
875.494	21325
875.623	21332
875.751	21367
875.88	21466
876.008	21610
876.136	21583
876.265	21755
876.393	21865
876.521	21869
876.65	21842
876.778	21759
876.906	21690
877.034	21701
877.162	21686
877.29	21736
877.418	21701
877.546	21755
877.674	21724
877.802	21648
877.93	21728
878.058	21625
878.185	21526
878.313	21690
878.441	21701
878.568	21515
878.696	21629
878.824	21641
878.951	21781
879.079	21835
879.206	22074
879.333	21819
879.461	21694
879.588	21709
879.715	21983
879.842	22013
879.97	21812
880.097	21599
880.224	21572
880.351	21629
880.478	21583
880.605	21439
880.732	21561
880.859	21713
880.986	21591
881.112	21580
881.239	21374
881.366	21233
881.493	21176
881.619	21203
881.746	21112
881.872	21112
881.999	21070
882.125	21005
882.252	21104
882.378	21100
882.505	21138
882.631	21138
882.757	20785
882.883	20925
883.01	20864
883.136	20708
883.262	20769
883.388	20697
883.514	20830
883.64	20925
883.766	20735
883.892	20621
884.018	20667
884.143	20777
884.269	20823
884.395	20503
884.52	20446
884.646	20377
884.772	20396
884.897	20423
885.023	20473
885.148	20590
885.274	20712
885.399	20537
885.524	20396
885.65	20385
885.775	20590
885.9	20415
886.025	20575
886.15	20476
886.275	20427
886.4	20438
886.525	20427
886.65	20374
886.775	20457
886.9	20446
887.025	20594
887.149	20358
887.274	20278
887.399	20161
887.523	20233
887.648	20199
887.773	20187
887.897	20298
888.021	20259
888.146	20267
888.27	20427
888.395	20267
888.519	20244
888.643	20259
888.767	20393
888.891	20252
889.015	20046
889.139	20244
889.263	20065
889.387	20084
889.511	20252
889.635	20122
889.759	20031
889.883	20092
890.006	20035
890.13	20157
890.254	20054
890.377	19978
890.501	19772
890.624	19689
890.748	19913
890.871	19746
890.995	19578
891.118	19521
891.241	19605
891.364	19693
891.488	19795
891.611	19731
891.734	19632
891.857	19742
891.98	19582
892.103	19693
892.226	19609
892.349	19582
892.471	19422
892.594	19655
892.717	19605
892.839	19533
892.962	19594
893.085	19658
893.207	19472
893.33	19438
893.452	19464
893.575	19624
893.697	19559
893.819	19681
893.941	19791
894.064	19655
894.186	19483
894.308	19480
894.43	19544
894.552	19746
894.674	19632
894.796	19476
894.918	19563
895.04	19472
895.161	19685
895.283	19651
895.405	19438
895.526	19537
895.648	19510
895.769	19480
895.891	19567
896.012	19647
896.134	19677
896.255	19597
896.376	19609
896.498	19556
896.619	19521
896.74	19624
896.861	19635
896.982	19875
897.103	19997
897.224	19788
897.345	19830
897.466	19712
897.587	19700
897.708	19917
897.828	19845
897.949	19803
898.07	19597
898.19	19776
898.311	19841
898.431	19609
898.552	19879
898.672	19799
898.792	19906
898.913	19780
899.033	19620
899.153	19662
899.273	19449
899.393	19597
899.513	19540
899.633	19544
899.753	19689
899.873	19438
899.993	19628
900.113	19460
900.232	19537
900.352	19480
900.472	19343
900.591	19350
900.711	19365
900.83	19198
900.95	19354
901.069	19403
901.189	19240
901.308	19129
901.427	18913
901.546	18962
901.665	18890
901.784	19126
901.904	18787
902.023	18646
902.141	18578
902.26	18479
902.379	18525
902.498	18528
902.617	18521
902.735	18414
902.854	18467
902.973	18300
903.091	18167
903.21	18129
903.328	18125
903.446	18022
903.565	17969
903.683	17996
903.801	17745
903.919	17859
904.038	17912
904.156	17745
904.274	17764
904.392	17707
904.51	17604
904.627	17646
904.745	17802
904.863	17779
904.981	17429
905.098	17372
905.216	17353
905.334	17440
905.451	17459
905.569	17330
905.686	17448
905.803	17356
905.921	17204
906.038	17269
906.155	17170
906.272	17056
906.389	17064
906.506	16923
906.623	16942
906.74	16862
906.857	16778
906.974	16805
907.091	16942
907.208	17083
907.324	17003
907.441	16790
907.557	16675
907.674	16603
907.79	16538
907.907	16596
908.023	16637
908.139	16645
908.256	16558
908.372	16664
908.488	16512
908.604	16280
908.72	16348
908.836	16325
908.952	16356
909.068	16341
909.184	16497
909.3	16363
909.415	16375
909.531	16421
909.647	16128
909.762	16055
909.878	15937
909.993	16109
910.108	15994
910.224	16074
910.339	16025
910.454	15880
910.57	15865
910.685	15903
910.8	16021
910.915	15918
911.03	15800
911.145	15793
911.259	15686
911.374	15648
911.489	15553
911.604	15496
911.718	15424
911.833	15507
911.947	15477
912.062	15306
912.176	15481
912.291	15462
912.405	15378
912.519	15625
912.633	15599
912.748	15431
912.862	15450
912.976	15195
913.09	15066
913.204	15169
913.318	15298
913.431	15336
913.545	15344
913.659	15245
913.772	15173
913.886	15123
914	15077
914.113	15150
914.226	15112
914.34	15039
914.453	14994
914.566	14967
914.68	14990
914.793	14967
914.906	14697
915.019	14568
915.132	14575
915.245	14689
915.358	14644
915.47	14667
915.583	14617
915.696	14697
915.809	14804
915.921	14773
916.034	14705
916.146	14526
916.259	14499
916.371	14587
916.483	14610
916.595	14590
916.708	14568
916.82	14499
916.932	14465
917.044	14358
917.156	14446
917.268	14290
917.38	14473
917.491	14328
917.603	14408
917.715	14454
917.826	14434
917.938	14229
918.049	14134
918.161	14290
918.272	14374
918.384	14366
918.495	14282
918.606	14065
918.717	14012
918.828	14062
918.939	14130
919.05	14073
919.161	14119
919.272	13879
919.383	14012
919.494	14149
919.604	14218
919.715	14088
919.826	14001
919.936	14111
920.047	14221
920.157	14077
920.267	14313
920.378	14153
920.488	14050
920.598	14275
920.708	14362
920.818	14259
920.928	14199
921.038	14377
921.148	14286
921.258	14008
921.368	14050
921.477	13894
921.587	13750
921.697	13605
921.806	13871
921.916	13715
922.025	13491
922.134	13544
922.244	13438
922.353	13601
922.462	13460
922.571	13274
922.68	13225
922.789	13141
922.898	13076
923.007	13069
923.116	13187
923.224	13107
923.333	13057
923.442	12970
923.55	12894
923.659	12928
923.767	13008
923.876	12932
923.984	13008
924.092	12825
924.201	12935
924.309	12882
924.417	12878
924.525	12829
924.633	12776
924.741	13643
924.849	12551
924.956	12753
925.064	12642
925.172	12521
925.279	12441
925.387	12589
925.494	12597
925.602	12711
925.709	12551
925.816	12437
925.924	12601
926.031	12642
926.138	12479
926.245	12578
926.352	12395
926.459	12471
926.566	12551
926.673	12422
926.779	12403
926.886	12285
926.993	12125
927.099	12125
927.206	12167
927.312	12019
927.419	12220
927.525	12163
927.631	12175
927.737	12015
927.843	11973
927.95	11920
928.056	11961
928.162	11996
928.267	11973
928.373	12616
928.479	12064
928.585	11817
928.69	11916
928.796	12007
928.901	11824
929.007	11649
929.112	11824
929.218	11794
929.323	11703
929.428	11668
929.533	11863
929.638	11703
929.743	11558
929.848	11668
929.953	11695
930.058	11539
930.163	11376
930.267	11425
930.372	11619
930.477	11296
930.581	11573
930.685	11440
930.79	11269
930.894	11356
930.998	11189
931.103	11448
931.207	11075
931.311	10965
931.415	10904
931.519	10710
931.623	10645
