Data from test_V78500241_2202.txt Node
Date: Fri Mar 25 15:25:11 CST 2022
User: usil
Spectrometer: V785-0024
Trigger mode: 0
Integration Time (sec): 4.000000E-1
Scans to average: 1
Nonlinearity correction enabled: false
Boxcar width: 0
Storing dark spectrum: false
XAxis mode: Wavelengths
Number of Pixels in Spectrum: 1024
>>>>>Begin Spectral Data<<<<<
801.071	27914
801.214	27751
801.356	27526
801.499	27530
801.641	27382
801.783	27306
801.926	27306
802.068	27500
802.211	27348
802.353	27108
802.496	27066
802.638	26929
802.78	26906
802.923	26906
803.065	26845
803.208	26842
803.35	26944
803.492	27154
803.635	27245
803.777	27062
803.919	27283
804.061	27389
804.204	27454
804.346	27192
804.488	27157
804.63	27203
804.773	26994
804.915	27230
805.057	27260
805.199	27157
805.341	27275
805.483	27241
805.626	27279
805.768	27138
805.91	27218
806.052	27363
806.194	27370
806.336	27435
806.478	27344
806.62	27294
806.762	27606
806.904	27610
807.046	27804
807.188	27778
807.33	27667
807.472	27778
807.614	27618
807.756	27709
807.898	27622
808.04	27488
808.182	27644
808.324	27576
808.465	27713
808.607	27816
808.749	27865
808.891	28059
809.033	28006
809.174	28017
809.316	27914
809.458	27937
809.6	27941
809.741	27937
809.883	28063
810.025	28128
810.166	28196
810.308	28249
810.45	28109
810.591	28051
810.733	27918
810.875	27922
811.016	27755
811.158	27793
811.299	28029
811.441	28135
811.582	28006
811.724	27800
811.865	27941
812.007	27991
812.148	27713
812.29	28059
812.431	27998
812.573	28185
812.714	28344
812.855	28421
812.997	28508
813.138	28805
813.279	28596
813.421	28569
813.562	28382
813.703	28253
813.845	28040
813.986	27835
814.127	27717
814.268	27656
814.41	27823
814.551	27610
814.692	27652
814.833	27481
814.974	27576
815.115	27652
815.256	27557
815.397	27534
815.539	27538
815.68	27389
815.821	27397
815.962	27485
816.103	27557
816.244	27283
816.385	27260
816.526	27169
816.666	26910
816.807	26994
816.948	27013
817.089	27013
817.23	26902
817.371	26880
817.512	26883
817.653	26777
817.793	26823
817.934	26864
818.075	26994
818.216	26914
818.356	26940
818.497	26777
818.638	26587
818.778	26674
818.919	26739
819.06	26686
819.2	26807
819.341	26982
819.481	26929
819.622	26952
819.762	27150
819.903	27127
820.043	27108
820.184	27013
820.324	26979
820.465	27085
820.605	27017
820.746	26994
820.886	26845
821.026	26933
821.167	26979
821.307	27157
821.447	26781
821.588	26868
821.728	26682
821.868	26469
822.008	26431
822.149	26313
822.289	26248
822.429	26130
822.569	26039
822.709	26084
822.849	25947
822.99	25925
823.13	25959
823.27	25757
823.41	25681
823.55	25685
823.69	25685
823.83	25731
823.97	25540
824.11	25472
824.25	25563
824.389	25464
824.529	25571
824.669	25502
824.809	25700
824.949	25521
825.089	25586
825.228	25426
825.368	25350
825.508	25400
825.648	25316
825.787	25506
825.927	25483
826.067	25411
826.206	25339
826.346	25301
826.485	25483
826.625	25388
826.765	25521
826.904	25415
827.044	25137
827.183	25122
827.323	25076
827.462	25171
827.601	24966
827.741	25031
827.88	25046
828.02	25012
828.159	25050
828.298	25034
828.437	25099
828.577	25057
828.716	25061
828.855	24905
828.994	24760
829.134	24878
829.273	24802
829.412	24760
829.551	24757
829.69	24764
829.829	24886
829.968	24719
830.107	24798
830.246	24711
830.385	24608
830.524	24623
830.663	24627
830.802	24391
830.941	24460
831.08	24323
831.219	24323
831.357	24365
831.496	24585
831.635	24399
831.774	24350
831.913	24239
832.051	24117
832.19	24163
832.329	24136
832.467	24098
832.606	23950
832.744	24049
832.883	24030
833.022	23965
833.16	24038
833.299	24057
833.437	24015
833.576	24087
833.714	23958
833.852	24178
833.991	24171
834.129	24125
834.267	24060
834.406	23992
834.544	24038
834.682	24079
834.821	24205
834.959	24323
835.097	24136
835.235	24136
835.373	24018
835.511	23984
835.65	23961
835.788	23965
835.926	23809
836.064	23726
836.202	23714
836.34	23889
836.478	23950
836.615	23775
836.753	24030
836.891	24022
837.029	23912
837.167	23813
837.305	23840
837.443	23745
837.58	23649
837.718	23828
837.856	23642
837.993	23760
838.131	23570
838.269	23824
838.406	23592
838.544	23562
838.681	23318
838.819	23482
838.956	23197
839.094	23208
839.231	23246
839.369	23440
839.506	23493
839.643	23497
839.781	23250
839.918	23174
840.055	23231
840.193	23231
840.33	23265
840.467	23159
840.604	23151
840.742	23296
840.879	23064
841.016	23140
841.153	22995
841.29	23212
841.427	23140
841.564	23132
841.701	23178
841.838	23090
841.975	23025
842.112	22961
842.249	23003
842.385	22778
842.522	23052
842.659	22923
842.796	22831
842.933	22820
843.069	22847
843.206	22892
843.343	23090
843.479	22828
843.616	22915
843.752	22748
843.889	22725
844.025	22774
844.162	22774
844.298	22740
844.435	22615
844.571	22577
844.708	22668
844.844	22793
844.98	22672
845.117	22824
845.253	22607
845.389	22493
845.525	22615
845.661	22546
845.798	22409
845.934	22455
846.07	22443
846.206	22390
846.342	22402
846.478	22413
846.614	22253
846.75	22070
846.886	22105
847.022	22234
847.158	22124
847.294	22048
847.429	22200
847.565	22120
847.701	22314
847.837	21720
847.972	21759
848.108	22025
848.244	22025
848.379	21854
848.515	21793
848.65	21686
848.786	21667
848.921	21743
849.057	21774
849.192	21850
849.328	21675
849.463	21675
849.598	21679
849.734	21538
849.869	21439
850.004	21504
850.14	21545
850.275	21473
850.41	21397
850.545	21511
850.68	21439
850.815	21553
850.95	21435
851.085	21698
851.22	21614
851.355	21603
851.49	21367
851.625	21359
851.76	21477
851.895	21462
852.03	21336
852.165	21378
852.299	21454
852.434	21583
852.569	21367
852.703	21477
852.838	21599
852.973	21469
853.107	21576
853.242	21374
853.376	21325
853.511	21188
853.645	21313
853.78	21237
853.914	21382
854.048	21192
854.183	21230
854.317	21268
854.451	21492
854.585	21382
854.72	21279
854.854	21378
854.988	21237
855.122	21344
855.256	21272
855.39	21275
855.524	21279
855.658	21412
855.792	21340
855.926	21298
856.06	21370
856.194	21462
856.327	21230
856.461	21192
856.595	21245
856.729	21260
856.862	21378
856.996	21374
857.13	21340
857.263	21473
857.397	21473
857.53	21268
857.664	21313
857.797	21435
857.931	21348
858.064	21233
858.197	21336
858.331	21249
858.464	21313
858.597	21275
858.731	21405
858.864	21256
858.997	21249
859.13	21233
859.263	21268
859.396	21340
859.529	21313
859.662	21332
859.795	21344
859.928	21408
860.061	21447
860.194	21382
860.327	21344
860.46	21348
860.592	21515
860.725	21458
860.858	21466
860.99	21344
861.123	21218
861.256	21203
861.388	21359
861.521	21884
861.653	21245
861.786	21108
861.918	21085
862.05	21135
862.183	21264
862.315	21150
862.447	21192
862.58	21176
862.712	21074
862.844	20979
862.976	21146
863.108	21131
863.24	21348
863.372	20994
863.504	20994
863.636	20990
863.768	20944
863.9	20986
864.032	20800
864.164	21001
864.296	20990
864.428	21157
864.559	21005
864.691	21142
864.823	20998
864.954	21020
865.086	20941
865.217	20891
865.349	20807
865.48	20929
865.612	20864
865.743	20929
865.875	20914
866.006	20975
866.137	20960
866.269	20891
866.4	20853
866.531	20895
866.662	20792
866.793	20781
866.924	20906
867.055	20815
867.186	20929
867.317	20686
867.448	20594
867.579	20842
867.71	20724
867.841	20872
867.972	20864
868.103	20842
868.233	20788
868.364	20804
868.495	20876
868.625	20937
868.756	21154
868.886	20902
869.017	20963
869.147	21138
869.278	21249
869.408	21138
869.539	21146
869.669	21074
869.799	21161
869.929	21237
870.06	21207
870.19	21370
870.32	21344
870.45	21458
870.58	21496
870.71	21591
870.84	21568
870.97	21534
871.1	21424
871.23	21652
871.36	21641
871.489	21610
871.619	21751
871.749	21682
871.879	21614
872.008	21804
872.138	21808
872.267	21709
872.397	21675
872.526	21549
872.656	21492
872.785	21443
872.915	21701
873.044	21751
873.173	21694
873.303	21789
873.432	21846
873.561	21850
873.69	21637
873.819	21781
873.948	21850
874.077	21751
874.206	21644
874.335	21793
874.464	21781
874.593	21930
874.722	21850
874.851	21960
874.979	21979
875.108	21987
875.237	22013
875.365	21899
875.494	21880
875.623	21994
875.751	21930
875.88	22074
876.008	22101
876.136	22128
876.265	22405
876.393	22360
876.521	22440
876.65	22348
876.778	22436
876.906	22211
877.034	22181
877.162	22421
877.29	22192
877.418	22314
877.546	22265
877.674	22363
877.802	22223
877.93	22287
878.058	22394
878.185	22196
878.313	22188
878.441	22230
878.568	22101
878.696	22147
878.824	22428
878.951	22440
879.079	22497
879.206	22561
879.333	22519
879.461	22280
879.588	22424
879.715	22508
879.842	22592
879.97	22424
880.097	22124
880.224	22059
880.351	22219
880.478	22230
880.605	22116
880.732	22158
880.859	22356
880.986	22219
881.112	22036
881.239	21983
881.366	21816
881.493	21907
881.619	21637
881.746	21701
881.872	21701
881.999	21587
882.125	21660
882.252	21698
882.378	21561
882.505	21793
882.631	21454
882.757	21538
882.883	21450
883.01	21340
883.136	21298
883.262	21154
883.388	21249
883.514	21424
883.64	21428
883.766	21359
883.892	21150
884.018	21233
884.143	21355
884.269	21405
884.395	21135
884.52	21089
884.646	21081
884.772	20967
884.897	21036
885.023	21074
885.148	21176
885.274	21119
885.399	21135
885.524	21001
885.65	21180
885.775	20963
885.9	21047
886.025	21188
886.15	21123
886.275	20967
886.4	20937
886.525	20921
886.65	20933
886.775	20990
886.9	21116
887.025	21313
887.149	20921
887.274	20750
887.399	20762
887.523	20754
887.648	20758
887.773	20724
887.897	20796
888.021	20861
888.146	20788
888.27	20921
888.395	20902
888.519	20754
888.643	20838
888.767	20937
888.891	20693
889.015	20644
889.139	20705
889.263	20522
889.387	20659
889.511	20785
889.635	20678
889.759	20571
889.883	20507
890.006	20602
890.13	20651
890.254	20518
890.377	20590
890.501	20229
890.624	20301
890.748	20450
890.871	20263
890.995	20161
891.118	20100
891.241	20142
891.364	20172
891.488	20370
891.611	20164
891.734	20191
891.857	20199
891.98	20214
892.103	20282
892.226	20187
892.349	20126
892.471	19917
892.594	20058
892.717	20183
892.839	20035
892.962	20096
893.085	20244
893.207	20088
893.33	20035
893.452	19932
893.575	20149
893.697	20031
893.819	20271
893.941	20233
894.064	20153
894.186	20001
894.308	20039
894.43	20180
894.552	20096
894.674	20195
894.796	20043
894.918	20065
895.04	20043
895.161	20039
895.283	20069
895.405	19925
895.526	20100
895.648	19997
895.769	20202
895.891	20115
896.012	20206
896.134	20248
896.255	20103
896.376	20005
896.498	20138
896.619	20107
896.74	20058
896.861	20180
896.982	20332
897.103	20545
897.224	20362
897.345	20396
897.466	20320
897.587	20324
897.708	20438
897.828	20339
897.949	20278
898.07	20111
898.19	20240
898.311	20339
898.431	20240
898.552	20351
898.672	20530
898.792	20347
898.913	20233
899.033	20271
899.153	20214
899.273	20008
899.393	20111
899.513	20149
899.633	20081
899.753	20065
899.873	20050
899.993	20115
900.113	19932
900.232	20107
900.352	19986
900.472	19970
900.591	19795
900.711	19913
900.83	19784
900.95	19947
901.069	20016
901.189	19738
901.308	19460
901.427	19358
901.546	19430
901.665	19411
901.784	19384
901.904	19339
902.023	19228
902.141	19027
902.26	18856
902.379	19076
902.498	18970
902.617	18840
902.735	18973
902.854	18833
902.973	18848
903.091	18608
903.21	18658
903.328	18692
903.446	18498
903.565	18388
903.683	18418
903.801	18213
903.919	18372
904.038	18228
904.156	18163
904.274	18220
904.392	18205
904.51	18167
904.627	18095
904.745	18266
904.863	18243
904.981	18015
905.098	17817
905.216	17836
905.334	17923
905.451	17855
905.569	17783
905.686	17931
905.803	17786
905.921	17642
906.038	17657
906.155	17551
906.272	17505
906.389	17573
906.506	17364
906.623	17341
906.74	17349
906.857	17265
906.974	17322
907.091	17421
907.208	17383
907.324	17410
907.441	17292
907.557	17086
907.674	17079
907.79	17105
907.907	17045
908.023	17033
908.139	17045
908.256	17018
908.372	17083
908.488	16892
908.604	16866
908.72	16805
908.836	16786
908.952	16797
909.068	16740
909.184	16793
909.3	16866
909.415	16774
909.531	16835
909.647	16592
909.762	16478
909.878	16550
909.993	16440
910.108	16493
910.224	16443
910.339	16516
910.454	16363
910.57	16371
910.685	16325
910.8	16519
910.915	16535
911.03	16295
911.145	16109
911.259	16128
911.374	16185
911.489	16032
911.604	16082
911.718	15865
911.833	15804
911.947	15739
912.062	15717
912.176	15797
912.291	15842
912.405	15762
912.519	16010
912.633	16051
912.748	15766
912.862	15778
912.976	15762
913.09	15519
913.204	15625
913.318	15610
913.431	15732
913.545	15816
913.659	15854
913.772	15610
913.886	15538
914	15401
914.113	15530
914.226	15504
914.34	15523
914.453	15363
914.566	15458
914.68	15192
914.793	15367
914.906	15157
915.019	15108
915.132	15032
915.245	15005
915.358	15077
915.47	15081
915.583	15100
915.696	15074
915.809	15203
915.921	15165
916.034	15093
916.146	14998
916.259	14895
916.371	14944
916.483	15093
916.595	14845
916.708	14937
916.82	14982
916.932	14914
917.044	14823
917.156	14800
917.268	14716
917.38	14781
917.491	14640
917.603	14659
917.715	14804
917.826	14830
917.938	14746
918.049	14613
918.161	14617
918.272	14796
918.384	14788
918.495	14697
918.606	14556
918.717	14434
918.828	14598
918.939	14427
919.05	14450
919.161	14514
919.272	14370
919.383	14358
919.494	14442
919.604	14644
919.715	14499
919.826	14381
919.936	14320
920.047	14541
920.157	14461
920.267	14556
920.378	14404
920.488	14396
920.598	14590
920.708	14716
920.818	14556
920.928	14594
921.038	14708
921.148	14670
921.258	14431
921.368	14320
921.477	14187
921.587	14206
921.697	14077
921.806	14229
921.916	14084
922.025	13879
922.134	13769
922.244	13753
922.353	13811
922.462	13757
922.571	13632
922.68	13438
922.789	13502
922.898	13483
923.007	13449
923.116	13567
923.224	13521
923.333	13514
923.442	13358
923.55	13304
923.659	13335
923.767	13324
923.876	13350
923.984	13320
924.092	13129
924.201	13232
924.309	13228
924.417	13392
924.525	13171
924.633	13129
924.741	13917
924.849	12878
924.956	13091
925.064	12894
925.172	12825
925.279	12863
925.387	12939
925.494	12852
925.602	13069
925.709	12973
925.816	12779
925.924	12844
926.031	12958
926.138	12840
926.245	12871
926.352	12719
926.459	12852
926.566	12825
926.673	12821
926.779	12665
926.886	12650
926.993	12448
927.099	12521
927.206	12464
927.312	12479
927.419	12578
927.525	12483
927.631	12426
927.737	12346
927.843	12254
927.95	12224
928.056	12395
928.162	12289
928.267	12365
928.373	13031
928.479	12346
928.585	12121
928.69	12182
928.796	12224
928.901	12175
929.007	12007
929.112	12152
929.218	12178
929.323	12117
929.428	11942
929.533	12125
929.638	11965
929.743	11984
929.848	12030
929.953	12057
930.058	11893
930.163	11707
930.267	11638
930.372	11783
930.477	11668
930.581	11969
930.685	11783
930.79	11570
930.894	11615
930.998	11551
931.103	11726
931.207	11376
931.311	11273
931.415	11159
931.519	11022
931.623	10980
