Data from test_V78500241_1312.txt Node
Date: Fri Mar 25 15:18:59 CST 2022
User: usil
Spectrometer: V785-0024
Trigger mode: 0
Integration Time (sec): 4.000000E-1
Scans to average: 1
Nonlinearity correction enabled: false
Boxcar width: 0
Storing dark spectrum: false
XAxis mode: Wavelengths
Number of Pixels in Spectrum: 1024
>>>>>Begin Spectral Data<<<<<
801.071	27911
801.214	27953
801.356	27686
801.499	27530
801.641	27580
801.783	27454
801.926	27427
802.068	27401
802.211	27389
802.353	27367
802.496	27127
802.638	27131
802.78	27104
802.923	27077
803.065	26944
803.208	26944
803.35	27081
803.492	27306
803.635	27321
803.777	27325
803.919	27420
804.061	27671
804.204	27298
804.346	27340
804.488	27313
804.63	27336
804.773	27264
804.915	27245
805.057	27561
805.199	27325
805.341	27317
805.483	27583
805.626	27443
805.768	27443
805.91	27545
806.052	27511
806.194	27378
806.336	27663
806.478	27492
806.62	27538
806.762	27705
806.904	27850
807.046	27972
807.188	27998
807.33	27960
807.472	27926
807.614	27842
807.756	27743
807.898	27728
808.04	27751
808.182	27865
808.324	27747
808.465	27770
808.607	28048
808.749	28219
808.891	28181
809.033	28322
809.174	28230
809.316	28139
809.458	28219
809.6	28044
809.741	28147
809.883	28257
810.025	28451
810.166	28459
810.308	28508
810.45	28363
810.591	28436
810.733	28219
810.875	28173
811.016	28040
811.158	28109
811.299	28158
811.441	28234
811.582	28394
811.724	28101
811.865	28147
812.007	28196
812.148	28249
812.29	28192
812.431	28447
812.573	28580
812.714	28557
812.855	28679
812.997	28763
813.138	29010
813.279	28843
813.421	28691
813.562	28683
813.703	28447
813.845	28356
813.986	28120
814.127	27857
814.268	27861
814.41	27873
814.551	27785
814.692	27861
814.833	27793
814.974	27762
815.115	27850
815.256	27842
815.397	27686
815.539	27743
815.68	27591
815.821	27633
815.962	27564
816.103	27576
816.244	27507
816.385	27504
816.526	27435
816.666	27291
816.807	27211
816.948	27173
817.089	27222
817.23	27195
817.371	27268
817.512	27119
817.653	27169
817.793	27081
817.934	27089
818.075	27199
818.216	27108
818.356	27089
818.497	26982
818.638	26925
818.778	26838
818.919	26876
819.06	27089
819.2	27138
819.341	27180
819.481	27279
819.622	27287
819.762	27488
819.903	27393
820.043	27344
820.184	27222
820.324	27199
820.465	27408
820.605	27222
820.746	27302
820.886	27142
821.026	27184
821.167	27138
821.307	27127
821.447	27192
821.588	27032
821.728	26994
821.868	26864
822.008	26670
822.149	26636
822.289	26667
822.429	26267
822.569	26286
822.709	26282
822.849	26149
822.99	26191
823.13	26027
823.27	26035
823.41	25936
823.55	26012
823.69	26058
823.83	26046
823.97	25849
824.11	25586
824.25	25765
824.389	25860
824.529	25860
824.669	25662
824.809	25978
824.949	25868
825.089	25818
825.228	25753
825.368	25590
825.508	25601
825.648	25628
825.787	25628
825.927	25742
826.067	25647
826.206	25803
826.346	25689
826.485	25620
826.625	25616
826.765	25723
826.904	25708
827.044	25407
827.183	25335
827.323	25304
827.462	25369
827.601	25308
827.741	25438
827.88	25476
828.02	25240
828.159	25369
828.298	25441
828.437	25582
828.577	25358
828.716	25312
828.855	25285
828.994	25145
829.134	24977
829.273	25034
829.412	24992
829.551	25019
829.69	25050
829.829	25031
829.968	25171
830.107	25008
830.246	25023
830.385	24966
830.524	24973
830.663	24897
830.802	24757
830.941	24677
831.08	24623
831.219	24700
831.357	24734
831.496	24871
831.635	24635
831.774	24783
831.913	24483
832.051	24505
832.19	24460
832.329	24407
832.467	24338
832.606	24209
832.744	24334
832.883	24186
833.022	24281
833.16	24289
833.299	24418
833.437	24266
833.576	24452
833.714	24460
833.852	24441
833.991	24490
834.129	24513
834.267	24525
834.406	24323
834.544	24490
834.682	24338
834.821	24399
834.959	24521
835.097	24372
835.235	24475
835.373	24357
835.511	24346
835.65	24216
835.788	24311
835.926	24144
836.064	24129
836.202	24114
836.34	24197
836.478	24372
836.615	24174
836.753	24171
836.891	24399
837.029	24144
837.167	24114
837.305	24053
837.443	24026
837.58	24026
837.718	24133
837.856	24114
837.993	24007
838.131	23999
838.269	23988
838.406	23935
838.544	23942
838.681	23729
838.819	23737
838.956	23501
839.094	23570
839.231	23592
839.369	23668
839.506	23893
839.643	23748
839.781	23646
839.918	23497
840.055	23619
840.193	23440
840.33	23459
840.467	23547
840.604	23562
840.742	23707
840.879	23239
841.016	23364
841.153	23406
841.29	23604
841.427	23414
841.564	23452
841.701	23543
841.838	23440
841.975	23341
842.112	23280
842.249	23185
842.385	23231
842.522	23455
842.659	23231
842.796	23174
842.933	23155
843.069	23109
843.206	23132
843.343	23254
843.479	23178
843.616	23124
843.752	22991
843.889	23018
844.025	23033
844.162	23086
844.298	23105
844.435	23006
844.571	22946
844.708	22980
844.844	23075
844.98	23037
845.117	22995
845.253	22980
845.389	22763
845.525	22854
845.661	22858
845.798	22713
845.934	22755
846.07	22672
846.206	22668
846.342	22885
846.478	22698
846.614	22603
846.75	22413
846.886	22443
847.022	22462
847.158	22409
847.294	22474
847.429	22500
847.565	22348
847.701	22797
847.837	22223
847.972	22116
848.108	22287
848.244	22249
848.379	22143
848.515	21964
848.65	22044
848.786	22082
848.921	22109
849.057	22120
849.192	22097
849.328	22219
849.463	22082
849.598	21895
849.734	21842
849.869	21884
850.004	21827
850.14	21911
850.275	21854
850.41	21705
850.545	21793
850.68	21846
850.815	21846
850.95	21873
851.085	21975
851.22	21926
851.355	21907
851.49	21770
851.625	21747
851.76	21736
851.895	21622
852.03	21663
852.165	21789
852.299	21732
852.434	21842
852.569	21778
852.703	21797
852.838	21759
852.973	22120
853.107	21949
853.242	21709
853.376	21648
853.511	21519
853.645	21557
853.78	21671
853.914	21732
854.048	21679
854.183	21656
854.317	21675
854.451	21789
854.585	21679
854.72	21698
854.854	21808
854.988	21728
855.122	21610
855.256	21557
855.39	21633
855.524	21625
855.658	21755
855.792	21648
855.926	21583
856.06	21793
856.194	21728
856.327	21625
856.461	21576
856.595	21629
856.729	21663
856.862	21698
856.996	21675
857.13	21633
857.263	21789
857.397	21804
857.53	21671
857.664	21717
857.797	21599
857.931	21701
858.064	21614
858.197	21686
858.331	21515
858.464	21538
858.597	21587
858.731	21637
858.864	21694
858.997	21618
859.13	21583
859.263	21633
859.396	21603
859.529	21656
859.662	21572
859.795	21340
859.928	21663
860.061	21743
860.194	21770
860.327	21751
860.46	21644
860.592	21656
860.725	21743
860.858	21808
860.99	21576
861.123	21500
861.256	21485
861.388	21603
861.521	22257
861.653	21580
861.786	21458
861.918	21355
862.05	21526
862.183	21599
862.315	21576
862.447	21564
862.58	21549
862.712	21306
862.844	21325
862.976	21443
863.108	21408
863.24	21717
863.372	21256
863.504	21310
863.636	21329
863.768	21393
863.9	21374
864.032	21195
864.164	21294
864.296	21340
864.428	21534
864.559	21428
864.691	21355
864.823	21317
864.954	21275
865.086	21252
865.217	21245
865.349	21066
865.48	21214
865.612	21245
865.743	21348
865.875	21317
866.006	21230
866.137	21283
866.269	21112
866.4	21268
866.531	21154
866.662	21043
866.793	21211
866.924	21135
867.055	21055
867.186	21165
867.317	21135
867.448	21051
867.579	21039
867.71	21047
867.841	20956
867.972	21093
868.103	20952
868.233	21203
868.364	21157
868.495	21306
868.625	21260
868.756	21469
868.886	21275
869.017	21496
869.147	21443
869.278	21466
869.408	21420
869.539	21355
869.669	21450
869.799	21363
869.929	21572
870.06	21473
870.19	21690
870.32	21686
870.45	21656
870.58	21732
870.71	21831
870.84	21949
870.97	21808
871.1	21648
871.23	21987
871.36	21941
871.489	21915
871.619	21949
871.749	22017
871.879	22109
872.008	21949
872.138	21991
872.267	22029
872.397	21698
872.526	21793
872.656	21895
872.785	21808
872.915	22192
873.044	22139
873.173	21960
873.303	21949
873.432	21994
873.561	21998
873.69	21994
873.819	22063
873.948	22090
874.077	22158
874.206	21922
874.335	21964
874.464	22070
874.593	22234
874.722	22169
874.851	22265
874.979	22253
875.108	22299
875.237	22234
875.365	22131
875.494	22173
875.623	22299
875.751	22230
875.88	22204
876.008	22268
876.136	22470
876.265	22611
876.393	22713
876.521	22691
876.65	22660
876.778	22443
876.906	22580
877.034	22546
877.162	22569
877.29	22546
877.418	22577
877.546	22531
877.674	22603
877.802	22500
877.93	22618
878.058	22417
878.185	22436
878.313	22466
878.441	22459
878.568	22181
878.696	22481
878.824	22637
878.951	22645
879.079	22736
879.206	22877
879.333	22584
879.461	22459
879.588	22786
879.715	22790
879.842	22828
879.97	22679
880.097	22421
880.224	22363
880.351	22504
880.478	22398
880.605	22344
880.732	22333
880.859	22592
880.986	22451
881.112	22371
881.239	22249
881.366	22010
881.493	22048
881.619	21911
881.746	21907
881.872	21899
881.999	21846
882.125	21972
882.252	21972
882.378	21987
882.505	22139
882.631	21797
882.757	21724
882.883	21720
883.01	21759
883.136	21583
883.262	21591
883.388	21587
883.514	21637
883.64	21682
883.766	21641
883.892	21408
884.018	21367
884.143	21568
884.269	21641
884.395	21287
884.52	21302
884.646	21397
884.772	21199
884.897	21211
885.023	21340
885.148	21344
885.274	21389
885.399	21329
885.524	21325
885.65	21450
885.775	21283
885.9	21218
886.025	21393
886.15	21340
886.275	21184
886.4	21138
886.525	21279
886.65	21241
886.775	21226
886.9	21477
887.025	21583
887.149	21184
887.274	21154
887.399	20948
887.523	21081
887.648	21108
887.773	21020
887.897	21116
888.021	21119
888.146	21020
888.27	21096
888.395	21119
888.519	21116
888.643	21116
888.767	21020
888.891	20842
889.015	20944
889.139	20925
889.263	20880
889.387	21017
889.511	21013
889.635	21039
889.759	20929
889.883	20819
890.006	20811
890.13	20849
890.254	20781
890.377	20788
890.501	20632
890.624	20541
890.748	20712
890.871	20575
890.995	20408
891.118	20393
891.241	20469
891.364	20385
891.488	20533
891.611	20389
891.734	20450
891.857	20495
891.98	20484
892.103	20488
892.226	20336
892.349	20377
892.471	20313
892.594	20355
892.717	20469
892.839	20275
892.962	20366
893.085	20275
893.207	20301
893.33	20218
893.452	20336
893.575	20355
893.697	20298
893.819	20484
893.941	20434
894.064	20461
894.186	20244
894.308	20161
894.43	20324
894.552	20476
894.674	20431
894.796	20282
894.918	20301
895.04	20248
895.161	20358
895.283	20351
895.405	20202
895.526	20248
895.648	20336
895.769	20317
895.891	20256
896.012	20396
896.134	20351
896.255	20286
896.376	20336
896.498	20256
896.619	20404
896.74	20290
896.861	20286
896.982	20640
897.103	20708
897.224	20670
897.345	20670
897.466	20530
897.587	20370
897.708	20606
897.828	20533
897.949	20434
898.07	20336
898.19	20571
898.311	20617
898.431	20454
898.552	20594
898.672	20450
898.792	20537
898.913	20598
899.033	20385
899.153	20278
899.273	20191
899.393	20320
899.513	20343
899.633	20271
899.753	20309
899.873	20237
899.993	20248
900.113	20298
900.232	20176
900.352	20134
900.472	20183
900.591	20073
900.711	20008
900.83	19986
900.95	20122
901.069	20103
901.189	19925
901.308	19780
901.427	19597
901.546	19670
901.665	19643
901.784	19765
901.904	19426
902.023	19354
902.141	19221
902.26	19213
902.379	19259
902.498	19137
902.617	19004
902.735	19179
902.854	19053
902.973	18981
903.091	18738
903.21	18810
903.328	18757
903.446	18738
903.565	18494
903.683	18677
903.801	18418
903.919	18593
904.038	18578
904.156	18277
904.274	18532
904.392	18289
904.51	18357
904.627	18346
904.745	18433
904.863	18540
904.981	18239
905.098	17969
905.216	18045
905.334	18102
905.451	18072
905.569	18072
905.686	17984
905.803	17969
905.921	17813
906.038	17901
906.155	17870
906.272	17840
906.389	17847
906.506	17634
906.623	17630
906.74	17551
906.857	17493
906.974	17391
907.091	17649
907.208	17668
907.324	17558
907.441	17410
907.557	17326
907.674	17204
907.79	17235
907.907	17269
908.023	17284
908.139	17284
908.256	17181
908.372	17250
908.488	17105
908.604	16965
908.72	16873
908.836	17014
908.952	17037
909.068	16953
909.184	17010
909.3	16949
909.415	17121
909.531	16987
909.647	16843
909.762	16599
909.878	16668
909.993	16672
910.108	16668
910.224	16706
910.339	16653
910.454	16455
910.57	16546
910.685	16512
910.8	16748
910.915	16748
911.03	16577
911.145	16424
911.259	16314
911.374	16386
911.489	16139
911.604	16272
911.718	16006
911.833	16093
911.947	15998
912.062	15857
912.176	15895
912.291	16036
912.405	16051
912.519	16261
912.633	16192
912.748	16078
912.862	16029
912.976	15930
913.09	15732
913.204	15861
913.318	15838
913.431	15975
913.545	15926
913.659	16025
913.772	15937
913.886	15671
914	15656
914.113	15816
914.226	15770
914.34	15671
914.453	15515
914.566	15778
914.68	15519
914.793	15469
914.906	15408
915.019	15310
915.132	15176
915.245	15252
915.358	15287
915.47	15207
915.583	15256
915.696	15275
915.809	15329
915.921	15275
916.034	15199
916.146	15112
916.259	15001
916.371	15252
916.483	15252
916.595	15093
916.708	15184
916.82	15119
916.932	14967
917.044	15062
917.156	15043
917.268	14830
917.38	15005
917.491	14857
917.603	14982
917.715	14906
917.826	15108
917.938	14807
918.049	14746
918.161	14815
918.272	15036
918.384	15005
918.495	14872
918.606	14682
918.717	14594
918.828	14606
918.939	14724
919.05	14610
919.161	14644
919.272	14385
919.383	14564
919.494	14667
919.604	14872
919.715	14571
919.826	14560
919.936	14556
920.047	14712
920.157	14655
920.267	14781
920.378	14678
920.488	14594
920.598	14788
920.708	14880
920.818	14758
920.928	14743
921.038	15009
921.148	14899
921.258	14613
921.368	14488
921.477	14366
921.587	14347
921.697	14195
921.806	14381
921.916	14252
922.025	14005
922.134	14062
922.244	13928
922.353	13986
922.462	13750
922.571	13875
922.68	13734
922.789	13651
922.898	13712
923.007	13620
923.116	13674
923.224	13639
923.333	13632
923.442	13518
923.55	13491
923.659	13422
923.767	13521
923.876	13419
923.984	13472
924.092	13411
924.201	13381
924.309	13396
924.417	13457
924.525	13362
924.633	13289
924.741	14187
924.849	13088
924.956	13247
925.064	13122
925.172	13053
925.279	13019
925.387	13065
925.494	13103
925.602	13198
925.709	13099
925.816	12916
925.924	12954
926.031	13019
926.138	13072
926.245	13065
926.352	12810
926.459	13050
926.566	13053
926.673	12916
926.779	12741
926.886	12829
926.993	12620
927.099	12570
927.206	12692
927.312	12669
927.419	12703
927.525	12547
927.631	12563
927.737	12532
927.843	12460
927.95	12395
928.056	12426
928.162	12448
928.267	12494
928.373	13042
928.479	12502
928.585	12277
928.69	12285
928.796	12479
928.901	12330
929.007	12155
929.112	12277
929.218	12239
929.323	12171
929.428	12239
929.533	12262
929.638	12030
929.743	12190
929.848	12155
929.953	12083
930.058	12015
930.163	11840
930.267	11866
930.372	11969
930.477	11821
930.581	12030
930.685	11893
930.79	11832
930.894	11809
930.998	11745
931.103	11958
931.207	11459
931.311	11353
931.415	11292
931.519	11086
931.623	11048
