Data from test_V78500241_425.txt Node
Date: Fri Mar 25 15:12:49 CST 2022
User: usil
Spectrometer: V785-0024
Trigger mode: 0
Integration Time (sec): 4.000000E-1
Scans to average: 1
Nonlinearity correction enabled: false
Boxcar width: 0
Storing dark spectrum: false
XAxis mode: Wavelengths
Number of Pixels in Spectrum: 1024
>>>>>Begin Spectral Data<<<<<
801.071	27089
801.214	27226
801.356	27085
801.499	26952
801.641	26655
801.783	26842
801.926	26788
802.068	26758
802.211	26777
802.353	26587
802.496	26393
802.638	26396
802.78	26301
802.923	26355
803.065	26294
803.208	26122
803.35	26396
803.492	26412
803.635	26514
803.777	26461
803.919	26511
804.061	26914
804.204	26396
804.346	26514
804.488	26537
804.63	26511
804.773	26431
804.915	26552
805.057	26773
805.199	26476
805.341	26701
805.483	26598
805.626	26689
805.768	26583
805.91	26682
806.052	26545
806.194	26613
806.336	26925
806.478	26629
806.62	26754
806.762	26583
806.904	26872
807.046	27150
807.188	27058
807.33	26979
807.472	27214
807.614	27039
807.756	26971
807.898	26830
808.04	26815
808.182	26830
808.324	26971
808.465	26834
808.607	26967
808.749	27199
808.891	27268
809.033	27431
809.174	27298
809.316	27135
809.458	27135
809.6	27112
809.741	27363
809.883	27336
810.025	27660
810.166	27595
810.308	27492
810.45	27431
810.591	27530
810.733	27272
810.875	27268
811.016	27089
811.158	27081
811.299	27211
811.441	27298
811.582	27462
811.724	27302
811.865	27135
812.007	27195
812.148	27241
812.29	27321
812.431	27370
812.573	27606
812.714	27549
812.855	27690
812.997	27911
813.138	28116
813.279	27797
813.421	27610
813.562	27663
813.703	27496
813.845	27416
813.986	27085
814.127	26948
814.268	26975
814.41	26785
814.551	26796
814.692	27013
814.833	26807
814.974	26845
815.115	26982
815.256	26674
815.397	26804
815.539	26842
815.68	26609
815.821	26621
815.962	26663
816.103	26579
816.244	26575
816.385	26530
816.526	26457
816.666	26339
816.807	26244
816.948	26248
817.089	26202
817.23	26214
817.371	26206
817.512	26153
817.653	26164
817.793	26214
817.934	26240
818.075	26244
818.216	26248
818.356	26096
818.497	26096
818.638	25917
818.778	25856
818.919	25875
819.06	25986
819.2	26172
819.341	26008
819.481	26145
819.622	26415
819.762	26507
819.903	26484
820.043	26275
820.184	26309
820.324	26221
820.465	26438
820.605	26214
820.746	26195
820.886	26107
821.026	26244
821.167	26195
821.307	26294
821.447	26149
821.588	25959
821.728	25925
821.868	25799
822.008	25677
822.149	25601
822.289	25521
822.429	25449
822.569	25377
822.709	25285
822.849	25225
822.99	25069
823.13	25107
823.27	25107
823.41	24871
823.55	24856
823.69	24970
823.83	24973
823.97	24897
824.11	24696
824.25	24700
824.389	24658
824.529	24951
824.669	24795
824.809	24867
824.949	24844
825.089	24821
825.228	24787
825.368	24601
825.508	24658
825.648	24665
825.787	24760
825.927	24730
826.067	24521
826.206	24661
826.346	24665
826.485	24646
826.625	24604
826.765	24646
826.904	24601
827.044	24426
827.183	24365
827.323	24410
827.462	24483
827.601	24353
827.741	24365
827.88	24467
828.02	24289
828.159	24445
828.298	24319
828.437	24357
828.577	24311
828.716	24467
828.855	24136
828.994	24155
829.134	24155
829.273	24243
829.412	23901
829.551	24053
829.69	24106
829.829	24015
829.968	24148
830.107	24072
830.246	24083
830.385	24079
830.524	23927
830.663	23912
830.802	23843
830.941	23634
831.08	23653
831.219	23821
831.357	23779
831.496	23901
831.635	23714
831.774	23691
831.913	23505
832.051	23482
832.19	23585
832.329	23585
832.467	23277
832.606	23220
832.744	23250
832.883	23334
833.022	23334
833.16	23349
833.299	23429
833.437	23417
833.576	23516
833.714	23410
833.852	23509
833.991	23528
834.129	23444
834.267	23509
834.406	23429
834.544	23554
834.682	23433
834.821	23459
834.959	23615
835.097	23299
835.235	23440
835.373	23414
835.511	23429
835.65	23307
835.788	23398
835.926	23208
836.064	23193
836.202	23143
836.34	23372
836.478	23440
836.615	23307
836.753	23376
836.891	23509
837.029	23330
837.167	23231
837.305	23242
837.443	23353
837.58	23056
837.718	23242
837.856	23185
837.993	23075
838.131	23018
838.269	22881
838.406	23094
838.544	22984
838.681	22828
838.819	22713
838.956	22634
839.094	22432
839.231	22554
839.369	22915
839.506	22999
839.643	22771
839.781	22729
839.918	22599
840.055	22516
840.193	22596
840.33	22519
840.467	22569
840.604	22512
840.742	22839
840.879	22493
841.016	22417
841.153	22538
841.29	22706
841.427	22523
841.564	22645
841.701	22584
841.838	22588
841.975	22421
842.112	22481
842.249	22299
842.385	22196
842.522	22569
842.659	22402
842.796	22356
842.933	22284
843.069	22166
843.206	22253
843.343	22276
843.479	22329
843.616	22272
843.752	22021
843.889	22093
844.025	22082
844.162	22067
844.298	22211
844.435	22147
844.571	22036
844.708	22078
844.844	22310
844.98	22158
845.117	22154
845.253	22093
845.389	21915
845.525	21884
845.661	21930
845.798	21911
845.934	21876
846.07	21679
846.206	21819
846.342	22017
846.478	21888
846.614	21732
846.75	21500
846.886	21496
847.022	21606
847.158	21629
847.294	21622
847.429	21720
847.565	21549
847.701	21705
847.837	21268
847.972	21359
848.108	21329
848.244	21416
848.379	21176
848.515	21207
848.65	21195
848.786	21161
848.921	21241
849.057	21058
849.192	21310
849.328	21093
849.463	21055
849.598	21154
849.734	20963
849.869	21077
850.004	20842
850.14	21005
850.275	20986
850.41	20861
850.545	20769
850.68	20941
850.815	20971
850.95	20948
851.085	21138
851.22	21017
851.355	20941
851.49	20910
851.625	20857
851.76	20838
851.895	20727
852.03	20819
852.165	20857
852.299	21036
852.434	20876
852.569	21024
852.703	20872
852.838	21039
852.973	21013
853.107	20948
853.242	20743
853.376	20735
853.511	20648
853.645	20708
853.78	20845
853.914	20758
854.048	20693
854.183	20800
854.317	20762
854.451	20971
854.585	20800
854.72	20773
854.854	20769
854.988	20674
855.122	20636
855.256	20609
855.39	20533
855.524	20724
855.658	20785
855.792	20727
855.926	20693
856.06	20857
856.194	20914
856.327	20838
856.461	20609
856.595	20655
856.729	20750
856.862	20842
856.996	20678
857.13	20849
857.263	20902
857.397	20834
857.53	20644
857.664	20857
857.797	20815
857.931	20735
858.064	20861
858.197	20830
858.331	20735
858.464	20769
858.597	20727
858.731	20663
858.864	20765
858.997	20746
859.13	20777
859.263	20785
859.396	20872
859.529	20842
859.662	20556
859.795	20674
859.928	20739
860.061	20830
860.194	20937
860.327	20842
860.46	20826
860.592	20777
860.725	20998
860.858	20941
860.99	20815
861.123	20705
861.256	20659
861.388	20804
861.521	21332
861.653	20625
861.786	20571
861.918	20575
862.05	20644
862.183	20590
862.315	20712
862.447	20762
862.58	20590
862.712	20522
862.844	20389
862.976	20507
863.108	20556
863.24	20906
863.372	20396
863.504	20431
863.636	20431
863.768	20511
863.9	20427
864.032	20393
864.164	20252
864.296	20499
864.428	20606
864.559	20503
864.691	20503
864.823	20377
864.954	20381
865.086	20366
865.217	20442
865.349	20355
865.48	20377
865.612	20377
865.743	20446
865.875	20381
866.006	20282
866.137	20309
866.269	20305
866.4	20317
866.531	20278
866.662	20294
866.793	20252
866.924	20320
867.055	20332
867.186	20324
867.317	20301
867.448	20176
867.579	20286
867.71	20328
867.841	20138
867.972	20317
868.103	20282
868.233	20431
868.364	20370
868.495	20347
868.625	20674
868.756	20636
868.886	20492
869.017	20613
869.147	20651
869.278	20609
869.408	20590
869.539	20522
869.669	20625
869.799	20663
869.929	20579
870.06	20750
870.19	20891
870.32	20948
870.45	20807
870.58	20982
870.71	21005
870.84	20998
870.97	20895
871.1	21001
871.23	21032
871.36	21100
871.489	20963
871.619	21081
871.749	21070
871.879	21230
872.008	21355
872.138	21070
872.267	21112
872.397	20979
872.526	20952
872.656	20948
872.785	21161
872.915	21184
873.044	21298
873.173	21089
873.303	21249
873.432	21169
873.561	21241
873.69	21123
873.819	21249
873.948	21203
874.077	21367
874.206	21108
874.335	21264
874.464	21245
874.593	21519
874.722	21275
874.851	21462
874.979	21389
875.108	21416
875.237	21435
875.365	21325
875.494	21370
875.623	21428
875.751	21367
875.88	21408
876.008	21526
876.136	21633
876.265	21823
876.393	21903
876.521	21903
876.65	21903
876.778	21804
876.906	21675
877.034	21720
877.162	21778
877.29	21652
877.418	21629
877.546	21895
877.674	21724
877.802	21732
877.93	21637
878.058	21720
878.185	21595
878.313	21762
878.441	21774
878.568	21652
878.696	21724
878.824	21671
878.951	21854
879.079	21888
879.206	22101
879.333	21842
879.461	21800
879.588	21880
879.715	21998
879.842	21930
879.97	21751
880.097	21595
880.224	21637
880.351	21545
880.478	21553
880.605	21538
880.732	21580
880.859	21751
880.986	21542
881.112	21622
881.239	21374
881.366	21397
881.493	21237
881.619	21108
881.746	21150
881.872	21192
881.999	21214
882.125	21043
882.252	21184
882.378	21211
882.505	21211
882.631	21165
882.757	20857
882.883	20948
883.01	20872
883.136	20853
883.262	20632
883.388	20708
883.514	20880
883.64	20956
883.766	20796
883.892	20697
884.018	20724
884.143	20804
884.269	20849
884.395	20686
884.52	20473
884.646	20629
884.772	20488
884.897	20396
885.023	20533
885.148	20522
885.274	20552
885.399	20636
885.524	20541
885.65	20590
885.775	20549
885.9	20469
886.025	20651
886.15	20541
886.275	20537
886.4	20461
886.525	20545
886.65	20408
886.775	20419
886.9	20511
887.025	20689
887.149	20511
887.274	20396
887.399	20229
887.523	20275
887.648	20256
887.773	20164
887.897	20225
888.021	20351
888.146	20237
888.27	20328
888.395	20457
888.519	20263
888.643	20309
888.767	20328
888.891	20115
889.015	20081
889.139	20199
889.263	20138
889.387	20134
889.511	20275
889.635	20282
889.759	20172
889.883	20084
890.006	20122
890.13	20199
890.254	20039
890.377	20024
890.501	19830
890.624	19883
890.748	19925
890.871	19807
890.995	19753
891.118	19594
891.241	19761
891.364	19613
891.488	19826
891.611	19685
891.734	19643
891.857	19712
891.98	19681
892.103	19746
892.226	19715
892.349	19677
892.471	19419
892.594	19639
892.717	19594
892.839	19521
892.962	19632
893.085	19715
893.207	19674
893.33	19480
893.452	19457
893.575	19594
893.697	19540
893.819	19757
893.941	19807
894.064	19757
894.186	19674
894.308	19472
894.43	19575
894.552	19765
894.674	19571
894.796	19613
894.918	19597
895.04	19487
895.161	19635
895.283	19685
895.405	19506
895.526	19540
895.648	19590
895.769	19658
895.891	19620
896.012	19674
896.134	19609
896.255	19693
896.376	19460
896.498	19514
896.619	19639
896.74	19715
896.861	19537
896.982	19925
897.103	20035
897.224	19940
897.345	19837
897.466	19708
897.587	19837
897.708	19898
897.828	19811
897.949	19830
898.07	19662
898.19	19852
898.311	19868
898.431	19693
898.552	19799
898.672	19833
898.792	19883
898.913	19791
899.033	19666
899.153	19620
899.273	19472
899.393	19594
899.513	19559
899.633	19620
899.753	19514
899.873	19453
899.993	19575
900.113	19586
900.232	19518
900.352	19464
900.472	19339
900.591	19266
900.711	19422
900.83	19312
900.95	19529
901.069	19388
901.189	19297
901.308	19015
901.427	18814
901.546	19012
901.665	18958
901.784	19034
901.904	18768
902.023	18677
902.141	18528
902.26	18471
902.379	18582
902.498	18536
902.617	18464
902.735	18464
902.854	18414
902.973	18330
903.091	18095
903.21	18174
903.328	18121
903.446	18030
903.565	17840
903.683	17946
903.801	17912
903.919	17863
904.038	17824
904.156	17771
904.274	17813
904.392	17771
904.51	17687
904.627	17600
904.745	17729
904.863	17745
904.981	17604
905.098	17497
905.216	17414
905.334	17364
905.451	17425
905.569	17360
905.686	17391
905.803	17577
905.921	17204
906.038	17345
906.155	17269
906.272	17162
906.389	17181
906.506	16987
906.623	17018
906.74	16915
906.857	16919
906.974	16862
907.091	17010
907.208	17067
907.324	16984
907.441	16850
907.557	16607
907.674	16805
907.79	16664
907.907	16626
908.023	16763
908.139	16740
908.256	16580
908.372	16573
908.488	16645
908.604	16413
908.72	16333
908.836	16424
908.952	16413
909.068	16379
909.184	16459
909.3	16386
909.415	16344
909.531	16344
909.647	16150
909.762	16143
909.878	16063
909.993	16097
910.108	16074
910.224	16044
910.339	16025
910.454	15987
910.57	15899
910.685	15812
910.8	16177
910.915	16101
911.03	15876
911.145	15797
911.259	15682
911.374	15610
911.489	15629
911.604	15553
911.718	15439
911.833	15492
911.947	15397
912.062	15424
912.176	15439
912.291	15473
912.405	15473
912.519	15622
912.633	15606
912.748	15492
912.862	15477
912.976	15321
913.09	15218
913.204	15283
913.318	15294
913.431	15370
913.545	15325
913.659	15351
913.772	15279
913.886	14990
914	15036
914.113	15154
914.226	15188
914.34	15108
914.453	14960
914.566	15135
914.68	14979
914.793	15047
914.906	14731
915.019	14651
915.132	14629
915.245	14800
915.358	14785
915.47	14663
915.583	14777
915.696	14663
915.809	14826
915.921	14724
916.034	14629
916.146	14659
916.259	14549
916.371	14636
916.483	14670
916.595	14560
916.708	14492
916.82	14568
916.932	14427
917.044	14480
917.156	14606
917.268	14370
917.38	14400
917.491	14389
917.603	14294
917.715	14431
917.826	14511
917.938	14290
918.049	14191
918.161	14404
918.272	14499
918.384	14454
918.495	14298
918.606	14221
918.717	14005
918.828	14172
918.939	14145
919.05	13986
919.161	14058
919.272	13925
919.383	14084
919.494	14233
919.604	14332
919.715	14206
919.826	13974
919.936	14199
920.047	14229
920.157	14092
920.267	14328
920.378	14130
920.488	14145
920.598	14278
920.708	14328
920.818	14263
920.928	14370
921.038	14507
921.148	14336
921.258	14084
921.368	13951
921.477	13822
921.587	13822
921.697	13738
921.806	13879
921.916	13681
922.025	13540
922.134	13472
922.244	13487
922.353	13548
922.462	13373
922.571	13301
922.68	13168
922.789	13217
922.898	13126
923.007	13072
923.116	13247
923.224	13149
923.333	13103
923.442	13019
923.55	12966
923.659	13004
923.767	12989
923.876	12977
923.984	13046
924.092	12787
924.201	12909
924.309	12962
924.417	12916
924.525	12825
924.633	12806
924.741	13704
924.849	12650
924.956	12806
925.064	12623
925.172	12506
925.279	12532
925.387	12688
925.494	12623
925.602	12715
925.709	12734
925.816	12441
925.924	12566
926.031	12589
926.138	12483
926.245	12620
926.352	12475
926.459	12555
926.566	12612
926.673	12403
926.779	12350
926.886	12350
926.993	12182
927.099	12258
927.206	12148
927.312	12015
927.419	12194
927.525	12133
927.631	12133
927.737	12068
927.843	12057
927.95	11885
928.056	11992
928.162	11958
928.267	12034
928.373	12528
928.479	12030
928.585	11824
928.69	11939
928.796	12060
928.901	11847
929.007	11649
929.112	11832
929.218	11824
929.323	11771
929.428	11688
929.533	11893
929.638	11703
929.743	11745
929.848	11691
929.953	11672
930.058	11558
930.163	11467
930.267	11482
930.372	11562
930.477	11383
930.581	11596
930.685	11467
930.79	11326
930.894	11292
930.998	11353
931.103	11360
931.207	10923
931.311	10934
931.415	10919
931.519	10729
931.623	10744
