Data from test_V78500241_504.txt Node
Date: Fri Mar 25 15:13:22 CST 2022
User: usil
Spectrometer: V785-0024
Trigger mode: 0
Integration Time (sec): 4.000000E-1
Scans to average: 1
Nonlinearity correction enabled: false
Boxcar width: 0
Storing dark spectrum: false
XAxis mode: Wavelengths
Number of Pixels in Spectrum: 1024
>>>>>Begin Spectral Data<<<<<
801.071	27515
801.214	27424
801.356	27169
801.499	27279
801.641	26982
801.783	27165
801.926	27039
802.068	27066
802.211	26948
802.353	26834
802.496	26724
802.638	26781
802.78	26754
802.923	26644
803.065	26598
803.208	26697
803.35	26663
803.492	26815
803.635	26925
803.777	26712
803.919	26880
804.061	27123
804.204	26975
804.346	26845
804.488	26883
804.63	26826
804.773	26621
804.915	26815
805.057	27024
805.199	26853
805.341	26899
805.483	26990
805.626	26788
805.768	26724
805.91	26944
806.052	27116
806.194	26956
806.336	27260
806.478	27047
806.62	26940
806.762	27051
806.904	27252
807.046	27340
807.188	27374
807.33	27340
807.472	27466
807.614	27192
807.756	27252
807.898	27173
808.04	27165
808.182	27180
808.324	27222
808.465	27157
808.607	27340
808.749	27557
808.891	27663
809.033	27694
809.174	27812
809.316	27644
809.458	27542
809.6	27675
809.741	27720
809.883	27682
810.025	27781
810.166	27755
810.308	27800
810.45	27747
810.591	27743
810.733	27591
810.875	27549
811.016	27408
811.158	27412
811.299	27637
811.441	27751
811.582	27793
811.724	27652
811.865	27473
812.007	27557
812.148	27599
812.29	27694
812.431	27789
812.573	27819
812.714	28021
812.855	28090
812.997	28097
813.138	28322
813.279	28291
813.421	28287
813.562	28204
813.703	27956
813.845	27823
813.986	27530
814.127	27344
814.268	27214
814.41	27325
814.551	27214
814.692	27245
814.833	27211
814.974	27169
815.115	27180
815.256	27142
815.397	27252
815.539	27028
815.68	27142
815.821	27020
815.962	26982
816.103	27211
816.244	26979
816.385	26876
816.526	26800
816.666	26705
816.807	26636
816.948	26651
817.089	26651
817.23	26663
817.371	26636
817.512	26465
817.653	26434
817.793	26476
817.934	26613
818.075	26640
818.216	26621
818.356	26499
818.497	26457
818.638	26256
818.778	26366
818.919	26358
819.06	26313
819.2	26492
819.341	26541
819.481	26609
819.622	26731
819.762	26948
819.903	26819
820.043	26712
820.184	26883
820.324	26689
820.465	26804
820.605	26590
820.746	26648
820.886	26537
821.026	26670
821.167	26511
821.307	26480
821.447	26575
821.588	26552
821.728	26393
821.868	26187
822.008	25986
822.149	26020
822.289	25959
822.429	25750
822.569	25693
822.709	25674
822.849	25453
822.99	25708
823.13	25476
823.27	25533
823.41	25362
823.55	25206
823.69	25430
823.83	25392
823.97	25282
824.11	25133
824.25	25046
824.389	25122
824.529	25122
824.669	25110
824.809	25301
824.949	25259
825.089	25236
825.228	25198
825.368	25053
825.508	24947
825.648	25152
825.787	24958
825.927	25122
826.067	25050
826.206	25046
826.346	25164
826.485	25027
826.625	24916
826.765	25046
826.904	25126
827.044	24825
827.183	24715
827.323	24806
827.462	24825
827.601	24772
827.741	24582
827.88	24631
828.02	24513
828.159	24707
828.298	24764
828.437	24783
828.577	24791
828.716	24924
828.855	24608
828.994	24467
829.134	24517
829.273	24551
829.412	24429
829.551	24464
829.69	24365
829.829	24323
829.968	24483
830.107	24490
830.246	24456
830.385	24289
830.524	24395
830.663	24190
830.802	24197
830.941	24011
831.08	24038
831.219	24144
831.357	24091
831.496	24327
831.635	24015
831.774	23980
831.913	24007
832.051	23832
832.19	23893
832.329	23901
832.467	23828
832.606	23817
832.744	23699
832.883	23760
833.022	23665
833.16	23691
833.299	23824
833.437	23695
833.576	23828
833.714	23703
833.852	23897
833.991	23863
834.129	23984
834.267	23912
834.406	23752
834.544	23851
834.682	23836
834.821	23737
834.959	23973
835.097	23908
835.235	23809
835.373	23741
835.511	23703
835.65	23619
835.788	23646
835.926	23573
836.064	23429
836.202	23623
836.34	23676
836.478	23722
836.615	23547
836.753	23707
836.891	23668
837.029	23642
837.167	23528
837.305	23604
837.443	23421
837.58	23570
837.718	23596
837.856	23604
837.993	23406
838.131	23478
838.269	23490
838.406	23417
838.544	23398
838.681	23162
838.819	23269
838.956	23033
839.094	22923
839.231	23067
839.369	23147
839.506	23303
839.643	23166
839.781	22984
839.918	22862
840.055	22885
840.193	22980
840.33	22869
840.467	22881
840.604	22854
840.742	23246
840.879	22820
841.016	22748
841.153	22771
841.29	22984
841.427	22763
841.564	22938
841.701	22881
841.838	22790
841.975	22771
842.112	22691
842.249	22577
842.385	22630
842.522	22911
842.659	22675
842.796	22687
842.933	22512
843.069	22565
843.206	22554
843.343	22824
843.479	22717
843.616	22736
843.752	22405
843.889	22424
844.025	22637
844.162	22413
844.298	22462
844.435	22413
844.571	22398
844.708	22478
844.844	22580
844.98	22542
845.117	22516
845.253	22348
845.389	22230
845.525	22402
845.661	22360
845.798	22090
845.934	22261
846.07	22135
846.206	22226
846.342	22154
846.478	22093
846.614	21991
846.75	21892
846.886	21861
847.022	21911
847.158	21949
847.294	21949
847.429	21804
847.565	21956
847.701	22093
847.837	21618
847.972	21458
848.108	21694
848.244	21739
848.379	21629
848.515	21466
848.65	21572
848.786	21542
848.921	21576
849.057	21481
849.192	21553
849.328	21534
849.463	21549
849.598	21587
849.734	21306
849.869	21336
850.004	21348
850.14	21386
850.275	21344
850.41	21184
850.545	21275
850.68	21195
850.815	21207
850.95	21325
851.085	21386
851.22	21325
851.355	21294
851.49	21135
851.625	21142
851.76	21100
851.895	21218
852.03	21135
852.165	21317
852.299	21237
852.434	21329
852.569	21268
852.703	21348
852.838	21310
852.973	21439
853.107	21397
853.242	21237
853.376	21123
853.511	20979
853.645	21077
853.78	21264
853.914	21077
854.048	20979
854.183	21020
854.317	21036
854.451	21291
854.585	21108
854.72	21176
854.854	21211
854.988	21039
855.122	21116
855.256	20948
855.39	21112
855.524	21184
855.658	21062
855.792	21055
855.926	21028
856.06	21154
856.194	21207
856.327	21180
856.461	21058
856.595	20998
856.729	21055
856.862	21138
856.996	21211
857.13	21192
857.263	21192
857.397	21142
857.53	21157
857.664	21207
857.797	21055
857.931	21272
858.064	20963
858.197	21214
858.331	21165
858.464	20994
858.597	21066
858.731	20979
858.864	21070
858.997	20994
859.13	20952
859.263	21199
859.396	21157
859.529	21024
859.662	21100
859.795	21039
859.928	21135
860.061	21245
860.194	21348
860.327	21252
860.46	21024
860.592	21192
860.725	21207
860.858	21157
860.99	21001
861.123	21036
861.256	21081
861.388	21062
861.521	21823
861.653	20941
861.786	20891
861.918	21032
862.05	20990
862.183	21066
862.315	20944
862.447	21070
862.58	21020
862.712	20750
862.844	20823
862.976	20887
863.108	20864
863.24	21192
863.372	20613
863.504	20758
863.636	20765
863.768	20830
863.9	20739
864.032	20773
864.164	20762
864.296	20750
864.428	20963
864.559	20883
864.691	20861
864.823	20785
864.954	20724
865.086	20792
865.217	20796
865.349	20705
865.48	20746
865.612	20689
865.743	20777
865.875	20743
866.006	20530
866.137	20674
866.269	20701
866.4	20651
866.531	20556
866.662	20648
866.793	20571
866.924	20640
867.055	20762
867.186	20602
867.317	20606
867.448	20526
867.579	20651
867.71	20556
867.841	20590
867.972	20689
868.103	20640
868.233	20693
868.364	20640
868.495	20682
868.625	20902
868.756	20944
868.886	20712
869.017	20880
869.147	20982
869.278	20914
869.408	20929
869.539	20921
869.669	20918
869.799	20979
869.929	20982
870.06	21005
870.19	21142
870.32	21055
870.45	21218
870.58	21226
870.71	21325
870.84	21329
870.97	21291
871.1	21264
871.23	21397
871.36	21477
871.489	21317
871.619	21458
871.749	21507
871.879	21462
872.008	21606
872.138	21496
872.267	21367
872.397	21344
872.526	21351
872.656	21279
872.785	21321
872.915	21473
873.044	21614
873.173	21397
873.303	21572
873.432	21504
873.561	21553
873.69	21515
873.819	21389
873.948	21675
874.077	21523
874.206	21359
874.335	21504
874.464	21587
874.593	21614
874.722	21610
874.851	21804
874.979	21835
875.108	21827
875.237	21557
875.365	21709
875.494	21709
875.623	21797
875.751	21690
875.88	21713
876.008	21838
876.136	21922
876.265	22093
876.393	22280
876.521	22093
876.65	22188
876.778	22086
876.906	22101
877.034	22131
877.162	22010
877.29	22078
877.418	22036
877.546	22246
877.674	22051
877.802	22139
877.93	22109
878.058	22044
878.185	21926
878.313	22025
878.441	21998
878.568	21793
878.696	22002
878.824	22101
878.951	22105
879.079	22238
879.206	22405
879.333	22219
879.461	22051
879.588	22147
879.715	22390
879.842	22356
879.97	22238
880.097	21861
880.224	21880
880.351	21816
880.478	21968
880.605	21766
880.732	21819
880.859	22139
880.986	21774
881.112	21865
881.239	21713
881.366	21656
881.493	21530
881.619	21462
881.746	21428
881.872	21439
881.999	21542
882.125	21374
882.252	21500
882.378	21447
882.505	21435
882.631	21359
882.757	21119
882.883	21355
883.01	21135
883.136	21165
883.262	21173
883.388	21001
883.514	21188
883.64	21207
883.766	21062
883.892	20925
884.018	20963
884.143	21058
884.269	21340
884.395	20834
884.52	20800
884.646	20899
884.772	20712
884.897	20712
885.023	20876
885.148	21001
885.274	20979
885.399	20864
885.524	20777
885.65	20777
885.775	20743
885.9	20716
886.025	20807
886.15	20800
886.275	20796
886.4	20758
886.525	20918
886.65	20648
886.775	20746
886.9	20887
887.025	21032
887.149	20674
887.274	20746
887.399	20648
887.523	20609
887.648	20575
887.773	20454
887.897	20792
888.021	20609
888.146	20511
888.27	20640
888.395	20693
888.519	20598
888.643	20606
888.767	20606
888.891	20514
889.015	20396
889.139	20526
889.263	20240
889.387	20450
889.511	20632
889.635	20575
889.759	20492
889.883	20442
890.006	20514
890.13	20492
890.254	20412
890.377	20343
890.501	20084
890.624	20145
890.748	20191
890.871	20043
890.995	19913
891.118	19833
891.241	19955
891.364	19967
891.488	20092
891.611	19887
891.734	20005
891.857	19978
891.98	20008
892.103	19986
892.226	19909
892.349	19963
892.471	19841
892.594	19898
892.717	19925
892.839	19871
892.962	19833
893.085	19921
893.207	19852
893.33	19757
893.452	19750
893.575	19883
893.697	19799
893.819	20016
893.941	20020
894.064	20054
894.186	19769
894.308	19898
894.43	19921
894.552	20077
894.674	20008
894.796	19715
894.918	19860
895.04	19978
895.161	19959
895.283	19894
895.405	19769
895.526	19719
895.648	19894
895.769	19894
895.891	19822
896.012	19917
896.134	19925
896.255	19898
896.376	19814
896.498	19776
896.619	19951
896.74	19913
896.861	19921
896.982	20130
897.103	20396
897.224	20130
897.345	20077
897.466	20081
897.587	19940
897.708	20244
897.828	20103
897.949	20088
898.07	19982
898.19	20012
898.311	20100
898.431	20024
898.552	20020
898.672	20153
898.792	20046
898.913	20084
899.033	19936
899.153	19841
899.273	19704
899.393	19757
899.513	19909
899.633	19902
899.753	19925
899.873	19750
899.993	19868
900.113	19791
900.232	19803
900.352	19769
900.472	19704
900.591	19571
900.711	19708
900.83	19575
900.95	19727
901.069	19643
901.189	19537
901.308	19213
901.427	19171
901.546	19190
901.665	19240
901.784	19217
901.904	19023
902.023	18977
902.141	18848
902.26	18837
902.379	18783
902.498	18715
902.617	18601
902.735	18719
902.854	18661
902.973	18612
903.091	18369
903.21	18327
903.328	18380
903.446	18266
903.565	18144
903.683	18243
903.801	18110
903.919	18129
904.038	18087
904.156	18019
904.274	18003
904.392	17942
904.51	17904
904.627	17973
904.745	18019
904.863	17916
904.981	17733
905.098	17703
905.216	17672
905.334	17726
905.451	17646
905.569	17554
905.686	17615
905.803	17661
905.921	17493
906.038	17543
906.155	17520
906.272	17292
906.389	17379
906.506	17132
906.623	17216
906.74	17231
906.857	17151
906.974	17128
907.091	17170
907.208	17368
907.324	17117
907.441	17090
907.557	16900
907.674	16946
907.79	16816
907.907	16911
908.023	16900
908.139	16877
908.256	16820
908.372	16873
908.488	16862
908.604	16725
908.72	16554
908.836	16607
908.952	16561
909.068	16710
909.184	16774
909.3	16611
909.415	16630
909.531	16580
909.647	16409
909.762	16299
909.878	16280
909.993	16341
910.108	16367
910.224	16280
910.339	16367
910.454	16116
910.57	16112
910.685	16055
910.8	16421
910.915	16386
911.03	16147
911.145	15979
911.259	16021
911.374	15846
911.489	15918
911.604	15873
911.718	15717
911.833	15675
911.947	15648
912.062	15447
912.176	15614
912.291	15648
912.405	15622
912.519	15808
912.633	15797
912.748	15732
912.862	15724
912.976	15466
913.09	15336
913.204	15466
913.318	15496
913.431	15545
913.545	15606
913.659	15625
913.772	15374
913.886	15252
914	15306
914.113	15298
914.226	15340
914.34	15378
914.453	15218
914.566	15344
914.68	15214
914.793	15173
914.906	15013
915.019	14956
915.132	14876
915.245	14902
915.358	14910
915.47	14967
915.583	14937
915.696	14902
915.809	14941
915.921	14952
916.034	14864
916.146	14845
916.259	14697
916.371	14948
916.483	14929
916.595	14731
916.708	14705
916.82	14830
916.932	14705
917.044	14758
917.156	14686
917.268	14579
917.38	14682
917.491	14594
917.603	14590
917.715	14594
917.826	14689
917.938	14469
918.049	14431
918.161	14476
918.272	14712
918.384	14541
918.495	14511
918.606	14355
918.717	14267
918.828	14328
918.939	14286
919.05	14244
919.161	14385
919.272	14218
919.383	14172
919.494	14419
919.604	14514
919.715	14301
919.826	14263
919.936	14180
920.047	14355
920.157	14317
920.267	14575
920.378	14202
920.488	14309
920.598	14457
920.708	14632
920.818	14404
920.928	14389
921.038	14667
921.148	14552
921.258	14290
921.368	14115
921.477	14005
921.587	13963
921.697	13951
921.806	14024
921.916	13917
922.025	13651
922.134	13685
922.244	13681
922.353	13772
922.462	13586
922.571	13476
922.68	13331
922.789	13312
922.898	13403
923.007	13164
923.116	13384
923.224	13335
923.333	13255
923.442	13194
923.55	13137
923.659	13179
923.767	13217
923.876	13076
923.984	13137
924.092	13061
924.201	13129
924.309	13004
924.417	12993
924.525	13012
924.633	13008
924.741	13818
924.849	12795
924.956	12924
925.064	12833
925.172	12658
925.279	12700
925.387	12825
925.494	12825
925.602	12768
925.709	12833
925.816	12681
925.924	12707
926.031	12760
926.138	12700
926.245	12741
926.352	12642
926.459	12821
926.566	12837
926.673	12623
926.779	12540
926.886	12513
926.993	12388
927.099	12369
927.206	12403
927.312	12365
927.419	12369
927.525	12380
927.631	12391
927.737	12289
927.843	12201
927.95	12129
928.056	12152
928.162	12209
928.267	12216
928.373	12783
928.479	12205
928.585	12026
928.69	12079
928.796	12102
928.901	12049
929.007	11840
929.112	12064
929.218	12015
929.323	11904
929.428	11885
929.533	11889
929.638	11859
929.743	11882
929.848	11878
929.953	11889
930.058	11680
930.163	11566
930.267	11634
930.372	11748
930.477	11596
930.581	11775
930.685	11764
930.79	11482
930.894	11501
930.998	11414
931.103	11497
931.207	11208
931.311	11128
931.415	11132
931.519	10930
931.623	10831
