Data from test_V78500241_448.txt Node
Date: Fri Mar 25 15:12:58 CST 2022
User: usil
Spectrometer: V785-0024
Trigger mode: 0
Integration Time (sec): 4.000000E-1
Scans to average: 1
Nonlinearity correction enabled: false
Boxcar width: 0
Storing dark spectrum: false
XAxis mode: Wavelengths
Number of Pixels in Spectrum: 1024
>>>>>Begin Spectral Data<<<<<
801.071	27180
801.214	27161
801.356	26921
801.499	26868
801.641	26727
801.783	26731
801.926	26773
802.068	26872
802.211	26625
802.353	26571
802.496	26522
802.638	26377
802.78	26442
802.923	26259
803.065	26362
803.208	26404
803.35	26240
803.492	26507
803.635	26507
803.777	26393
803.919	26541
804.061	26720
804.204	26514
804.346	26469
804.488	26465
804.63	26556
804.773	26533
804.915	26499
805.057	26686
805.199	26473
805.341	26682
805.483	26777
805.626	26625
805.768	26541
805.91	26609
806.052	26594
806.194	26545
806.336	26777
806.478	26609
806.62	26682
806.762	26762
806.904	26925
807.046	27138
807.188	26975
807.33	27070
807.472	27036
807.614	26956
807.756	26918
807.898	26880
808.04	26994
808.182	26842
808.324	26781
808.465	26876
808.607	26990
808.749	27070
808.891	27165
809.033	27526
809.174	27336
809.316	27279
809.458	27252
809.6	27169
809.741	27283
809.883	27431
810.025	27348
810.166	27382
810.308	27553
810.45	27492
810.591	27534
810.733	27287
810.875	27256
811.016	27157
811.158	27108
811.299	27302
811.441	27397
811.582	27492
811.724	27272
811.865	27173
812.007	27176
812.148	27195
812.29	27222
812.431	27420
812.573	27443
812.714	27633
812.855	27759
812.997	27800
813.138	28128
813.279	27800
813.421	27698
813.562	27698
813.703	27572
813.845	27458
813.986	27237
814.127	27032
814.268	26971
814.41	26861
814.551	26838
814.692	27001
814.833	26823
814.974	26689
815.115	26880
815.256	26811
815.397	26743
815.539	26689
815.68	26697
815.821	26648
815.962	26804
816.103	26568
816.244	26374
816.385	26545
816.526	26476
816.666	26298
816.807	26103
816.948	26176
817.089	26362
817.23	26107
817.371	26313
817.512	26176
817.653	26199
817.793	26077
817.934	26126
818.075	26362
818.216	26062
818.356	26149
818.497	26046
818.638	25902
818.778	25826
818.919	25902
819.06	25921
819.2	26046
819.341	26199
819.481	26092
819.622	26256
819.762	26609
819.903	26275
820.043	26305
820.184	26400
820.324	26233
820.465	26278
820.605	26324
820.746	26343
820.886	26164
821.026	26210
821.167	26199
821.307	26267
821.447	26221
821.588	26065
821.728	25925
821.868	25738
822.008	25658
822.149	25791
822.289	25662
822.429	25445
822.569	25346
822.709	25114
822.849	25164
822.99	25145
823.13	25103
823.27	25034
823.41	24905
823.55	24757
823.69	24954
823.83	24840
823.97	24817
824.11	24719
824.25	24757
824.389	24760
824.529	24844
824.669	24722
824.809	24791
824.949	24878
825.089	24745
825.228	24859
825.368	24616
825.508	24498
825.648	24646
825.787	24593
825.927	24772
826.067	24509
826.206	24528
826.346	24570
826.485	24627
826.625	24601
826.765	24753
826.904	24650
827.044	24502
827.183	24445
827.323	24296
827.462	24380
827.601	24281
827.741	24224
827.88	24323
828.02	24327
828.159	24270
828.298	24369
828.437	24365
828.577	24296
828.716	24467
828.855	24228
828.994	24018
829.134	24003
829.273	23965
829.412	24015
829.551	23965
829.69	24030
829.829	24121
829.968	24163
830.107	24106
830.246	24121
830.385	23923
830.524	23980
830.663	23840
830.802	23668
830.941	23623
831.08	23615
831.219	23798
831.357	23756
831.496	23912
831.635	23756
831.774	23638
831.913	23718
832.051	23448
832.19	23448
832.329	23364
832.467	23288
832.606	23326
832.744	23337
832.883	23368
833.022	23402
833.16	23360
833.299	23330
833.437	23368
833.576	23448
833.714	23406
833.852	23490
833.991	23425
834.129	23383
834.267	23589
834.406	23436
834.544	23463
834.682	23376
834.821	23254
834.959	23490
835.097	23372
835.235	23490
835.373	23334
835.511	23444
835.65	23288
835.788	23181
835.926	23128
836.064	23064
836.202	23079
836.34	23102
836.478	23269
836.615	23299
836.753	23178
836.891	23334
837.029	23292
837.167	23121
837.305	23025
837.443	23189
837.58	23060
837.718	23094
837.856	23162
837.993	22968
838.131	23181
838.269	23113
838.406	23079
838.544	22976
838.681	22793
838.819	22774
838.956	22630
839.094	22546
839.231	22554
839.369	22736
839.506	23044
839.643	22801
839.781	22478
839.918	22538
840.055	22672
840.193	22523
840.33	22538
840.467	22592
840.604	22603
840.742	22725
840.879	22356
841.016	22489
841.153	22436
841.29	22516
841.427	22565
841.564	22577
841.701	22497
841.838	22447
841.975	22306
842.112	22402
842.249	22287
842.385	22173
842.522	22428
842.659	22363
842.796	22253
842.933	22268
843.069	22226
843.206	22207
843.343	22284
843.479	22352
843.616	22287
843.752	22090
843.889	22090
844.025	22299
844.162	22002
844.298	22150
844.435	22002
844.571	22120
844.708	22051
844.844	22230
844.98	22257
845.117	22040
845.253	22055
845.389	21956
845.525	21911
845.661	21846
845.798	21755
845.934	21888
846.07	21641
846.206	21762
846.342	21930
846.478	21873
846.614	21667
846.75	21458
846.886	21511
847.022	21568
847.158	21553
847.294	21675
847.429	21507
847.565	21587
847.701	21755
847.837	21367
847.972	21237
848.108	21382
848.244	21329
848.379	21077
848.515	21100
848.65	21093
848.786	21135
848.921	21108
849.057	21291
849.192	21127
849.328	21233
849.463	21058
849.598	21085
849.734	21112
849.869	20979
850.004	20910
850.14	20868
850.275	20899
850.41	20754
850.545	20921
850.68	20929
850.815	20781
850.95	20864
851.085	20929
851.22	20956
851.355	20887
851.49	20895
851.625	20823
851.76	20804
851.895	20807
852.03	20693
852.165	20914
852.299	20941
852.434	20975
852.569	20910
852.703	20834
852.838	20933
852.973	20971
853.107	20998
853.242	20800
853.376	20716
853.511	20693
853.645	20762
853.78	20811
853.914	20701
854.048	20678
854.183	20743
854.317	20682
854.451	20918
854.585	20853
854.72	20693
854.854	20720
854.988	20644
855.122	20746
855.256	20629
855.39	20712
855.524	20743
855.658	20674
855.792	20826
855.926	20807
856.06	20731
856.194	20785
856.327	20746
856.461	20636
856.595	20724
856.729	20735
856.862	20842
856.996	20720
857.13	20826
857.263	20811
857.397	20773
857.53	20674
857.664	20834
857.797	20785
857.931	20792
858.064	20777
858.197	20819
858.331	20724
858.464	20678
858.597	20606
858.731	20727
858.864	20670
858.997	20640
859.13	20670
859.263	20720
859.396	20800
859.529	20788
859.662	20663
859.795	20644
859.928	20674
860.061	20864
860.194	20872
860.327	20705
860.46	20826
860.592	20830
860.725	20887
860.858	20826
860.99	20693
861.123	20625
861.256	20583
861.388	20701
861.521	21466
861.653	20480
861.786	20606
861.918	20533
862.05	20575
862.183	20583
862.315	20727
862.447	20849
862.58	20712
862.712	20366
862.844	20366
862.976	20530
863.108	20431
863.24	20948
863.372	20381
863.504	20473
863.636	20446
863.768	20549
863.9	20362
864.032	20362
864.164	20309
864.296	20434
864.428	20507
864.559	20568
864.691	20480
864.823	20427
864.954	20278
865.086	20438
865.217	20370
865.349	20347
865.48	20172
865.612	20408
865.743	20396
865.875	20317
866.006	20301
866.137	20389
866.269	20305
866.4	20336
866.531	20221
866.662	20206
866.793	20351
866.924	20290
867.055	20362
867.186	20278
867.317	20195
867.448	20248
867.579	20221
867.71	20221
867.841	20172
867.972	20229
868.103	20328
868.233	20305
868.364	20290
868.495	20298
868.625	20514
868.756	20655
868.886	20313
869.017	20598
869.147	20667
869.278	20663
869.408	20579
869.539	20514
869.669	20587
869.799	20495
869.929	20670
870.06	20587
870.19	20853
870.32	20788
870.45	20849
870.58	20880
870.71	20963
870.84	21001
870.97	20948
871.1	20941
871.23	21028
871.36	21062
871.489	20982
871.619	21058
871.749	21123
871.879	21096
872.008	21237
872.138	21104
872.267	21127
872.397	20998
872.526	20967
872.656	20963
872.785	20986
872.915	21131
873.044	21275
873.173	21169
873.303	21119
873.432	21272
873.561	21214
873.69	21116
873.819	21310
873.948	21230
874.077	21165
874.206	21081
874.335	21085
874.464	21188
874.593	21348
874.722	21355
874.851	21481
874.979	21393
875.108	21363
875.237	21291
875.365	21211
875.494	21386
875.623	21408
875.751	21416
875.88	21344
876.008	21401
876.136	21572
876.265	21751
876.393	21854
876.521	21941
876.65	21838
876.778	21751
876.906	21720
877.034	21785
877.162	21675
877.29	21667
877.418	21747
877.546	21755
877.674	21675
877.802	21701
877.93	21759
878.058	21648
878.185	21549
878.313	21644
878.441	21656
878.568	21454
878.696	21641
878.824	21663
878.951	21736
879.079	21865
879.206	22116
879.333	22006
879.461	21690
879.588	21800
879.715	21808
879.842	21953
879.97	21755
880.097	21481
880.224	21553
880.351	21603
880.478	21473
880.605	21420
880.732	21587
880.859	21842
880.986	21542
881.112	21572
881.239	21549
881.366	21283
881.493	21218
881.619	21104
881.746	21089
881.872	21268
881.999	21146
882.125	21043
882.252	21119
882.378	21119
882.505	21283
882.631	21001
882.757	20849
882.883	20895
883.01	20929
883.136	20686
883.262	20693
883.388	20804
883.514	20819
883.64	20956
883.766	20781
883.892	20606
884.018	20758
884.143	20804
884.269	20952
884.395	20568
884.52	20503
884.646	20564
884.772	20473
884.897	20381
885.023	20598
885.148	20571
885.274	20579
885.399	20564
885.524	20412
885.65	20667
885.775	20473
885.9	20507
886.025	20564
886.15	20617
886.275	20377
886.4	20404
886.525	20537
886.65	20530
886.775	20317
886.9	20632
887.025	20636
887.149	20518
887.274	20233
887.399	20324
887.523	20240
887.648	20229
887.773	20202
887.897	20358
888.021	20336
888.146	20164
888.27	20305
888.395	20244
888.519	20237
888.643	20271
888.767	20412
888.891	20240
889.015	20145
889.139	20202
889.263	20062
889.387	20229
889.511	20309
889.635	20157
889.759	20119
889.883	20107
890.006	20016
890.13	20183
890.254	19875
890.377	20020
890.501	19723
890.624	19780
890.748	19925
890.871	19655
890.995	19632
891.118	19689
891.241	19628
891.364	19613
891.488	19784
891.611	19544
891.734	19586
891.857	19655
891.98	19681
892.103	19609
892.226	19715
892.349	19620
892.471	19525
892.594	19628
892.717	19620
892.839	19609
892.962	19651
893.085	19677
893.207	19582
893.33	19453
893.452	19529
893.575	19616
893.697	19510
893.819	19635
893.941	19753
894.064	19662
894.186	19518
894.308	19457
894.43	19651
894.552	19712
894.674	19643
894.796	19525
894.918	19537
895.04	19460
895.161	19662
895.283	19578
895.405	19533
895.526	19502
895.648	19499
895.769	19586
895.891	19651
896.012	19597
896.134	19616
896.255	19540
896.376	19445
896.498	19476
896.619	19514
896.74	19552
896.861	19590
896.982	19959
897.103	20012
897.224	19738
897.345	19769
897.466	19734
897.587	19677
897.708	19944
897.828	19890
897.949	19715
898.07	19655
898.19	19757
898.311	19761
898.431	19734
898.552	19761
898.672	19830
898.792	19776
898.913	19845
899.033	19639
899.153	19582
899.273	19495
899.393	19643
899.513	19613
899.633	19666
899.753	19575
899.873	19544
899.993	19567
900.113	19483
900.232	19480
900.352	19392
900.472	19320
900.591	19213
900.711	19468
900.83	19289
900.95	19419
901.069	19365
901.189	19221
901.308	19000
901.427	18856
901.546	18943
901.665	18840
901.784	18981
901.904	18779
902.023	18810
902.141	18566
902.26	18506
902.379	18471
902.498	18441
902.617	18327
902.735	18445
902.854	18559
902.973	18300
903.091	18148
903.21	18072
903.328	18076
903.446	18019
903.565	17942
903.683	17893
903.801	17866
903.919	17897
904.038	17885
904.156	17680
904.274	17779
904.392	17623
904.51	17661
904.627	17619
904.745	17752
904.863	17824
904.981	17528
905.098	17360
905.216	17356
905.334	17391
905.451	17372
905.569	17410
905.686	17505
905.803	17303
905.921	17246
906.038	17174
906.155	17143
906.272	17052
906.389	16938
906.506	16957
906.623	16995
906.74	17060
906.857	16797
906.974	16877
907.091	17014
907.208	17064
907.324	16934
907.441	16828
907.557	16710
907.674	16645
907.79	16653
907.907	16694
908.023	16588
908.139	16588
908.256	16637
908.372	16497
908.488	16508
908.604	16417
908.72	16344
908.836	16398
908.952	16318
909.068	16314
909.184	16466
909.3	16348
909.415	16382
909.531	16276
909.647	15945
909.762	16181
909.878	16112
909.993	16090
910.108	16025
910.224	15983
910.339	16078
910.454	15880
910.57	15907
910.685	15857
910.8	16116
910.915	16086
911.03	15876
911.145	15778
911.259	15739
911.374	15690
911.489	15644
911.604	15572
911.718	15473
911.833	15477
911.947	15355
912.062	15332
912.176	15424
912.291	15428
912.405	15329
912.519	15576
912.633	15519
912.748	15500
912.862	15405
912.976	15169
913.09	15119
913.204	15260
913.318	15249
913.431	15279
913.545	15355
913.659	15378
913.772	15241
913.886	15077
914	14948
914.113	15161
914.226	15195
914.34	15203
914.453	14937
914.566	15123
914.68	14998
914.793	14796
914.906	14750
915.019	14705
915.132	14663
915.245	14762
915.358	14655
915.47	14617
915.583	14712
915.696	14640
915.809	14765
915.921	14887
916.034	14705
916.146	14518
916.259	14549
916.371	14826
916.483	14644
916.595	14492
916.708	14621
916.82	14530
916.932	14492
917.044	14423
917.156	14450
917.268	14305
917.38	14389
917.491	14294
917.603	14377
917.715	14461
917.826	14427
917.938	14305
918.049	14115
918.161	14358
918.272	14442
918.384	14446
918.495	14275
918.606	14119
918.717	14100
918.828	14180
918.939	14130
919.05	13963
919.161	13986
919.272	13921
919.383	13925
919.494	14096
919.604	14294
919.715	14081
919.826	13955
919.936	14157
920.047	14164
920.157	14084
920.267	14282
920.378	14123
920.488	14134
920.598	14309
920.708	14339
920.818	14214
920.928	14290
921.038	14427
921.148	14286
921.258	14058
921.368	13940
921.477	13868
921.587	13898
921.697	13715
921.806	13845
921.916	13753
922.025	13487
922.134	13510
922.244	13415
922.353	13483
922.462	13335
922.571	13297
922.68	13099
922.789	13129
922.898	13255
923.007	13053
923.116	13145
923.224	13171
923.333	13053
923.442	13000
923.55	12958
923.659	12973
923.767	13008
923.876	12939
923.984	13053
924.092	12924
924.201	12947
924.309	12867
924.417	12875
924.525	12825
924.633	12875
924.741	13753
924.849	12593
924.956	12772
925.064	12635
925.172	12467
925.279	12547
925.387	12604
925.494	12574
925.602	12703
925.709	12681
925.816	12490
925.924	12536
926.031	12540
926.138	12597
926.245	12521
926.352	12441
926.459	12494
926.566	12559
926.673	12490
926.779	12311
926.886	12315
926.993	12220
927.099	12106
927.206	12152
927.312	12117
927.419	12216
927.525	12148
927.631	12171
927.737	12019
927.843	12030
927.95	11874
928.056	11954
928.162	11920
928.267	12064
928.373	12730
928.479	12095
928.585	11752
928.69	11988
928.796	12022
928.901	11874
929.007	11668
929.112	11946
929.218	11790
929.323	11733
929.428	11642
929.533	11779
929.638	11592
929.743	11672
929.848	11748
929.953	11657
930.058	11581
930.163	11448
930.267	11440
930.372	11589
930.477	11376
930.581	11646
930.685	11501
930.79	11265
930.894	11296
930.998	11197
931.103	11414
931.207	11128
931.311	10904
931.415	10835
931.519	10714
931.623	10675
