Data from test_V78500241_445.txt Node
Date: Fri Mar 25 15:12:57 CST 2022
User: usil
Spectrometer: V785-0024
Trigger mode: 0
Integration Time (sec): 4.000000E-1
Scans to average: 1
Nonlinearity correction enabled: false
Boxcar width: 0
Storing dark spectrum: false
XAxis mode: Wavelengths
Number of Pixels in Spectrum: 1024
>>>>>Begin Spectral Data<<<<<
801.071	27157
801.214	27077
801.356	26925
801.499	26868
801.641	26773
801.783	26777
801.926	26880
802.068	26655
802.211	26777
802.353	26598
802.496	26492
802.638	26450
802.78	26324
802.923	26298
803.065	26244
803.208	26400
803.35	26377
803.492	26480
803.635	26389
803.777	26446
803.919	26495
804.061	26815
804.204	26621
804.346	26438
804.488	26400
804.63	26446
804.773	26328
804.915	26427
805.057	26594
805.199	26427
805.341	26602
805.483	26545
805.626	26571
805.768	26434
805.91	26678
806.052	26522
806.194	26518
806.336	26781
806.478	26613
806.62	26568
806.762	26708
806.904	26929
807.046	27150
807.188	27237
807.33	27009
807.472	27085
807.614	26933
807.756	27017
807.898	26864
808.04	26815
808.182	26773
808.324	26880
808.465	26853
808.607	27009
808.749	27157
808.891	27245
809.033	27336
809.174	27378
809.316	27203
809.458	27321
809.6	27218
809.741	27427
809.883	27405
810.025	27580
810.166	27561
810.308	27515
810.45	27359
810.591	27519
810.733	27336
810.875	27188
811.016	27157
811.158	27028
811.299	27355
811.441	27458
811.582	27287
811.724	27081
811.865	27047
812.007	27157
812.148	27272
812.29	27226
812.431	27374
812.573	27420
812.714	27641
812.855	27713
812.997	27819
813.138	27888
813.279	27732
813.421	27762
813.562	27667
813.703	27618
813.845	27427
813.986	27173
814.127	27055
814.268	26891
814.41	26857
814.551	26998
814.692	26990
814.833	26857
814.974	26731
815.115	26872
815.256	26750
815.397	26674
815.539	26708
815.68	26689
815.821	26663
815.962	26636
816.103	26602
816.244	26602
816.385	26488
816.526	26412
816.666	26256
816.807	26046
816.948	26256
817.089	26301
817.23	26100
817.371	26054
817.512	26275
817.653	26016
817.793	26024
817.934	26157
818.075	26142
818.216	26180
818.356	25993
818.497	26077
818.638	25890
818.778	25883
818.919	25986
819.06	25978
819.2	25921
819.341	26214
819.481	26050
819.622	26218
819.762	26446
819.903	26362
820.043	26419
820.184	26180
820.324	26248
820.465	26275
820.605	26343
820.746	26298
820.886	26153
821.026	26282
821.167	26153
821.307	26377
821.447	26142
821.588	26062
821.728	25917
821.868	25833
822.008	25525
822.149	25628
822.289	25533
822.429	25270
822.569	25263
822.709	25358
822.849	25156
822.99	25194
823.13	25000
823.27	24989
823.41	24928
823.55	24783
823.69	24973
823.83	24806
823.97	24878
824.11	24688
824.25	24658
824.389	24707
824.529	24810
824.669	24760
824.809	24852
824.949	24795
825.089	24848
825.228	24783
825.368	24540
825.508	24650
825.648	24547
825.787	24642
825.927	24779
826.067	24601
826.206	24540
826.346	24642
826.485	24616
826.625	24612
826.765	24631
826.904	24525
827.044	24334
827.183	24395
827.323	24163
827.462	24251
827.601	24391
827.741	24342
827.88	24399
828.02	24254
828.159	24384
828.298	24399
828.437	24388
828.577	24232
828.716	24426
828.855	24167
828.994	24030
829.134	23984
829.273	24041
829.412	24194
829.551	23927
829.69	24083
829.829	24045
829.968	24121
830.107	24060
830.246	24076
830.385	24110
830.524	23927
830.663	23779
830.802	23775
830.941	23596
831.08	23760
831.219	23737
831.357	23672
831.496	23786
831.635	23619
831.774	23646
831.913	23562
832.051	23471
832.19	23589
832.329	23524
832.467	23383
832.606	23402
832.744	23307
832.883	23334
833.022	23231
833.16	23368
833.299	23398
833.437	23425
833.576	23436
833.714	23337
833.852	23368
833.991	23474
834.129	23512
834.267	23528
834.406	23490
834.544	23406
834.682	23299
834.821	23273
834.959	23577
835.097	23368
835.235	23356
835.373	23448
835.511	23299
835.65	23166
835.788	23364
835.926	23105
836.064	23086
836.202	23064
836.34	23330
836.478	23288
836.615	23242
836.753	23223
836.891	23334
837.029	23315
837.167	23193
837.305	23254
837.443	23083
837.58	23193
837.718	23094
837.856	23067
837.993	23025
838.131	23075
838.269	22957
838.406	22999
838.544	22904
838.681	22820
838.819	22706
838.956	22557
839.094	22622
839.231	22683
839.369	22717
839.506	22820
839.643	22953
839.781	22466
839.918	22497
840.055	22580
840.193	22599
840.33	22478
840.467	22519
840.604	22592
840.742	22713
840.879	22386
841.016	22409
841.153	22478
841.29	22710
841.427	22443
841.564	22523
841.701	22470
841.838	22413
841.975	22379
842.112	22424
842.249	22287
842.385	22344
842.522	22523
842.659	22322
842.796	22154
842.933	22272
843.069	22242
843.206	22162
843.343	22325
843.479	22310
843.616	22253
843.752	21983
843.889	22048
844.025	22135
844.162	21994
844.298	22040
844.435	22029
844.571	21964
844.708	22017
844.844	22272
844.98	22200
845.117	22215
845.253	21983
845.389	22017
845.525	21972
845.661	21804
845.798	21880
845.934	21895
846.07	21751
846.206	21762
846.342	21812
846.478	21789
846.614	21523
846.75	21447
846.886	21542
847.022	21595
847.158	21553
847.294	21614
847.429	21652
847.565	21523
847.701	21861
847.837	21241
847.972	21203
848.108	21283
848.244	21199
848.379	21222
848.515	21070
848.65	21070
848.786	21100
848.921	21100
849.057	21203
849.192	21188
849.328	21184
849.463	21036
849.598	21112
849.734	20910
849.869	21074
850.004	20853
850.14	20838
850.275	20872
850.41	20845
850.545	20845
850.68	20857
850.815	20944
850.95	20716
851.085	21058
851.22	20986
851.355	21039
851.49	20887
851.625	20876
851.76	20864
851.895	20864
852.03	20804
852.165	20952
852.299	20952
852.434	21036
852.569	20872
852.703	20861
852.838	20948
852.973	20956
853.107	20960
853.242	20853
853.376	20739
853.511	20545
853.645	20739
853.78	20857
853.914	20640
854.048	20583
854.183	20693
854.317	20640
854.451	20864
854.585	20762
854.72	20762
854.854	20708
854.988	20613
855.122	20670
855.256	20537
855.39	20712
855.524	20674
855.658	20731
855.792	20701
855.926	20724
856.06	20727
856.194	20849
856.327	20708
856.461	20724
856.595	20678
856.729	20651
856.862	20826
856.996	20629
857.13	20743
857.263	20895
857.397	20792
857.53	20632
857.664	20697
857.797	20716
857.931	20765
858.064	20765
858.197	20800
858.331	20716
858.464	20735
858.597	20632
858.731	20602
858.864	20659
858.997	20640
859.13	20701
859.263	20682
859.396	20727
859.529	20708
859.662	20545
859.795	20621
859.928	20716
860.061	20819
860.194	20941
860.327	20739
860.46	20731
860.592	20686
860.725	20925
860.858	20899
860.99	20727
861.123	20579
861.256	20594
861.388	20678
861.521	21355
861.653	20655
861.786	20480
861.918	20465
862.05	20560
862.183	20712
862.315	20659
862.447	20727
862.58	20640
862.712	20389
862.844	20492
862.976	20552
863.108	20564
863.24	20921
863.372	20313
863.504	20469
863.636	20358
863.768	20415
863.9	20431
864.032	20434
864.164	20393
864.296	20336
864.428	20560
864.559	20556
864.691	20526
864.823	20442
864.954	20442
865.086	20465
865.217	20317
865.349	20199
865.48	20389
865.612	20320
865.743	20427
865.875	20336
866.006	20229
866.137	20328
866.269	20225
866.4	20358
866.531	20324
866.662	20240
866.793	20343
866.924	20263
867.055	20263
867.186	20278
867.317	20161
867.448	20046
867.579	20122
867.71	20187
867.841	20199
867.972	20343
868.103	20210
868.233	20286
868.364	20286
868.495	20248
868.625	20419
868.756	20533
868.886	20465
869.017	20438
869.147	20575
869.278	20663
869.408	20400
869.539	20480
869.669	20537
869.799	20530
869.929	20598
870.06	20606
870.19	20674
870.32	20735
870.45	20838
870.58	20895
870.71	21058
870.84	21028
870.97	20910
871.1	20864
871.23	21017
871.36	21100
871.489	20925
871.619	21116
871.749	21100
871.879	21199
872.008	21192
872.138	21017
872.267	21081
872.397	20891
872.526	20800
872.656	20975
872.785	21104
872.915	21173
873.044	21374
873.173	21001
873.303	21146
873.432	21207
873.561	21180
873.69	21142
873.819	21150
873.948	21279
874.077	21100
874.206	21062
874.335	21142
874.464	21108
874.593	21279
874.722	21351
874.851	21389
874.979	21462
875.108	21447
875.237	21393
875.365	21279
875.494	21340
875.623	21485
875.751	21256
875.88	21317
876.008	21382
876.136	21496
876.265	21682
876.393	21903
876.521	21766
876.65	21835
876.778	21663
876.906	21641
877.034	21713
877.162	21736
877.29	21580
877.418	21739
877.546	21842
877.674	21759
877.802	21675
877.93	21523
878.058	21660
878.185	21545
878.313	21675
878.441	21682
878.568	21511
878.696	21637
878.824	21778
878.951	21892
879.079	21949
879.206	21979
879.333	21922
879.461	21709
879.588	21827
879.715	21934
879.842	22078
879.97	21694
880.097	21534
880.224	21485
880.351	21534
880.478	21466
880.605	21587
880.732	21553
880.859	21679
880.986	21511
881.112	21656
881.239	21405
881.366	21310
881.493	21123
881.619	21074
881.746	21089
881.872	21256
881.999	21096
882.125	21146
882.252	21173
882.378	21051
882.505	21211
882.631	20998
882.757	20960
882.883	20933
883.01	20880
883.136	20830
883.262	20689
883.388	20724
883.514	20857
883.64	20956
883.766	20739
883.892	20655
884.018	20575
884.143	20804
884.269	20902
884.395	20575
884.52	20556
884.646	20499
884.772	20366
884.897	20442
885.023	20503
885.148	20537
885.274	20644
885.399	20446
885.524	20454
885.65	20556
885.775	20465
885.9	20415
886.025	20564
886.15	20579
886.275	20533
886.4	20404
886.525	20499
886.65	20446
886.775	20461
886.9	20560
887.025	20640
887.149	20606
887.274	20229
887.399	20298
887.523	20259
887.648	20191
887.773	20263
887.897	20294
888.021	20419
888.146	20248
888.27	20301
888.395	20336
888.519	20339
888.643	20271
888.767	20252
888.891	20058
889.015	20043
889.139	20214
889.263	20035
889.387	20259
889.511	20320
889.635	20119
889.759	20210
889.883	20088
890.006	20035
890.13	20092
890.254	19993
890.377	19932
890.501	19784
890.624	19826
890.748	19826
890.871	19780
890.995	19655
891.118	19616
891.241	19681
891.364	19696
891.488	19769
891.611	19708
891.734	19464
891.857	19708
891.98	19533
892.103	19761
892.226	19670
892.349	19586
892.471	19491
892.594	19582
892.717	19689
892.839	19609
892.962	19594
893.085	19635
893.207	19643
893.33	19445
893.452	19525
893.575	19540
893.697	19643
893.819	19738
893.941	19788
894.064	19723
894.186	19499
894.308	19590
894.43	19700
894.552	19780
894.674	19689
894.796	19525
894.918	19613
895.04	19556
895.161	19567
895.283	19609
895.405	19529
895.526	19506
895.648	19540
895.769	19575
895.891	19548
896.012	19723
896.134	19575
896.255	19616
896.376	19575
896.498	19544
896.619	19556
896.74	19571
896.861	19689
896.982	19951
897.103	20073
897.224	19894
897.345	19803
897.466	19616
897.587	19791
897.708	19894
897.828	19830
897.949	19837
898.07	19696
898.19	19647
898.311	19788
898.431	19704
898.552	19769
898.672	19780
898.792	19814
898.913	19814
899.033	19715
899.153	19582
899.273	19499
899.393	19586
899.513	19597
899.633	19597
899.753	19628
899.873	19491
899.993	19635
900.113	19480
900.232	19525
900.352	19396
900.472	19278
900.591	19411
900.711	19324
900.83	19232
900.95	19407
901.069	19457
901.189	19255
901.308	19050
901.427	18932
901.546	18886
901.665	18943
901.784	18993
901.904	18814
902.023	18738
902.141	18532
902.26	18486
902.379	18536
902.498	18369
902.617	18410
902.735	18513
902.854	18285
902.973	18414
903.091	18076
903.21	18072
903.328	18152
903.446	18053
903.565	18053
903.683	17923
903.801	17805
903.919	17847
904.038	17866
904.156	17703
904.274	17729
904.392	17767
904.51	17627
904.627	17615
904.745	17783
904.863	17722
904.981	17543
905.098	17474
905.216	17364
905.334	17440
905.451	17463
905.569	17372
905.686	17406
905.803	17360
905.921	17189
906.038	17345
906.155	17258
906.272	17113
906.389	17159
906.506	16972
906.623	17010
906.74	16980
906.857	16831
906.974	16801
907.091	17102
907.208	17056
907.324	17003
907.441	16816
907.557	16664
907.674	16664
907.79	16573
907.907	16637
908.023	16641
908.139	16679
908.256	16542
908.372	16569
908.488	16527
908.604	16466
908.72	16329
908.836	16356
908.952	16390
909.068	16424
909.184	16352
909.3	16261
909.415	16394
909.531	16363
909.647	16154
909.762	15998
909.878	15991
909.993	16055
910.108	16044
910.224	16078
910.339	15991
910.454	15968
910.57	15911
910.685	15846
910.8	16105
910.915	16078
911.03	15819
911.145	15778
911.259	15766
911.374	15705
911.489	15591
911.604	15561
911.718	15424
911.833	15477
911.947	15340
912.062	15275
912.176	15374
912.291	15370
912.405	15313
912.519	15584
912.633	15557
912.748	15477
912.862	15351
912.976	15306
913.09	15070
913.204	15207
913.318	15306
913.431	15405
913.545	15275
913.659	15325
913.772	15108
913.886	15009
914	15104
914.113	15237
914.226	15157
914.34	15119
914.453	14933
914.566	15043
914.68	14971
914.793	14967
914.906	14762
915.019	14693
915.132	14663
915.245	14731
915.358	14655
915.47	14636
915.583	14617
915.696	14731
915.809	14826
915.921	14823
916.034	14648
916.146	14689
916.259	14590
916.371	14670
916.483	14617
916.595	14549
916.708	14514
916.82	14583
916.932	14446
917.044	14454
917.156	14503
917.268	14347
917.38	14431
917.491	14358
917.603	14412
917.715	14412
917.826	14495
917.938	14282
918.049	14172
918.161	14408
918.272	14442
918.384	14431
918.495	14336
918.606	14077
918.717	14069
918.828	14153
918.939	14168
919.05	14031
919.161	14058
919.272	13879
919.383	14012
919.494	14157
919.604	14377
919.715	14115
919.826	14046
919.936	14050
920.047	14138
920.157	14138
920.267	14294
920.378	14126
920.488	14103
920.598	14240
920.708	14229
920.818	14305
920.928	14172
921.038	14370
921.148	14259
921.258	14073
921.368	14035
921.477	13883
921.587	13849
921.697	13715
921.806	13909
921.916	13784
922.025	13597
922.134	13453
922.244	13411
922.353	13506
922.462	13350
922.571	13400
922.68	13160
922.789	13213
922.898	13107
923.007	13050
923.116	13122
923.224	13168
923.333	13080
923.442	13061
923.55	12905
923.659	12943
923.767	13034
923.876	12886
923.984	12977
924.092	12859
924.201	12829
924.309	12890
924.417	12871
924.525	12802
924.633	12825
924.741	13750
924.849	12574
924.956	12749
925.064	12559
925.172	12536
925.279	12536
925.387	12612
925.494	12578
925.602	12745
925.709	12597
925.816	12490
925.924	12517
926.031	12582
926.138	12604
926.245	12608
926.352	12467
926.459	12525
926.566	12574
926.673	12547
926.779	12308
926.886	12315
926.993	12232
927.099	12064
927.206	12110
927.312	12041
927.419	12152
927.525	12102
927.631	12235
927.737	12060
927.843	12057
927.95	11878
928.056	12045
928.162	12079
928.267	12095
928.373	12642
928.479	12117
928.585	11855
928.69	12022
928.796	12011
928.901	11855
929.007	11714
929.112	11802
929.218	11840
929.323	11843
929.428	11729
929.533	11897
929.638	11676
929.743	11699
929.848	11608
929.953	11733
930.058	11528
930.163	11455
930.267	11440
930.372	11516
930.477	11429
930.581	11630
930.685	11417
930.79	11277
930.894	11368
930.998	11265
931.103	11368
931.207	11079
931.311	10930
931.415	10915
931.519	10809
931.623	10710
