Data from test_V78500241_1988.txt Node
Date: Fri Mar 25 15:23:42 CST 2022
User: usil
Spectrometer: V785-0024
Trigger mode: 0
Integration Time (sec): 4.000000E-1
Scans to average: 1
Nonlinearity correction enabled: false
Boxcar width: 0
Storing dark spectrum: false
XAxis mode: Wavelengths
Number of Pixels in Spectrum: 1024
>>>>>Begin Spectral Data<<<<<
801.071	27857
801.214	27876
801.356	27694
801.499	27606
801.641	27317
801.783	27405
801.926	27561
802.068	27435
802.211	27397
802.353	27340
802.496	27173
802.638	27233
802.78	27108
802.923	27100
803.065	27070
803.208	27116
803.35	26982
803.492	27161
803.635	27313
803.777	27233
803.919	27325
804.061	27580
804.204	27298
804.346	27169
804.488	27161
804.63	27450
804.773	27367
804.915	27268
805.057	27382
805.199	27233
805.341	27488
805.483	27389
805.626	27386
805.768	27237
805.91	27416
806.052	27401
806.194	27195
806.336	27603
806.478	27447
806.62	27553
806.762	27625
806.904	27606
807.046	27873
807.188	27960
807.33	27949
807.472	27884
807.614	27781
807.756	27732
807.898	27770
808.04	27675
808.182	27580
808.324	27709
808.465	27667
808.607	27937
808.749	27994
808.891	28044
809.033	28219
809.174	28010
809.316	27960
809.458	28090
809.6	28120
809.741	28120
809.883	28147
810.025	28265
810.166	28322
810.308	28379
810.45	28310
810.591	28097
810.733	28040
810.875	28044
811.016	27998
811.158	27846
811.299	28036
811.441	28211
811.582	28162
811.724	28109
811.865	27972
812.007	27987
812.148	28032
812.29	27941
812.431	28131
812.573	28306
812.714	28436
812.855	28584
812.997	28634
813.138	28759
813.279	28713
813.421	28497
813.562	28592
813.703	28462
813.845	28196
813.986	28059
814.127	27914
814.268	27762
814.41	27762
814.551	27622
814.692	27804
814.833	27652
814.974	27766
815.115	27660
815.256	27641
815.397	27656
815.539	27496
815.68	27637
815.821	27492
815.962	27526
816.103	27504
816.244	27408
816.385	27325
816.526	27180
816.666	26990
816.807	26956
816.948	27043
817.089	27085
817.23	26998
817.371	26796
817.512	27043
817.653	27020
817.793	26979
817.934	26967
818.075	26994
818.216	26937
818.356	26998
818.497	26998
818.638	26678
818.778	26720
818.919	26842
819.06	26785
819.2	26902
819.341	27062
819.481	27017
819.622	27096
819.762	27256
819.903	27272
820.043	27401
820.184	27154
820.324	27116
820.465	27165
820.605	27199
820.746	27298
820.886	27009
821.026	27165
821.167	27081
821.307	27169
821.447	27039
821.588	27005
821.728	26902
821.868	26629
822.008	26526
822.149	26476
822.289	26446
822.429	26221
822.569	26176
822.709	26183
822.849	26024
822.99	26020
823.13	25970
823.27	25856
823.41	25791
823.55	25791
823.69	25890
823.83	25833
823.97	25742
824.11	25552
824.25	25628
824.389	25635
824.529	25670
824.669	25693
824.809	25761
824.949	25723
825.089	25700
825.228	25670
825.368	25514
825.508	25537
825.648	25415
825.787	25620
825.927	25597
826.067	25506
826.206	25464
826.346	25518
826.485	25605
826.625	25491
826.765	25571
826.904	25601
827.044	25312
827.183	25365
827.323	25202
827.462	25312
827.601	25194
827.741	25285
827.88	25282
828.02	25160
828.159	25282
828.298	25202
828.437	25228
828.577	24958
828.716	25282
828.855	25141
828.994	24901
829.134	24935
829.273	24837
829.412	24928
829.551	24897
829.69	24947
829.829	24924
829.968	25126
830.107	24920
830.246	25023
830.385	24688
830.524	24795
830.663	24734
830.802	24639
830.941	24486
831.08	24547
831.219	24597
831.357	24631
831.496	24814
831.635	24460
831.774	24445
831.913	24517
832.051	24369
832.19	24232
832.329	24395
832.467	24330
832.606	24163
832.744	24186
832.883	24190
833.022	24171
833.16	24167
833.299	24224
833.437	24254
833.576	24296
833.714	24251
833.852	24285
833.991	24258
834.129	24327
834.267	24369
834.406	24319
834.544	24289
834.682	24384
834.821	24372
834.959	24369
835.097	24186
835.235	24190
835.373	24273
835.511	24251
835.65	24239
835.788	24068
835.926	24060
836.064	23908
836.202	23874
836.34	23984
836.478	24235
836.615	24015
836.753	24079
836.891	24095
837.029	24144
837.167	24053
837.305	23992
837.443	23893
837.58	24015
837.718	24072
837.856	23931
837.993	23969
838.131	23954
838.269	23798
838.406	23851
838.544	23775
838.681	23737
838.819	23615
838.956	23463
839.094	23463
839.231	23596
839.369	23668
839.506	23794
839.643	23665
839.781	23345
839.918	23497
840.055	23524
840.193	23318
840.33	23311
840.467	23414
840.604	23292
840.742	23657
840.879	23189
841.016	23307
841.153	23166
841.29	23440
841.427	23315
841.564	23303
841.701	23162
841.838	23277
841.975	23322
842.112	23307
842.249	23185
842.385	23212
842.522	23311
842.659	23166
842.796	23025
842.933	23064
843.069	23079
843.206	23193
843.343	23200
843.479	23083
843.616	23170
843.752	22915
843.889	22946
844.025	23067
844.162	22839
844.298	22809
844.435	22919
844.571	22790
844.708	22835
844.844	23037
844.98	22987
845.117	23037
845.253	22862
845.389	22866
845.525	22824
845.661	22771
845.798	22611
845.934	22580
846.07	22432
846.206	22626
846.342	22645
846.478	22611
846.614	22554
846.75	22325
846.886	22249
847.022	22413
847.158	22375
847.294	22314
847.429	22348
847.565	22287
847.701	22630
847.837	21994
847.972	22021
848.108	22128
848.244	22154
848.379	21979
848.515	21960
848.65	21899
848.786	21903
848.921	21800
849.057	22067
849.192	21975
849.328	22059
849.463	21827
849.598	21838
849.734	21854
849.869	21804
850.004	21724
850.14	21599
850.275	21759
850.41	21648
850.545	21633
850.68	21743
850.815	21663
850.95	21679
851.085	21831
851.22	21827
851.355	21587
851.49	21656
851.625	21580
851.76	21603
851.895	21656
852.03	21625
852.165	21781
852.299	21580
852.434	21778
852.569	21679
852.703	21709
852.838	21762
852.973	21846
853.107	21736
853.242	21675
853.376	21519
853.511	21500
853.645	21542
853.78	21656
853.914	21545
854.048	21481
854.183	21515
854.317	21545
854.451	21739
854.585	21435
854.72	21485
854.854	21511
854.988	21496
855.122	21519
855.256	21405
855.39	21458
855.524	21603
855.658	21530
855.792	21530
855.926	21576
856.06	21572
856.194	21644
856.327	21500
856.461	21458
856.595	21454
856.729	21386
856.862	21507
856.996	21462
857.13	21606
857.263	21648
857.397	21614
857.53	21466
857.664	21660
857.797	21564
857.931	21644
858.064	21530
858.197	21595
858.331	21469
858.464	21447
858.597	21538
858.731	21534
858.864	21458
858.997	21443
859.13	21568
859.263	21450
859.396	21583
859.529	21526
859.662	21466
859.795	21378
859.928	21538
860.061	21762
860.194	21800
860.327	21660
860.46	21576
860.592	21652
860.725	21660
860.858	21663
860.99	21561
861.123	21488
861.256	21504
861.388	21481
861.521	22207
861.653	21336
861.786	21268
861.918	21351
862.05	21481
862.183	21428
862.315	21511
862.447	21507
862.58	21382
862.712	21241
862.844	21310
862.976	21389
863.108	21195
863.24	21656
863.372	21119
863.504	21154
863.636	21176
863.768	21264
863.9	21154
864.032	21047
864.164	21123
864.296	21268
864.428	21268
864.559	21268
864.691	21378
864.823	21199
864.954	21249
865.086	21096
865.217	21047
865.349	21001
865.48	21100
865.612	21116
865.743	21116
865.875	21085
866.006	21005
866.137	21085
866.269	21222
866.4	21039
866.531	20982
866.662	21055
866.793	21024
866.924	21142
867.055	21096
867.186	21093
867.317	21058
867.448	21036
867.579	21043
867.71	20933
867.841	20975
867.972	21104
868.103	21058
868.233	21135
868.364	21062
868.495	21150
868.625	21268
868.756	21294
868.886	21230
869.017	21283
869.147	21302
869.278	21469
869.408	21272
869.539	21252
869.669	21344
869.799	21237
869.929	21420
870.06	21279
870.19	21591
870.32	21481
870.45	21523
870.58	21774
870.71	21759
870.84	21762
870.97	21523
871.1	21553
871.23	21857
871.36	21960
871.489	21732
871.619	21861
871.749	21797
871.879	21800
872.008	21991
872.138	21941
872.267	21945
872.397	21728
872.526	21663
872.656	21751
872.785	21709
872.915	21793
873.044	21922
873.173	21899
873.303	21911
873.432	21941
873.561	21926
873.69	21884
873.819	21857
873.948	21945
874.077	21926
874.206	21873
874.335	21911
874.464	21907
874.593	22055
874.722	22166
874.851	22253
874.979	22070
875.108	22139
875.237	22032
875.365	22010
875.494	22135
875.623	22234
875.751	21994
875.88	22204
876.008	22272
876.136	22375
876.265	22447
876.393	22637
876.521	22531
876.65	22466
876.778	22512
876.906	22356
877.034	22531
877.162	22535
877.29	22497
877.418	22493
877.546	22470
877.674	22542
877.802	22485
877.93	22455
878.058	22565
878.185	22379
878.313	22398
878.441	22459
878.568	22238
878.696	22493
878.824	22474
878.951	22569
879.079	22698
879.206	22858
879.333	22698
879.461	22561
879.588	22573
879.715	22618
879.842	22752
879.97	22615
880.097	22363
880.224	22390
880.351	22352
880.478	22402
880.605	22337
880.732	22322
880.859	22603
880.986	22356
881.112	22329
881.239	22211
881.366	22063
881.493	22044
881.619	21800
881.746	22017
881.872	21774
881.999	21797
882.125	21850
882.252	21991
882.378	21827
882.505	21903
882.631	21759
882.757	21553
882.883	21564
883.01	21530
883.136	21587
883.262	21370
883.388	21435
883.514	21652
883.64	21682
883.766	21412
883.892	21450
884.018	21374
884.143	21599
884.269	21667
884.395	21329
884.52	21218
884.646	21218
884.772	21154
884.897	21116
885.023	21313
885.148	21313
885.274	21405
885.399	21310
885.524	21272
885.65	21268
885.775	21408
885.9	21192
886.025	21237
886.15	21226
886.275	21211
886.4	21131
886.525	21108
886.65	21161
886.775	21233
886.9	21310
887.025	21367
887.149	21081
887.274	21165
887.399	20944
887.523	20883
887.648	20998
887.773	20952
887.897	21032
888.021	20982
888.146	20960
888.27	21032
888.395	20967
888.519	21032
888.643	20899
888.767	20899
888.891	20902
889.015	20838
889.139	20815
889.263	20792
889.387	20944
889.511	21001
889.635	20849
889.759	20777
889.883	20807
890.006	20807
890.13	20876
890.254	20594
890.377	20720
890.501	20530
890.624	20541
890.748	20484
890.871	20484
890.995	20347
891.118	20267
891.241	20419
891.364	20317
891.488	20396
891.611	20275
891.734	20240
891.857	20423
891.98	20408
892.103	20366
892.226	20366
892.349	20298
892.471	20172
892.594	20191
892.717	20317
892.839	20309
892.962	20351
893.085	20332
893.207	20278
893.33	20134
893.452	20119
893.575	20187
893.697	20153
893.819	20396
893.941	20400
894.064	20442
894.186	20282
894.308	20111
894.43	20450
894.552	20381
894.674	20301
894.796	20206
894.918	20176
895.04	20259
895.161	20351
895.283	20317
895.405	20062
895.526	20233
895.648	20161
895.769	20275
895.891	20221
896.012	20389
896.134	20286
896.255	20282
896.376	20214
896.498	20278
896.619	20317
896.74	20221
896.861	20366
896.982	20606
897.103	20651
897.224	20427
897.345	20438
897.466	20381
897.587	20488
897.708	20602
897.828	20461
897.949	20328
898.07	20195
898.19	20351
898.311	20446
898.431	20358
898.552	20290
898.672	20625
898.792	20461
898.913	20526
899.033	20434
899.153	20267
899.273	20233
899.393	20290
899.513	20256
899.633	20263
899.753	20309
899.873	20122
899.993	20301
900.113	20180
900.232	20271
900.352	20065
900.472	20054
900.591	19967
900.711	19959
900.83	19963
900.95	20149
901.069	20092
901.189	19879
901.308	19662
901.427	19559
901.546	19518
901.665	19537
901.784	19582
901.904	19457
902.023	19369
902.141	19247
902.26	19160
902.379	19206
902.498	19069
902.617	19069
902.735	19053
902.854	19061
902.973	18981
903.091	18772
903.21	18840
903.328	18688
903.446	18722
903.565	18646
903.683	18540
903.801	18323
903.919	18563
904.038	18521
904.156	18262
904.274	18422
904.392	18285
904.51	18300
904.627	18216
904.745	18296
904.863	18448
904.981	18057
905.098	18114
905.216	17950
905.334	18091
905.451	17996
905.569	17996
905.686	18121
905.803	17893
905.921	17802
906.038	17882
906.155	17904
906.272	17653
906.389	17649
906.506	17505
906.623	17638
906.74	17535
906.857	17395
906.974	17467
907.091	17589
907.208	17646
907.324	17589
907.441	17395
907.557	17189
907.674	17239
907.79	17140
907.907	17258
908.023	17288
908.139	17299
908.256	17216
908.372	17064
908.488	17189
908.604	16972
908.72	16968
908.836	16885
908.952	16892
909.068	16911
909.184	16995
909.3	16968
909.415	16984
909.531	16915
909.647	16816
909.762	16634
909.878	16672
909.993	16641
910.108	16584
910.224	16618
910.339	16527
910.454	16554
910.57	16546
910.685	16466
910.8	16740
910.915	16546
911.03	16489
911.145	16303
911.259	16341
911.374	16268
911.489	16230
911.604	16097
911.718	16078
911.833	16040
911.947	15797
912.062	15804
912.176	15998
912.291	16051
912.405	15884
912.519	16063
912.633	16150
912.748	16055
912.862	15899
912.976	15835
913.09	15694
913.204	15751
913.318	15808
913.431	15911
913.545	15880
913.659	15907
913.772	15766
913.886	15580
914	15564
914.113	15682
914.226	15743
914.34	15652
914.453	15561
914.566	15618
914.68	15549
914.793	15545
914.906	15252
915.019	15222
915.132	15119
915.245	15313
915.358	15321
915.47	15264
915.583	15195
915.696	15268
915.809	15310
915.921	15310
916.034	15256
916.146	15058
916.259	15070
916.371	15214
916.483	15051
916.595	14971
916.708	14990
916.82	14986
916.932	15020
917.044	14944
917.156	14876
917.268	14902
917.38	14925
917.491	14842
917.603	14815
917.715	14925
917.826	14963
917.938	14830
918.049	14727
918.161	14724
918.272	14963
918.384	14956
918.495	14857
918.606	14648
918.717	14545
918.828	14667
918.939	14659
919.05	14564
919.161	14648
919.272	14438
919.383	14454
919.494	14594
919.604	14762
919.715	14556
919.826	14575
919.936	14530
920.047	14564
920.157	14613
920.267	14758
920.378	14594
920.488	14552
920.598	14743
920.708	14887
920.818	14655
920.928	14583
921.038	14762
921.148	14838
921.258	14514
921.368	14438
921.477	14336
921.587	14381
921.697	14218
921.806	14298
921.916	14103
922.025	14012
922.134	13917
922.244	13917
922.353	14043
922.462	13913
922.571	13765
922.68	13620
922.789	13643
922.898	13582
923.007	13544
923.116	13586
923.224	13693
923.333	13609
923.442	13453
923.55	13377
923.659	13441
923.767	13518
923.876	13400
923.984	13449
924.092	13312
924.201	13354
924.309	13369
924.417	13339
924.525	13278
924.633	13247
924.741	14046
924.849	13069
924.956	13293
925.064	12985
925.172	12985
925.279	12966
925.387	13080
925.494	13004
925.602	13190
925.709	13050
925.816	12901
925.924	13019
926.031	13008
926.138	12958
926.245	12939
926.352	12962
926.459	13015
926.566	12954
926.673	12901
926.779	12798
926.886	12810
926.993	12696
927.099	12608
927.206	12578
927.312	12525
927.419	12604
927.525	12601
927.631	12589
927.737	12509
927.843	12433
927.95	12300
928.056	12391
928.162	12429
928.267	12429
928.373	13019
928.479	12418
928.585	12247
928.69	12338
928.796	12380
928.901	12300
929.007	12125
929.112	12194
929.218	12243
929.323	12083
929.428	12053
929.533	12251
929.638	12114
929.743	12125
929.848	12190
929.953	12053
930.058	11901
930.163	11767
930.267	11828
930.372	11927
930.477	11722
930.581	12022
930.685	11874
930.79	11722
930.894	11726
930.998	11760
931.103	11802
931.207	11490
931.311	11417
931.415	11326
931.519	11067
931.623	11113
