Data from test_V78500241_2723.txt Node
Date: Fri Mar 25 15:28:49 CST 2022
User: usil
Spectrometer: V785-0024
Trigger mode: 0
Integration Time (sec): 4.000000E-1
Scans to average: 1
Nonlinearity correction enabled: false
Boxcar width: 0
Storing dark spectrum: false
XAxis mode: Wavelengths
Number of Pixels in Spectrum: 1024
>>>>>Begin Spectral Data<<<<<
801.071	27173
801.214	27058
801.356	26925
801.499	26849
801.641	26731
801.783	26804
801.926	26937
802.068	26708
802.211	26667
802.353	26507
802.496	26450
802.638	26400
802.78	26305
802.923	26233
803.065	26187
803.208	26107
803.35	26381
803.492	26556
803.635	26518
803.777	26381
803.919	26453
804.061	26815
804.204	26351
804.346	26282
804.488	26377
804.63	26530
804.773	26545
804.915	26499
805.057	26549
805.199	26385
805.341	26518
805.483	26613
805.626	26575
805.768	26575
805.91	26663
806.052	26545
806.194	26473
806.336	26663
806.478	26629
806.62	26476
806.762	26674
806.904	26887
807.046	27051
807.188	26998
807.33	26967
807.472	27135
807.614	26902
807.756	26902
807.898	26807
808.04	26819
808.182	26750
808.324	26883
808.465	26979
808.607	27127
808.749	27264
808.891	27180
809.033	27329
809.174	27249
809.316	27218
809.458	27116
809.6	27138
809.741	27317
809.883	27268
810.025	27500
810.166	27496
810.308	27530
810.45	27344
810.591	27443
810.733	27367
810.875	27256
811.016	26960
811.158	27127
811.299	27287
811.441	27313
811.582	27272
811.724	27332
811.865	27245
812.007	27157
812.148	27203
812.29	27116
812.431	27340
812.573	27386
812.714	27663
812.855	27641
812.997	27717
813.138	27975
813.279	27808
813.421	27549
813.562	27542
813.703	27576
813.845	27401
813.986	27066
814.127	27112
814.268	26739
814.41	26963
814.551	26731
814.692	27017
814.833	26644
814.974	26811
815.115	26895
815.256	26762
815.397	26754
815.539	26716
815.68	26651
815.821	26503
815.962	26606
816.103	26537
816.244	26568
816.385	26393
816.526	26423
816.666	26225
816.807	26107
816.948	26244
817.089	26142
817.23	26024
817.371	26008
817.512	26065
817.653	26081
817.793	26069
817.934	26046
818.075	26088
818.216	26180
818.356	26001
818.497	25982
818.638	25791
818.778	25913
818.919	25841
819.06	25849
819.2	26012
819.341	26062
819.481	26024
819.622	26225
819.762	26552
819.903	26278
820.043	26237
820.184	26142
820.324	26210
820.465	26229
820.605	26126
820.746	26096
820.886	26100
821.026	26164
821.167	26172
821.307	26202
821.447	26142
821.588	25951
821.728	25845
821.868	25738
822.008	25620
822.149	25639
822.289	25487
822.429	25358
822.569	25217
822.709	25255
822.849	25080
822.99	25160
823.13	25057
823.27	25122
823.41	24871
823.55	24894
823.69	24757
823.83	24924
823.97	24787
824.11	24715
824.25	24681
824.389	24719
824.529	24875
824.669	24806
824.809	24760
824.949	24673
825.089	24639
825.228	24627
825.368	24563
825.508	24585
825.648	24566
825.787	24525
825.927	24681
826.067	24544
826.206	24593
826.346	24570
826.485	24635
826.625	24525
826.765	24623
826.904	24616
827.044	24292
827.183	24228
827.323	24273
827.462	24357
827.601	24273
827.741	24281
827.88	24209
828.02	24239
828.159	24197
828.298	24254
828.437	24410
828.577	24190
828.716	24365
828.855	24095
828.994	24057
829.134	23965
829.273	23832
829.412	23897
829.551	23980
829.69	24007
829.829	23996
829.968	24171
830.107	24072
830.246	23935
830.385	23946
830.524	23859
830.663	23733
830.802	23726
830.941	23581
831.08	23570
831.219	23680
831.357	23638
831.496	23783
831.635	23596
831.774	23615
831.913	23509
832.051	23296
832.19	23341
832.329	23345
832.467	23425
832.606	23216
832.744	23189
832.883	23299
833.022	23246
833.16	23250
833.299	23330
833.437	23261
833.576	23337
833.714	23239
833.852	23315
833.991	23372
834.129	23459
834.267	23364
834.406	23265
834.544	23383
834.682	23429
834.821	23318
834.959	23486
835.097	23178
835.235	23322
835.373	23364
835.511	23242
835.65	23235
835.788	23109
835.926	22896
836.064	23071
836.202	22957
836.34	23235
836.478	23353
836.615	23121
836.753	23204
836.891	23383
837.029	23162
837.167	23094
837.305	23239
837.443	23102
837.58	22949
837.718	23128
837.856	23060
837.993	22938
838.131	23006
838.269	22873
838.406	23033
838.544	22877
838.681	22649
838.819	22683
838.956	22550
839.094	22531
839.231	22554
839.369	22854
839.506	22915
839.643	22694
839.781	22497
839.918	22512
840.055	22500
840.193	22413
840.33	22356
840.467	22481
840.604	22577
840.742	22694
840.879	22341
841.016	22398
841.153	22284
841.29	22421
841.427	22455
841.564	22417
841.701	22413
841.838	22417
841.975	22398
842.112	22360
842.249	22360
842.385	22257
842.522	22508
842.659	22333
842.796	22207
842.933	22105
843.069	22093
843.206	22074
843.343	22120
843.479	22242
843.616	22139
843.752	22006
843.889	21998
844.025	22188
844.162	21835
844.298	22044
844.435	21953
844.571	21899
844.708	22036
844.844	22086
844.98	22070
845.117	22074
845.253	21918
845.389	21793
845.525	21911
845.661	21663
845.798	21599
845.934	21804
846.07	21717
846.206	21633
846.342	21793
846.478	21469
846.614	21431
846.75	21355
846.886	21447
847.022	21545
847.158	21507
847.294	21477
847.429	21447
847.565	21386
847.701	21774
847.837	21237
847.972	21184
848.108	21249
848.244	21218
848.379	21058
848.515	20963
848.65	20971
848.786	21089
848.921	21096
849.057	21100
849.192	21176
849.328	21211
849.463	20982
849.598	20975
849.734	20982
849.869	20838
850.004	20785
850.14	20861
850.275	20765
850.41	20743
850.545	20804
850.68	20883
850.815	20975
850.95	20849
851.085	20925
851.22	20933
851.355	20648
851.49	20792
851.625	20845
851.76	20670
851.895	20739
852.03	20663
852.165	20815
852.299	20891
852.434	20902
852.569	20796
852.703	20811
852.838	20800
852.973	20975
853.107	20895
853.242	20644
853.376	20648
853.511	20621
853.645	20629
853.78	20674
853.914	20571
854.048	20617
854.183	20590
854.317	20644
854.451	20853
854.585	20674
854.72	20651
854.854	20746
854.988	20648
855.122	20594
855.256	20640
855.39	20552
855.524	20743
855.658	20720
855.792	20746
855.926	20617
856.06	20712
856.194	20727
856.327	20503
856.461	20587
856.595	20583
856.729	20621
856.862	20682
856.996	20648
857.13	20682
857.263	20739
857.397	20758
857.53	20598
857.664	20651
857.797	20663
857.931	20659
858.064	20727
858.197	20739
858.331	20636
858.464	20556
858.597	20640
858.731	20571
858.864	20514
858.997	20598
859.13	20693
859.263	20727
859.396	20556
859.529	20537
859.662	20609
859.795	20606
859.928	20602
860.061	20815
860.194	20853
860.327	20651
860.46	20655
860.592	20708
860.725	20941
860.858	20682
860.99	20625
861.123	20457
861.256	20606
861.388	20606
861.521	21100
861.653	20400
861.786	20488
861.918	20518
862.05	20480
862.183	20617
862.315	20507
862.447	20590
862.58	20492
862.712	20267
862.844	20233
862.976	20446
863.108	20298
863.24	20788
863.372	20343
863.504	20187
863.636	20298
863.768	20461
863.9	20324
864.032	20199
864.164	20332
864.296	20362
864.428	20590
864.559	20362
864.691	20377
864.823	20385
864.954	20400
865.086	20374
865.217	20256
865.349	20244
865.48	20237
865.612	20183
865.743	20408
865.875	20298
866.006	20191
866.137	20218
866.269	20298
866.4	20176
866.531	20244
866.662	20157
866.793	20210
866.924	20225
867.055	20199
867.186	20187
867.317	20001
867.448	20107
867.579	20168
867.71	20134
867.841	20073
867.972	20195
868.103	20248
868.233	20199
868.364	20161
868.495	20259
868.625	20431
868.756	20457
868.886	20275
869.017	20339
869.147	20537
869.278	20495
869.408	20427
869.539	20385
869.669	20408
869.799	20579
869.929	20549
870.06	20355
870.19	20921
870.32	20678
870.45	20838
870.58	20952
870.71	20883
870.84	20990
870.97	20826
871.1	20823
871.23	21005
871.36	21051
871.489	20887
871.619	21051
871.749	21039
871.879	21028
872.008	21066
872.138	21047
872.267	21020
872.397	20982
872.526	20899
872.656	20929
872.785	20872
872.915	21039
873.044	21096
873.173	20967
873.303	21032
873.432	21089
873.561	21226
873.69	21089
873.819	21032
873.948	21036
874.077	21112
874.206	20986
874.335	21070
874.464	21283
874.593	21393
874.722	21188
874.851	21310
874.979	21382
875.108	21264
875.237	21165
875.365	21157
875.494	21351
875.623	21363
875.751	21222
875.88	21287
876.008	21370
876.136	21496
876.265	21675
876.393	21835
876.521	21854
876.65	21675
876.778	21724
876.906	21709
877.034	21633
877.162	21701
877.29	21690
877.418	21587
877.546	21660
877.674	21625
877.802	21599
877.93	21625
878.058	21572
878.185	21576
878.313	21694
878.441	21599
878.568	21481
878.696	21458
878.824	21686
878.951	21652
879.079	21846
879.206	21857
879.333	21937
879.461	21618
879.588	21648
879.715	21781
879.842	21800
879.97	21682
880.097	21389
880.224	21473
880.351	21439
880.478	21477
880.605	21473
880.732	21428
880.859	21819
880.986	21599
881.112	21496
881.239	21428
881.366	21188
881.493	21119
881.619	21032
881.746	21085
881.872	20910
881.999	21005
882.125	20998
882.252	21127
882.378	21100
882.505	21093
882.631	20826
882.757	20807
882.883	20876
883.01	20765
883.136	20826
883.262	20583
883.388	20655
883.514	20640
883.64	20861
883.766	20716
883.892	20564
884.018	20442
884.143	20712
884.269	20731
884.395	20465
884.52	20408
884.646	20427
884.772	20351
884.897	20305
885.023	20530
885.148	20530
885.274	20682
885.399	20530
885.524	20412
885.65	20374
885.775	20461
885.9	20351
886.025	20473
886.15	20476
886.275	20278
886.4	20305
886.525	20427
886.65	20317
886.775	20282
886.9	20473
887.025	20545
887.149	20389
887.274	20298
887.399	20233
887.523	20195
887.648	20153
887.773	20176
887.897	20275
888.021	20164
888.146	20161
888.27	20351
888.395	20168
888.519	20126
888.643	20229
888.767	20153
888.891	20096
889.015	19944
889.139	19997
889.263	19978
889.387	20145
889.511	20191
889.635	20062
889.759	20012
889.883	19974
890.006	19902
890.13	20107
890.254	19906
890.377	19890
890.501	19734
890.624	19662
890.748	19871
890.871	19666
890.995	19719
891.118	19556
891.241	19510
891.364	19620
891.488	19518
891.611	19529
891.734	19597
891.857	19613
891.98	19537
892.103	19506
892.226	19468
892.349	19537
892.471	19377
892.594	19616
892.717	19521
892.839	19453
892.962	19430
893.085	19597
893.207	19597
893.33	19343
893.452	19445
893.575	19552
893.697	19415
893.819	19681
893.941	19632
894.064	19613
894.186	19453
894.308	19487
894.43	19609
894.552	19674
894.674	19628
894.796	19434
894.918	19362
895.04	19476
895.161	19571
895.283	19506
895.405	19403
895.526	19468
895.648	19480
895.769	19578
895.891	19430
896.012	19529
896.134	19559
896.255	19521
896.376	19460
896.498	19453
896.619	19506
896.74	19597
896.861	19525
896.982	19921
897.103	20020
897.224	19700
897.345	19578
897.466	19658
897.587	19826
897.708	19871
897.828	19788
897.949	19750
898.07	19518
898.19	19537
898.311	19818
898.431	19674
898.552	19696
898.672	19811
898.792	19833
898.913	19845
899.033	19613
899.153	19624
899.273	19434
899.393	19567
899.513	19373
899.633	19502
899.753	19537
899.873	19476
899.993	19525
900.113	19369
900.232	19521
900.352	19457
900.472	19289
900.591	19160
900.711	19289
900.83	19175
900.95	19339
901.069	19346
901.189	19168
901.308	18886
901.427	18760
901.546	18856
901.665	18909
901.784	18905
901.904	18806
902.023	18677
902.141	18429
902.26	18448
902.379	18426
902.498	18414
902.617	18235
902.735	18330
902.854	18384
902.973	18243
903.091	18133
903.21	18072
903.328	18026
903.446	17980
903.565	17809
903.683	17931
903.801	17748
903.919	17821
904.038	17764
904.156	17699
904.274	17611
904.392	17661
904.51	17577
904.627	17615
904.745	17539
904.863	17695
904.981	17372
905.098	17254
905.216	17288
905.334	17337
905.451	17315
905.569	17197
905.686	17417
905.803	17315
905.921	17124
906.038	17288
906.155	17098
906.272	16896
906.389	16991
906.506	16850
906.623	16850
906.74	16915
906.857	16744
906.974	16767
907.091	16953
907.208	17060
907.324	16915
907.441	16748
907.557	16611
907.674	16607
907.79	16577
907.907	16565
908.023	16664
908.139	16527
908.256	16603
908.372	16466
908.488	16493
908.604	16329
908.72	16306
908.836	16398
908.952	16333
909.068	16249
909.184	16432
909.3	16287
909.415	16276
909.531	16356
909.647	16105
909.762	16051
909.878	16017
909.993	16040
910.108	16032
910.224	16086
910.339	16002
910.454	15934
910.57	15861
910.685	15793
910.8	16029
910.915	15972
911.03	15831
911.145	15755
911.259	15637
911.374	15648
911.489	15686
911.604	15534
911.718	15500
911.833	15523
911.947	15412
912.062	15397
912.176	15481
912.291	15504
912.405	15568
912.519	15671
912.633	15625
912.748	15454
912.862	15397
912.976	15298
913.09	15169
913.204	15173
913.318	15249
913.431	15310
913.545	15252
913.659	15302
913.772	15180
913.886	15055
914	15055
914.113	15146
914.226	15165
914.34	15074
914.453	14906
914.566	15028
914.68	14941
914.793	14899
914.906	14746
915.019	14663
915.132	14629
915.245	14590
915.358	14678
915.47	14648
915.583	14667
915.696	14693
915.809	14724
915.921	14788
916.034	14568
916.146	14492
916.259	14568
916.371	14533
916.483	14632
916.595	14556
916.708	14518
916.82	14533
916.932	14461
917.044	14499
917.156	14438
917.268	14412
917.38	14351
917.491	14248
917.603	14282
917.715	14370
917.826	14408
917.938	14298
918.049	14244
918.161	14328
918.272	14366
918.384	14454
918.495	14180
918.606	14100
918.717	14050
918.828	14103
918.939	14149
919.05	14035
919.161	14062
919.272	13959
919.383	13845
919.494	14123
919.604	14278
919.715	14115
919.826	13993
919.936	14096
920.047	14119
920.157	14115
920.267	14180
920.378	14046
920.488	13947
920.598	14237
920.708	14336
920.818	14218
920.928	14294
921.038	14263
921.148	14286
921.258	14050
921.368	13940
921.477	13864
921.587	13814
921.697	13647
921.806	13841
921.916	13708
922.025	13533
922.134	13556
922.244	13460
922.353	13582
922.462	13354
922.571	13228
922.68	13160
922.789	13110
922.898	13160
923.007	13042
923.116	13095
923.224	13133
923.333	13061
923.442	12977
923.55	12993
923.659	12970
923.767	12947
923.876	12798
923.984	12913
924.092	12837
924.201	12886
924.309	12779
924.417	12894
924.525	12848
924.633	12844
924.741	13712
924.849	12722
924.956	12757
925.064	12601
925.172	12486
925.279	12536
925.387	12582
925.494	12578
925.602	12700
925.709	12620
925.816	12513
925.924	12540
926.031	12551
926.138	12540
926.245	12521
926.352	12471
926.459	12650
926.566	12593
926.673	12471
926.779	12311
926.886	12391
926.993	12209
927.099	12159
927.206	12163
927.312	12057
927.419	12152
927.525	12152
927.631	12213
927.737	12064
927.843	12003
927.95	11874
928.056	11958
928.162	11958
928.267	12072
928.373	12551
928.479	12133
928.585	11805
928.69	11999
928.796	11912
928.901	11859
929.007	11699
929.112	11908
929.218	11741
929.323	11786
929.428	11752
929.533	11828
929.638	11642
929.743	11676
929.848	11741
929.953	11608
930.058	11551
930.163	11452
930.267	11368
930.372	11615
930.477	11398
930.581	11596
930.685	11490
930.79	11303
930.894	11360
930.998	11269
931.103	11455
931.207	11041
931.311	10919
931.415	10892
931.519	10698
931.623	10748
