Data from test_V78500241_3451.txt Node
Date: Fri Mar 25 15:33:53 CST 2022
User: usil
Spectrometer: V785-0024
Trigger mode: 0
Integration Time (sec): 4.000000E-1
Scans to average: 1
Nonlinearity correction enabled: false
Boxcar width: 0
Storing dark spectrum: false
XAxis mode: Wavelengths
Number of Pixels in Spectrum: 1024
>>>>>Begin Spectral Data<<<<<
801.071	27389
801.214	27279
801.356	27218
801.499	27005
801.641	26960
801.783	26910
801.926	26921
802.068	26883
802.211	26750
802.353	26750
802.496	26606
802.638	26560
802.78	26514
802.923	26457
803.065	26427
803.208	26385
803.35	26556
803.492	26659
803.635	26674
803.777	26621
803.919	26739
804.061	26982
804.204	26788
804.346	26655
804.488	26575
804.63	26602
804.773	26533
804.915	26689
805.057	26800
805.199	26545
805.341	26769
805.483	26845
805.626	26826
805.768	26670
805.91	26872
806.052	26906
806.194	26659
806.336	26883
806.478	26773
806.62	26842
806.762	26857
806.904	27001
807.046	27287
807.188	27100
807.33	27127
807.472	27344
807.614	27104
807.756	27218
807.898	27001
808.04	26971
808.182	26857
808.324	26952
808.465	27009
808.607	27260
808.749	27325
808.891	27599
809.033	27686
809.174	27439
809.316	27351
809.458	27397
809.6	27211
809.741	27454
809.883	27507
810.025	27603
810.166	27713
810.308	27603
810.45	27538
810.591	27553
810.733	27507
810.875	27306
811.016	27279
811.158	27283
811.299	27397
811.441	27587
811.582	27450
811.724	27336
811.865	27306
812.007	27408
812.148	27420
812.29	27351
812.431	27542
812.573	27637
812.714	27739
812.855	27808
812.997	27846
813.138	28093
813.279	27972
813.421	27991
813.562	27709
813.703	27606
813.845	27462
813.986	27218
814.127	27169
814.268	26971
814.41	27028
814.551	26929
814.692	27089
814.833	26940
814.974	27058
815.115	27070
815.256	26895
815.397	26845
815.539	26815
815.68	26792
815.821	26743
815.962	26864
816.103	26792
816.244	26640
816.385	26537
816.526	26575
816.666	26377
816.807	26195
816.948	26358
817.089	26465
817.23	26248
817.371	26374
817.512	26336
817.653	26282
817.793	26100
817.934	26328
818.075	26180
818.216	26351
818.356	26240
818.497	26115
818.638	25940
818.778	26084
818.919	26145
819.06	26214
819.2	26176
819.341	26298
819.481	26263
819.622	26480
819.762	26560
819.903	26480
820.043	26465
820.184	26408
820.324	26450
820.465	26423
820.605	26362
820.746	26381
820.886	26191
821.026	26328
821.167	26434
821.307	26427
821.447	26408
821.588	26126
821.728	26073
821.868	25849
822.008	25795
822.149	25689
822.289	25784
822.429	25434
822.569	25426
822.709	25343
822.849	25301
822.99	25236
823.13	25217
823.27	25236
823.41	25095
823.55	24920
823.69	25122
823.83	25000
823.97	25034
824.11	24817
824.25	24837
824.389	24920
824.529	24882
824.669	24932
824.809	24951
824.949	24871
825.089	24817
825.228	24939
825.368	24810
825.508	24768
825.648	24639
825.787	24810
825.927	24741
826.067	24798
826.206	24795
826.346	24772
826.485	24810
826.625	24734
826.765	24935
826.904	24928
827.044	24498
827.183	24612
827.323	24418
827.462	24460
827.601	24486
827.741	24350
827.88	24414
828.02	24437
828.159	24513
828.298	24555
828.437	24479
828.577	24270
828.716	24597
828.855	24399
828.994	24182
829.134	24205
829.273	24205
829.412	24178
829.551	24060
829.69	24140
829.829	24239
829.968	24365
830.107	24228
830.246	24270
830.385	24049
830.524	24216
830.663	24110
830.802	23927
830.941	23813
831.08	23703
831.219	23893
831.357	23847
831.496	24034
831.635	23741
831.774	23786
831.913	23630
832.051	23433
832.19	23623
832.329	23592
832.467	23505
832.606	23414
832.744	23395
832.883	23455
833.022	23604
833.16	23467
833.299	23516
833.437	23474
833.576	23604
833.714	23509
833.852	23520
833.991	23623
834.129	23596
834.267	23619
834.406	23562
834.544	23684
834.682	23539
834.821	23440
834.959	23748
835.097	23573
835.235	23619
835.373	23486
835.511	23436
835.65	23398
835.788	23315
835.926	23296
836.064	23220
836.202	23356
836.34	23303
836.478	23471
836.615	23395
836.753	23398
836.891	23440
837.029	23387
837.167	23246
837.305	23277
837.443	23334
837.58	23181
837.718	23311
837.856	23307
837.993	23220
838.131	23231
838.269	23105
838.406	23151
838.544	23124
838.681	22984
838.819	22938
838.956	22816
839.094	22786
839.231	22797
839.369	22923
839.506	23162
839.643	23033
839.781	22713
839.918	22790
840.055	22755
840.193	22580
840.33	22618
840.467	22641
840.604	22706
840.742	22953
840.879	22615
841.016	22607
841.153	22432
841.29	22759
841.427	22664
841.564	22702
841.701	22580
841.838	22561
841.975	22523
842.112	22386
842.249	22455
842.385	22402
842.522	22729
842.659	22497
842.796	22470
842.933	22371
843.069	22428
843.206	22329
843.343	22565
843.479	22390
843.616	22459
843.752	22272
843.889	22112
844.025	22268
844.162	22177
844.298	22344
844.435	22120
844.571	22139
844.708	22192
844.844	22337
844.98	22268
845.117	22242
845.253	22109
845.389	22116
845.525	22265
845.661	21998
845.798	21865
845.934	22036
846.07	21922
846.206	21907
846.342	22074
846.478	21888
846.614	21774
846.75	21629
846.886	21614
847.022	21785
847.158	21671
847.294	21610
847.429	21739
847.565	21538
847.701	21846
847.837	21336
847.972	21348
848.108	21526
848.244	21443
848.379	21386
848.515	21176
848.65	21211
848.786	21218
848.921	21306
849.057	21344
849.192	21359
849.328	21344
849.463	21348
849.598	21203
849.734	21138
849.869	21146
850.004	20986
850.14	21112
850.275	20963
850.41	20948
850.545	21017
850.68	21066
850.815	21123
850.95	21039
851.085	21298
851.22	21119
851.355	20998
851.49	20944
851.625	20872
851.76	20967
851.895	20960
852.03	20941
852.165	21005
852.299	20982
852.434	21192
852.569	21066
852.703	21066
852.838	21127
852.973	21180
853.107	21165
853.242	21104
853.376	20925
853.511	20788
853.645	20929
853.78	20948
853.914	20990
854.048	20868
854.183	20830
854.317	20853
854.451	20994
854.585	20975
854.72	20830
854.854	21055
854.988	20838
855.122	20880
855.256	20727
855.39	20845
855.524	20910
855.658	20876
855.792	20963
855.926	20929
856.06	20899
856.194	20861
856.327	20872
856.461	20853
856.595	20804
856.729	20849
856.862	20876
856.996	20815
857.13	20979
857.263	20986
857.397	20979
857.53	20872
857.664	20815
857.797	20796
857.931	21043
858.064	20918
858.197	20933
858.331	20861
858.464	20899
858.597	20655
858.731	20804
858.864	20883
858.997	20777
859.13	20861
859.263	20921
859.396	21005
859.529	20963
859.662	20830
859.795	20762
859.928	20906
860.061	21024
860.194	21005
860.327	20853
860.46	20960
860.592	20967
860.725	21013
860.858	20842
860.99	20861
861.123	20895
861.256	20880
861.388	20868
861.521	21606
861.653	20804
861.786	20579
861.918	20739
862.05	20632
862.183	20800
862.315	20815
862.447	20956
862.58	20815
862.712	20606
862.844	20617
862.976	20705
863.108	20811
863.24	21127
863.372	20503
863.504	20594
863.636	20689
863.768	20636
863.9	20511
864.032	20663
864.164	20629
864.296	20609
864.428	20735
864.559	20674
864.691	20629
864.823	20503
864.954	20644
865.086	20556
865.217	20427
865.349	20419
865.48	20442
865.612	20450
865.743	20625
865.875	20446
866.006	20640
866.137	20655
866.269	20476
866.4	20522
866.531	20461
866.662	20518
866.793	20385
866.924	20465
867.055	20556
867.186	20423
867.317	20393
867.448	20336
867.579	20480
867.71	20278
867.841	20282
867.972	20385
868.103	20396
868.233	20495
868.364	20427
868.495	20541
868.625	20575
868.756	20785
868.886	20724
869.017	20571
869.147	20819
869.278	20842
869.408	20724
869.539	20655
869.669	20788
869.799	20697
869.929	20830
870.06	20769
870.19	20914
870.32	20914
870.45	20960
870.58	21066
870.71	21176
870.84	21203
870.97	21112
871.1	21043
871.23	21256
871.36	21317
871.489	21294
871.619	21310
871.749	21272
871.879	21249
872.008	21408
872.138	21306
872.267	21302
872.397	21154
872.526	21104
872.656	21195
872.785	21108
872.915	21252
873.044	21397
873.173	21321
873.303	21336
873.432	21268
873.561	21488
873.69	21443
873.819	21226
873.948	21344
874.077	21291
874.206	21146
874.335	21256
874.464	21340
874.593	21561
874.722	21511
874.851	21755
874.979	21564
875.108	21591
875.237	21454
875.365	21492
875.494	21466
875.623	21481
875.751	21599
875.88	21549
876.008	21641
876.136	21656
876.265	22078
876.393	22002
876.521	22044
876.65	22093
876.778	21994
876.906	21903
877.034	21915
877.162	21915
877.29	21812
877.418	21888
877.546	21922
877.674	21857
877.802	21903
877.93	21812
878.058	21800
878.185	21800
878.313	21690
878.441	21854
878.568	21595
878.696	21838
878.824	21850
878.951	21934
879.079	22158
879.206	22147
879.333	22021
879.461	21804
879.588	22044
879.715	21983
879.842	22181
879.97	21926
880.097	21751
880.224	21656
880.351	21743
880.478	21709
880.605	21625
880.732	21713
880.859	22010
880.986	21949
881.112	21717
881.239	21580
881.366	21447
881.493	21447
881.619	21272
881.746	21275
881.872	21317
881.999	21275
882.125	21180
882.252	21370
882.378	21192
882.505	21329
882.631	21036
882.757	21001
882.883	21119
883.01	21062
883.136	20899
883.262	20918
883.388	20895
883.514	20986
883.64	20906
883.766	20864
883.892	20857
884.018	20830
884.143	20880
884.269	21085
884.395	20640
884.52	20609
884.646	20693
884.772	20454
884.897	20518
885.023	20640
885.148	20746
885.274	20849
885.399	20743
885.524	20556
885.65	20682
885.775	20762
885.9	20678
886.025	20746
886.15	20686
886.275	20613
886.4	20541
886.525	20655
886.65	20571
886.775	20518
886.9	20689
887.025	20792
887.149	20689
887.274	20419
887.399	20389
887.523	20374
887.648	20355
887.773	20294
887.897	20358
888.021	20461
888.146	20320
888.27	20454
888.395	20541
888.519	20419
888.643	20514
888.767	20514
888.891	20237
889.015	20218
889.139	20286
889.263	20164
889.387	20309
889.511	20377
889.635	20320
889.759	20161
889.883	20259
890.006	20278
890.13	20317
890.254	20107
890.377	20183
890.501	19997
890.624	19967
890.748	20012
890.871	19921
890.995	19700
891.118	19776
891.241	19788
891.364	19852
891.488	19997
891.611	19833
891.734	19811
891.857	19784
891.98	19887
892.103	19811
892.226	19708
892.349	19715
892.471	19594
892.594	19742
892.717	19742
892.839	19632
892.962	19719
893.085	19830
893.207	19765
893.33	19567
893.452	19658
893.575	19662
893.697	19681
893.819	19811
893.941	19879
894.064	19811
894.186	19639
894.308	19727
894.43	19727
894.552	19845
894.674	19731
894.796	19601
894.918	19689
895.04	19742
895.161	19780
895.283	19818
895.405	19666
895.526	19712
895.648	19674
895.769	19685
895.891	19685
896.012	19826
896.134	19822
896.255	19795
896.376	19696
896.498	19784
896.619	19677
896.74	19826
896.861	19845
896.982	19967
897.103	20149
897.224	19993
897.345	19906
897.466	19856
897.587	20054
897.708	19978
897.828	19944
897.949	19852
898.07	19803
898.19	19830
898.311	19932
898.431	19936
898.552	20008
898.672	20024
898.792	20035
898.913	19944
899.033	19906
899.153	19772
899.273	19677
899.393	19662
899.513	19708
899.633	19791
899.753	19670
899.873	19544
899.993	19723
900.113	19655
900.232	19616
900.352	19670
900.472	19567
900.591	19445
900.711	19544
900.83	19438
900.95	19556
901.069	19575
901.189	19365
901.308	19259
901.427	19050
901.546	19034
901.665	19141
901.784	19031
901.904	18947
902.023	18802
902.141	18608
902.26	18604
902.379	18837
902.498	18627
902.617	18490
902.735	18650
902.854	18566
902.973	18338
903.091	18353
903.21	18319
903.328	18220
903.446	18167
903.565	18045
903.683	17931
903.801	17931
903.919	18079
904.038	18049
904.156	17783
904.274	17878
904.392	17794
904.51	17809
904.627	17687
904.745	17882
904.863	17874
904.981	17558
905.098	17604
905.216	17410
905.334	17573
905.451	17512
905.569	17471
905.686	17467
905.803	17543
905.921	17254
906.038	17360
906.155	17261
906.272	17189
906.389	17121
906.506	17014
906.623	17037
906.74	17094
906.857	17003
906.974	16946
907.091	17079
907.208	17178
907.324	17094
907.441	16980
907.557	16831
907.674	16713
907.79	16809
907.907	16790
908.023	16862
908.139	16828
908.256	16767
908.372	16653
908.488	16626
908.604	16535
908.72	16489
908.836	16634
908.952	16402
909.068	16489
909.184	16546
909.3	16485
909.415	16630
909.531	16485
909.647	16257
909.762	16166
909.878	16207
909.993	16200
910.108	16230
910.224	16249
910.339	16124
910.454	16090
910.57	15991
910.685	15911
910.8	16150
910.915	16048
911.03	15960
911.145	15861
911.259	15812
911.374	15808
911.489	15736
911.604	15610
911.718	15519
911.833	15519
911.947	15477
912.062	15310
912.176	15595
912.291	15553
912.405	15481
912.519	15812
912.633	15686
912.748	15705
912.862	15488
912.976	15393
913.09	15260
913.204	15386
913.318	15389
913.431	15447
913.545	15450
913.659	15450
913.772	15275
913.886	15176
914	15127
914.113	15336
914.226	15207
914.34	15298
914.453	14925
914.566	15195
914.68	15020
914.793	14956
914.906	14891
915.019	14739
915.132	14735
915.245	14819
915.358	14785
915.47	14842
915.583	14777
915.696	14800
915.809	14902
915.921	14918
916.034	14800
916.146	14693
916.259	14670
916.371	14731
916.483	14693
916.595	14686
916.708	14769
916.82	14571
916.932	14610
917.044	14610
917.156	14651
917.268	14431
917.38	14545
917.491	14507
917.603	14408
917.715	14522
917.826	14682
917.938	14434
918.049	14282
918.161	14332
918.272	14526
918.384	14507
918.495	14400
918.606	14221
918.717	14103
918.828	14221
918.939	14191
919.05	14172
919.161	14225
919.272	14077
919.383	14058
919.494	14278
919.604	14408
919.715	14149
919.826	14065
919.936	14111
920.047	14286
920.157	14088
920.267	14355
920.378	14161
920.488	14130
920.598	14366
920.708	14492
920.818	14347
920.928	14244
921.038	14434
921.148	14393
921.258	14187
921.368	13951
921.477	13944
921.587	14031
921.697	13864
921.806	14008
921.916	13814
922.025	13712
922.134	13609
922.244	13594
922.353	13540
922.462	13422
922.571	13369
922.68	13251
922.789	13308
922.898	13217
923.007	13285
923.116	13160
923.224	13137
923.333	13270
923.442	13050
923.55	13004
923.659	13126
923.767	13103
923.876	13008
923.984	13080
924.092	12935
924.201	12913
924.309	12977
924.417	13019
924.525	12859
924.633	12924
924.741	13791
924.849	12700
924.956	12852
925.064	12677
925.172	12608
925.279	12650
925.387	12601
925.494	12673
925.602	12745
925.709	12662
925.816	12563
925.924	12608
926.031	12563
926.138	12677
926.245	12669
926.352	12544
926.459	12654
926.566	12734
926.673	12509
926.779	12350
926.886	12376
926.993	12342
927.099	12330
927.206	12186
927.312	12140
927.419	12270
927.525	12213
927.631	12311
927.737	12053
927.843	12087
927.95	11916
928.056	11988
928.162	12098
928.267	12152
928.373	12570
928.479	12087
928.585	11859
928.69	11980
928.796	12064
928.901	11745
929.007	11756
929.112	11942
929.218	11904
929.323	11790
929.428	11699
929.533	11961
929.638	11733
929.743	11737
929.848	11870
929.953	11726
930.058	11623
930.163	11577
930.267	11493
930.372	11581
930.477	11440
930.581	11661
930.685	11524
930.79	11265
930.894	11471
930.998	11364
931.103	11570
931.207	11178
931.311	11003
931.415	10999
931.519	10733
931.623	10653
