Data from test_V78500241_2048.txt Node
Date: Fri Mar 25 15:24:07 CST 2022
User: usil
Spectrometer: V785-0024
Trigger mode: 0
Integration Time (sec): 4.000000E-1
Scans to average: 1
Nonlinearity correction enabled: false
Boxcar width: 0
Storing dark spectrum: false
XAxis mode: Wavelengths
Number of Pixels in Spectrum: 1024
>>>>>Begin Spectral Data<<<<<
801.071	28070
801.214	27899
801.356	27606
801.499	27572
801.641	27382
801.783	27386
801.926	27416
802.068	27279
802.211	27332
802.353	27222
802.496	27081
802.638	27039
802.78	26979
802.923	27017
803.065	26872
803.208	26872
803.35	27108
803.492	27096
803.635	27199
803.777	27157
803.919	27154
804.061	27454
804.204	27260
804.346	27249
804.488	27203
804.63	27165
804.773	27146
804.915	27218
805.057	27401
805.199	27226
805.341	27218
805.483	27275
805.626	27367
805.768	27230
805.91	27344
806.052	27359
806.194	27294
806.336	27466
806.478	27450
806.62	27367
806.762	27504
806.904	27641
807.046	27876
807.188	27778
807.33	27739
807.472	27747
807.614	27785
807.756	27781
807.898	27629
808.04	27595
808.182	27766
808.324	27667
808.465	27667
808.607	27797
808.749	28078
808.891	28173
809.033	28101
809.174	28135
809.316	27888
809.458	28124
809.6	27949
809.741	28124
809.883	27964
810.025	28246
810.166	28177
810.308	28318
810.45	28185
810.591	28219
810.733	28017
810.875	28029
811.016	27907
811.158	27759
811.299	27994
811.441	28169
811.582	27888
811.724	27972
811.865	27907
812.007	27861
812.148	27968
812.29	27934
812.431	28109
812.573	28443
812.714	28360
812.855	28432
812.997	28622
813.138	28596
813.279	28588
813.421	28523
813.562	28413
813.703	28238
813.845	28246
813.986	28025
814.127	27793
814.268	27736
814.41	27762
814.551	27656
814.692	27682
814.833	27549
814.974	27682
815.115	27694
815.256	27523
815.397	27458
815.539	27610
815.68	27439
815.821	27420
815.962	27488
816.103	27485
816.244	27416
816.385	27298
816.526	27279
816.666	27051
816.807	26960
816.948	27036
817.089	27222
817.23	26864
817.371	26929
817.512	26872
817.653	26918
817.793	26910
817.934	27009
818.075	26845
818.216	27047
818.356	26857
818.497	26845
818.638	26670
818.778	26621
818.919	26644
819.06	26746
819.2	26872
819.341	26986
819.481	26952
819.622	27146
819.762	27199
819.903	27275
820.043	27195
820.184	27161
820.324	27062
820.465	27283
820.605	27081
820.746	26967
820.886	26845
821.026	27024
821.167	27009
821.307	27123
821.447	26986
821.588	26811
821.728	26716
821.868	26625
822.008	26313
822.149	26594
822.289	26355
822.429	26168
822.569	26020
822.709	26058
822.849	25993
822.99	25860
823.13	25913
823.27	25902
823.41	25769
823.55	25689
823.69	25677
823.83	25780
823.97	25738
824.11	25556
824.25	25495
824.389	25525
824.529	25609
824.669	25582
824.809	25666
824.949	25601
825.089	25639
825.228	25639
825.368	25464
825.508	25411
825.648	25491
825.787	25525
825.927	25544
826.067	25415
826.206	25343
826.346	25548
826.485	25483
826.625	25483
826.765	25556
826.904	25479
827.044	25259
827.183	25373
827.323	25107
827.462	25297
827.601	25126
827.741	25221
827.88	25122
828.02	25031
828.159	25118
828.298	25122
828.437	25110
828.577	25114
828.716	25308
828.855	25107
828.994	24821
829.134	24745
829.273	24837
829.412	24707
829.551	24779
829.69	24871
829.829	24863
829.968	24817
830.107	24863
830.246	24741
830.385	24817
830.524	24810
830.663	24661
830.802	24589
830.941	24437
831.08	24365
831.219	24509
831.357	24555
831.496	24684
831.635	24369
831.774	24380
831.913	24308
832.051	24342
832.19	24296
832.329	24239
832.467	24197
832.606	24155
832.744	24030
832.883	24152
833.022	24133
833.16	24068
833.299	24144
833.437	24114
833.576	24213
833.714	24197
833.852	24106
833.991	24235
834.129	24330
834.267	24129
834.406	24262
834.544	24140
834.682	24144
834.821	24235
834.959	24308
835.097	24159
835.235	24144
835.373	24072
835.511	24110
835.65	24220
835.788	24034
835.926	23832
836.064	23855
836.202	23874
836.34	23992
836.478	24182
836.615	24003
836.753	23847
836.891	23969
837.029	24102
837.167	23939
837.305	23908
837.443	23832
837.58	23828
837.718	23893
837.856	23893
837.993	23916
838.131	23817
838.269	23771
838.406	23783
838.544	23832
838.681	23604
838.819	23497
838.956	23212
839.094	23299
839.231	23410
839.369	23509
839.506	23710
839.643	23661
839.781	23254
839.918	23303
840.055	23387
840.193	23288
840.33	23189
840.467	23250
840.604	23349
840.742	23531
840.879	23094
841.016	23071
841.153	23174
841.29	23368
841.427	23151
841.564	23433
841.701	23318
841.838	23094
841.975	23064
842.112	23109
842.249	23048
842.385	22923
842.522	23204
842.659	23003
842.796	23006
842.933	23060
843.069	22942
843.206	23071
843.343	22991
843.479	22957
843.616	22961
843.752	22873
843.889	22873
844.025	22968
844.162	22953
844.298	22904
844.435	22877
844.571	22698
844.708	22759
844.844	22953
844.98	22908
845.117	23025
845.253	22637
845.389	22664
845.525	22649
845.661	22668
845.798	22599
845.934	22668
846.07	22512
846.206	22462
846.342	22611
846.478	22451
846.614	22325
846.75	22211
846.886	22166
847.022	22284
847.158	22306
847.294	22344
847.429	22181
847.565	22223
847.701	22538
847.837	21998
847.972	21968
848.108	21994
848.244	22025
848.379	22002
848.515	21835
848.65	21922
848.786	21743
848.921	21819
849.057	21930
849.192	21808
849.328	21781
849.463	21838
849.598	21816
849.734	21671
849.869	21618
850.004	21576
850.14	21564
850.275	21652
850.41	21466
850.545	21629
850.68	21462
850.815	21534
850.95	21458
851.085	21816
851.22	21698
851.355	21526
851.49	21606
851.625	21492
851.76	21564
851.895	21583
852.03	21443
852.165	21504
852.299	21625
852.434	21641
852.569	21660
852.703	21743
852.838	21671
852.973	21686
853.107	21694
853.242	21656
853.376	21454
853.511	21359
853.645	21412
853.78	21557
853.914	21500
854.048	21370
854.183	21420
854.317	21511
854.451	21580
854.585	21302
854.72	21405
854.854	21610
854.988	21389
855.122	21325
855.256	21222
855.39	21481
855.524	21488
855.658	21481
855.792	21439
855.926	21416
856.06	21462
856.194	21542
856.327	21401
856.461	21336
856.595	21382
856.729	21382
856.862	21538
856.996	21431
857.13	21443
857.263	21412
857.397	21515
857.53	21287
857.664	21355
857.797	21435
857.931	21416
858.064	21466
858.197	21534
858.331	21336
858.464	21389
858.597	21370
858.731	21374
858.864	21359
858.997	21405
859.13	21344
859.263	21435
859.396	21523
859.529	21355
859.662	21405
859.795	21256
859.928	21439
860.061	21633
860.194	21629
860.327	21367
860.46	21473
860.592	21447
860.725	21500
860.858	21576
860.99	21313
861.123	21249
861.256	21378
861.388	21401
861.521	21945
861.653	21222
861.786	21211
861.918	21313
862.05	21344
862.183	21310
862.315	21226
862.447	21439
862.58	21313
862.712	21127
862.844	21074
862.976	21214
863.108	21157
863.24	21481
863.372	21100
863.504	21089
863.636	21119
863.768	21100
863.9	21199
864.032	21108
864.164	21066
864.296	21241
864.428	21321
864.559	21123
864.691	21157
864.823	21161
864.954	21032
865.086	21116
865.217	20990
865.349	20929
865.48	20937
865.612	21051
865.743	21104
865.875	21047
866.006	20971
866.137	21085
866.269	20963
866.4	20971
866.531	20990
866.662	20876
866.793	20971
866.924	21024
867.055	21036
867.186	20906
867.317	20914
867.448	20834
867.579	20853
867.71	20910
867.841	20914
867.972	20960
868.103	20956
868.233	20986
868.364	20914
868.495	21066
868.625	21100
868.756	21264
868.886	21199
869.017	21154
869.147	21321
869.278	21325
869.408	21146
869.539	21203
869.669	21233
869.799	21195
869.929	21401
870.06	21321
870.19	21511
870.32	21545
870.45	21504
870.58	21633
870.71	21705
870.84	21732
870.97	21629
871.1	21420
871.23	21831
871.36	21682
871.489	21667
871.619	21812
871.749	21827
871.879	21728
872.008	21991
872.138	21819
872.267	21690
872.397	21637
872.526	21667
872.656	21564
872.785	21610
872.915	21892
873.044	21854
873.173	21892
873.303	21934
873.432	21816
873.561	21915
873.69	21797
873.819	21800
873.948	21934
874.077	21922
874.206	21762
874.335	21808
874.464	21945
874.593	22055
874.722	22067
874.851	22192
874.979	22032
875.108	22063
875.237	21991
875.365	21960
875.494	21964
875.623	22051
875.751	21979
875.88	21991
876.008	22082
876.136	22101
876.265	22470
876.393	22516
876.521	22421
876.65	22436
876.778	22500
876.906	22409
877.034	22268
877.162	22303
877.29	22424
877.418	22413
877.546	22253
877.674	22344
877.802	22440
877.93	22322
878.058	22390
878.185	22196
878.313	22363
878.441	22367
878.568	22265
878.696	22265
878.824	22409
878.951	22474
879.079	22542
879.206	22588
879.333	22508
879.461	22531
879.588	22432
879.715	22447
879.842	22550
879.97	22348
880.097	22211
880.224	22284
880.351	22169
880.478	22185
880.605	22261
880.732	22211
880.859	22325
880.986	22219
881.112	22143
881.239	22021
881.366	21968
881.493	21903
881.619	21838
881.746	21876
881.872	21701
881.999	21663
882.125	21778
882.252	21838
882.378	21709
882.505	21922
882.631	21610
882.757	21416
882.883	21622
883.01	21466
883.136	21572
883.262	21363
883.388	21207
883.514	21458
883.64	21481
883.766	21530
883.892	21279
884.018	21230
884.143	21306
884.269	21462
884.395	21195
884.52	21077
884.646	21081
884.772	21093
884.897	21093
885.023	21043
885.148	21207
885.274	21317
885.399	21192
885.524	21157
885.65	21096
885.775	21116
885.9	21100
886.025	21275
886.15	21127
886.275	21142
886.4	20921
886.525	21062
886.65	21058
886.775	20986
886.9	21119
887.025	21275
887.149	21066
887.274	20872
887.399	20845
887.523	20777
887.648	20849
887.773	20845
887.897	20971
888.021	20994
888.146	20735
888.27	20952
888.395	21009
888.519	20750
888.643	20826
888.767	20834
888.891	20724
889.015	20621
889.139	20739
889.263	20598
889.387	20739
889.511	21028
889.635	20720
889.759	20655
889.883	20674
890.006	20693
890.13	20845
890.254	20625
890.377	20518
890.501	20511
890.624	20324
890.748	20457
890.871	20396
890.995	20138
891.118	20138
891.241	20332
891.364	20240
891.488	20469
891.611	20259
891.734	20164
891.857	20366
891.98	20259
892.103	20355
892.226	20157
892.349	20138
892.471	20180
892.594	20126
892.717	20237
892.839	20111
892.962	20199
893.085	20149
893.207	20077
893.33	20058
893.452	20008
893.575	20153
893.697	20149
893.819	20389
893.941	20313
894.064	20221
894.186	20016
894.308	20107
894.43	20210
894.552	20142
894.674	20267
894.796	19970
894.918	19986
895.04	20084
895.161	20161
895.283	20157
895.405	20008
895.526	20187
895.648	20005
895.769	20126
895.891	20191
896.012	20252
896.134	20122
896.255	20206
896.376	20054
896.498	20039
896.619	20187
896.74	20111
896.861	20290
896.982	20499
897.103	20636
897.224	20396
897.345	20408
897.466	20191
897.587	20370
897.708	20461
897.828	20454
897.949	20248
898.07	20218
898.19	20351
898.311	20412
898.431	20396
898.552	20454
898.672	20385
898.792	20366
898.913	20294
899.033	20290
899.153	20191
899.273	20096
899.393	20145
899.513	20122
899.633	20062
899.753	20199
899.873	20100
899.993	20145
900.113	19963
900.232	20115
900.352	20027
900.472	20058
900.591	19814
900.711	19830
900.83	19772
900.95	19940
901.069	19936
901.189	19803
901.308	19597
901.427	19438
901.546	19411
901.665	19537
901.784	19476
901.904	19400
902.023	19221
902.141	19031
902.26	19027
902.379	19065
902.498	18996
902.617	18989
902.735	19023
902.854	18973
902.973	18966
903.091	18623
903.21	18513
903.328	18730
903.446	18566
903.565	18483
903.683	18460
903.801	18350
903.919	18426
904.038	18357
904.156	18197
904.274	18262
904.392	18220
904.51	18136
904.627	18205
904.745	18391
904.863	18346
904.981	18125
905.098	17973
905.216	17916
905.334	17965
905.451	17904
905.569	17843
905.686	17942
905.803	17859
905.921	17665
906.038	17794
906.155	17630
906.272	17661
906.389	17611
906.506	17440
906.623	17429
906.74	17459
906.857	17376
906.974	17322
907.091	17509
907.208	17467
907.324	17379
907.441	17189
907.557	17159
907.674	17132
907.79	17132
907.907	17128
908.023	17143
908.139	17048
908.256	17010
908.372	17060
908.488	16987
908.604	16911
908.72	16831
908.836	16843
908.952	16748
909.068	16946
909.184	17033
909.3	16801
909.415	16889
909.531	16915
909.647	16550
909.762	16558
909.878	16630
909.993	16554
910.108	16497
910.224	16554
910.339	16500
910.454	16405
910.57	16413
910.685	16299
910.8	16565
910.915	16588
911.03	16306
911.145	16211
911.259	16086
911.374	16192
911.489	16086
911.604	15979
911.718	15930
911.833	15850
911.947	15789
912.062	15800
912.176	15865
912.291	15895
912.405	15899
912.519	16021
912.633	16051
912.748	15838
912.862	15861
912.976	15789
913.09	15610
913.204	15644
913.318	15675
913.431	15705
913.545	15819
913.659	15800
913.772	15652
913.886	15515
914	15576
914.113	15622
914.226	15671
914.34	15625
914.453	15496
914.566	15625
914.68	15496
914.793	15306
914.906	15233
915.019	15123
915.132	15020
915.245	15188
915.358	15157
915.47	15104
915.583	15104
915.696	15138
915.809	15199
915.921	15150
916.034	15077
916.146	14925
916.259	14914
916.371	15077
916.483	15074
916.595	14952
916.708	14956
916.82	14963
916.932	14933
917.044	14887
917.156	14891
917.268	14804
917.38	14777
917.491	14765
917.603	14727
917.715	14872
917.826	14891
917.938	14667
918.049	14648
918.161	14724
918.272	14754
918.384	14724
918.495	14826
918.606	14560
918.717	14446
918.828	14499
918.939	14552
919.05	14446
919.161	14495
919.272	14256
919.383	14393
919.494	14541
919.604	14693
919.715	14545
919.826	14461
919.936	14522
920.047	14507
920.157	14511
920.267	14629
920.378	14560
920.488	14530
920.598	14667
920.708	14788
920.818	14556
920.928	14575
921.038	14800
921.148	14705
921.258	14469
921.368	14332
921.477	14183
921.587	14202
921.697	14111
921.806	14309
921.916	14046
922.025	13913
922.134	13921
922.244	13852
922.353	13860
922.462	13757
922.571	13643
922.68	13537
922.789	13483
922.898	13556
923.007	13518
923.116	13552
923.224	13460
923.333	13434
923.442	13384
923.55	13335
923.659	13331
923.767	13343
923.876	13327
923.984	13350
924.092	13236
924.201	13335
924.309	13221
924.417	13225
924.525	13183
924.633	13160
924.741	13871
924.849	13004
924.956	13061
925.064	12970
925.172	12894
925.279	13015
925.387	12916
925.494	12894
925.602	13004
925.709	13008
925.816	12749
925.924	12848
926.031	12909
926.138	12817
926.245	12935
926.352	12757
926.459	12897
926.566	12878
926.673	12829
926.779	12764
926.886	12673
926.993	12578
927.099	12483
927.206	12403
927.312	12464
927.419	12578
927.525	12433
927.631	12555
927.737	12388
927.843	12334
927.95	12213
928.056	12342
928.162	12311
928.267	12399
928.373	12909
928.479	12395
928.585	12190
928.69	12239
928.796	12369
928.901	12247
929.007	12019
929.112	12163
929.218	12144
929.323	12095
929.428	12049
929.533	12129
929.638	11958
929.743	12022
929.848	12106
929.953	12060
930.058	11908
930.163	11722
930.267	11668
930.372	11866
930.477	11684
930.581	12003
930.685	11764
930.79	11608
930.894	11707
930.998	11600
931.103	11726
931.207	11364
931.311	11296
931.415	11185
931.519	11037
931.623	10953
