Data from test_V78500241_1158.txt Node
Date: Fri Mar 25 15:17:55 CST 2022
User: usil
Spectrometer: V785-0024
Trigger mode: 0
Integration Time (sec): 4.000000E-1
Scans to average: 1
Nonlinearity correction enabled: false
Boxcar width: 0
Storing dark spectrum: false
XAxis mode: Wavelengths
Number of Pixels in Spectrum: 1024
>>>>>Begin Spectral Data<<<<<
801.071	28360
801.214	28329
801.356	28139
801.499	27945
801.641	27850
801.783	27895
801.926	27895
802.068	27964
802.211	27857
802.353	27892
802.496	27515
802.638	27485
802.78	27583
802.923	27504
803.065	27454
803.208	27606
803.35	27599
803.492	27682
803.635	27804
803.777	27614
803.919	27884
804.061	27998
804.204	27876
804.346	27698
804.488	27762
804.63	27804
804.773	27682
804.915	27785
805.057	27987
805.199	27789
805.341	27930
805.483	27964
805.626	27880
805.768	27755
805.91	27991
806.052	27987
806.194	27892
806.336	28188
806.478	27991
806.62	27937
806.762	28116
806.904	28291
807.046	28485
807.188	28344
807.33	28386
807.472	28459
807.614	28417
807.756	28371
807.898	28238
808.04	28188
808.182	28299
808.324	28219
808.465	28447
808.607	28421
808.749	28546
808.891	28793
809.033	28858
809.174	28668
809.316	28641
809.458	28641
809.6	28481
809.741	28626
809.883	28721
810.025	28957
810.166	28942
810.308	28831
810.45	28980
810.591	28809
810.733	28694
810.875	28603
811.016	28664
811.158	28459
811.299	28687
811.441	28752
811.582	28691
811.724	28554
811.865	28622
812.007	28546
812.148	28485
812.29	28744
812.431	28869
812.573	28984
812.714	29094
812.855	29170
812.997	29235
813.138	29349
813.279	29463
813.421	29181
813.562	29143
813.703	28968
813.845	28888
813.986	28504
814.127	28352
814.268	28265
814.41	28409
814.551	28268
814.692	28352
814.833	28173
814.974	28382
815.115	28360
815.256	28310
815.397	28268
815.539	28192
815.68	28154
815.821	28173
815.962	28116
816.103	28204
816.244	28120
816.385	27808
816.526	27998
816.666	27774
816.807	27534
816.948	27618
817.089	27599
817.23	27751
817.371	27576
817.512	27603
817.653	27576
817.793	27576
817.934	27686
818.075	27694
818.216	27583
818.356	27873
818.497	27641
818.638	27473
818.778	27473
818.919	27443
819.06	27568
819.2	27660
819.341	27751
819.481	27549
819.622	27732
819.762	27968
819.903	27998
820.043	27823
820.184	27743
820.324	27701
820.465	27797
820.605	27846
820.746	27759
820.886	27831
821.026	27819
821.167	27667
821.307	27842
821.447	27800
821.588	27618
821.728	27466
821.868	27226
822.008	27226
822.149	27207
822.289	27203
822.429	26940
822.569	26762
822.709	26826
822.849	26678
822.99	26609
823.13	26754
823.27	26598
823.41	26442
823.55	26415
823.69	26552
823.83	26313
823.97	26537
824.11	26358
824.25	26294
824.389	26393
824.529	26400
824.669	26396
824.809	26427
824.949	26336
825.089	26290
825.228	26423
825.368	26187
825.508	26073
825.648	26267
825.787	26320
825.927	26237
826.067	26294
826.206	26237
826.346	26092
826.485	26161
826.625	26195
826.765	26313
826.904	26195
827.044	25898
827.183	25963
827.323	25951
827.462	25997
827.601	26008
827.741	25852
827.88	25989
828.02	25845
828.159	25917
828.298	25902
828.437	25917
828.577	25784
828.716	25986
828.855	25727
828.994	25655
829.134	25734
829.273	25632
829.412	25651
829.551	25635
829.69	25613
829.829	25632
829.968	25666
830.107	25693
830.246	25613
830.385	25628
830.524	25529
830.663	25426
830.802	25396
830.941	25091
831.08	25278
831.219	25343
831.357	25289
831.496	25601
831.635	25327
831.774	25232
831.913	25236
832.051	25069
832.19	25069
832.329	25107
832.467	24992
832.606	24894
832.744	24897
832.883	24905
833.022	24928
833.16	24932
833.299	24966
833.437	24958
833.576	24924
833.714	25012
833.852	25057
833.991	25034
834.129	25034
834.267	24958
834.406	25008
834.544	25080
834.682	24985
834.821	24954
834.959	25263
835.097	24943
835.235	25012
835.373	24962
835.511	24951
835.65	24924
835.788	24875
835.926	24787
836.064	24681
836.202	24616
836.34	24734
836.478	24897
836.615	24916
836.753	24935
836.891	24913
837.029	24977
837.167	24844
837.305	24703
837.443	24795
837.58	24582
837.718	24700
837.856	24642
837.993	24673
838.131	24623
838.269	24555
838.406	24616
838.544	24490
838.681	24232
838.819	24338
838.956	24243
839.094	24155
839.231	24167
839.369	24372
839.506	24597
839.643	24403
839.781	24114
839.918	24258
840.055	24171
840.193	24178
840.33	24114
840.467	24148
840.604	24144
840.742	24224
840.879	23973
841.016	24003
841.153	24018
841.29	24148
841.427	24060
841.564	24079
841.701	24030
841.838	24041
841.975	23942
842.112	23946
842.249	23908
842.385	23843
842.522	23939
842.659	23817
842.796	23722
842.933	23920
843.069	23843
843.206	23733
843.343	23847
843.479	23866
843.616	23786
843.752	23619
843.889	23718
844.025	23729
844.162	23570
844.298	23638
844.435	23512
844.571	23585
844.708	23638
844.844	23630
844.98	23714
845.117	23680
845.253	23562
845.389	23493
845.525	23505
845.661	23463
845.798	23318
845.934	23444
846.07	23280
846.206	23524
846.342	23486
846.478	23246
846.614	23155
846.75	22957
846.886	23143
847.022	23086
847.158	23067
847.294	22999
847.429	23197
847.565	23025
847.701	23296
847.837	22664
847.972	22774
848.108	22755
848.244	22885
848.379	22759
848.515	22584
848.65	22790
848.786	22634
848.921	22603
849.057	22809
849.192	22725
849.328	22683
849.463	22561
849.598	22531
849.734	22641
849.869	22466
850.004	22402
850.14	22379
850.275	22390
850.41	22459
850.545	22360
850.68	22390
850.815	22569
850.95	22337
851.085	22554
851.22	22478
851.355	22398
851.49	22421
851.625	22333
851.76	22417
851.895	22394
852.03	22234
852.165	22306
852.299	22409
852.434	22474
852.569	22363
852.703	22348
852.838	22500
852.973	22626
853.107	22497
853.242	22234
853.376	22272
853.511	22006
853.645	22169
853.78	22333
853.914	22226
854.048	22082
854.183	22299
854.317	22230
854.451	22447
854.585	22181
854.72	22223
854.854	22299
854.988	22234
855.122	22196
855.256	22124
855.39	22139
855.524	22341
855.658	22257
855.792	22268
855.926	22131
856.06	22268
856.194	22371
856.327	22299
856.461	22162
856.595	22200
856.729	22093
856.862	22333
856.996	22196
857.13	22272
857.263	22303
857.397	22261
857.53	22253
857.664	22211
857.797	22348
857.931	22489
858.064	22177
858.197	22371
858.331	22112
858.464	22139
858.597	22055
858.731	22200
858.864	22169
858.997	22090
859.13	22295
859.263	22109
859.396	22314
859.529	22112
859.662	22162
859.795	22169
859.928	22128
860.061	22314
860.194	22398
860.327	22261
860.46	22295
860.592	22234
860.725	22394
860.858	22295
860.99	22253
861.123	22238
861.256	22242
861.388	22272
861.521	22923
861.653	22120
861.786	21903
861.918	21968
862.05	22204
862.183	22097
862.315	22093
862.447	22257
862.58	22112
862.712	21941
862.844	21975
862.976	21975
863.108	21964
863.24	22147
863.372	21884
863.504	21857
863.636	21922
863.768	21972
863.9	21835
864.032	21865
864.164	21922
864.296	21827
864.428	22013
864.559	21979
864.691	22025
864.823	21983
864.954	21892
865.086	21911
865.217	21823
865.349	21778
865.48	21804
865.612	21797
865.743	21918
865.875	21857
866.006	21751
866.137	21800
866.269	21778
866.4	21812
866.531	21671
866.662	21622
866.793	21660
866.924	21774
867.055	21816
867.186	21770
867.317	21717
867.448	21641
867.579	21663
867.71	21587
867.841	21603
867.972	21724
868.103	21793
868.233	21736
868.364	21717
868.495	21789
868.625	21930
868.756	22128
868.886	21911
869.017	21979
869.147	22006
869.278	22040
869.408	22074
869.539	21899
869.669	22101
869.799	21991
869.929	22200
870.06	22048
870.19	22295
870.32	22253
870.45	22265
870.58	22257
870.71	22341
870.84	22443
870.97	22333
871.1	22379
871.23	22424
871.36	22538
871.489	22424
871.619	22565
871.749	22519
871.879	22565
872.008	22645
872.138	22493
872.267	22656
872.397	22341
872.526	22371
872.656	22314
872.785	22341
872.915	22607
873.044	22725
873.173	22626
873.303	22649
873.432	22516
873.561	22645
873.69	22687
873.819	22481
873.948	22725
874.077	22588
874.206	22443
874.335	22523
874.464	22687
874.593	22801
874.722	22687
874.851	22862
874.979	22831
875.108	22839
875.237	22675
875.365	22653
875.494	22828
875.623	22877
875.751	22767
875.88	22877
876.008	22976
876.136	22980
876.265	23143
876.393	23258
876.521	23311
876.65	23162
876.778	23159
876.906	23132
877.034	23079
877.162	23048
877.29	23044
877.418	23197
877.546	23200
877.674	23147
877.802	23239
877.93	23048
878.058	22995
878.185	22934
878.313	23075
878.441	23086
878.568	22976
878.696	23090
878.824	23121
878.951	23143
879.079	23242
879.206	23353
879.333	23299
879.461	23166
879.588	23315
879.715	23212
879.842	23383
879.97	23204
880.097	22995
880.224	22938
880.351	22987
880.478	22987
880.605	22930
880.732	22957
880.859	23067
880.986	23003
881.112	22987
881.239	22843
881.366	22675
881.493	22584
881.619	22523
881.746	22577
881.872	22462
881.999	22584
882.125	22500
882.252	22557
882.378	22519
882.505	22637
882.631	22280
882.757	22185
882.883	22306
883.01	22318
883.136	22059
883.262	22173
883.388	22154
883.514	22329
883.64	22185
883.766	22177
883.892	21975
884.018	21915
884.143	22150
884.269	22143
884.395	22025
884.52	21797
884.646	21895
884.772	21739
884.897	21781
885.023	21876
885.148	21850
885.274	21964
885.399	21922
885.524	21838
885.65	21899
885.775	21846
885.9	21823
886.025	21998
886.15	21850
886.275	21812
886.4	21625
886.525	21800
886.65	21743
886.775	21709
886.9	21823
887.025	22029
887.149	21728
887.274	21603
887.399	21599
887.523	21644
887.648	21553
887.773	21523
887.897	21663
888.021	21618
888.146	21568
888.27	21694
888.395	21679
888.519	21603
888.643	21599
888.767	21561
888.891	21682
889.015	21355
889.139	21447
889.263	21420
889.387	21511
889.511	21679
889.635	21412
889.759	21412
889.883	21420
890.006	21351
890.13	21412
890.254	21393
890.377	21245
890.501	21081
890.624	21142
890.748	21150
890.871	21028
890.995	20918
891.118	20986
891.241	20941
891.364	20937
891.488	21020
891.611	20918
891.734	20861
891.857	20982
891.98	20887
892.103	21009
892.226	20952
892.349	20876
892.471	20754
892.594	20921
892.717	20921
892.839	20883
892.962	20796
893.085	20895
893.207	20887
893.33	20674
893.452	20819
893.575	20876
893.697	20727
893.819	21009
893.941	21020
894.064	20899
894.186	20826
894.308	20750
894.43	20826
894.552	20891
894.674	20914
894.796	20648
894.918	20807
895.04	20758
895.161	20853
895.283	20849
895.405	20678
895.526	20708
895.648	20758
895.769	20864
895.891	20899
896.012	20849
896.134	20876
896.255	20701
896.376	20800
896.498	20792
896.619	20788
896.74	20636
896.861	20788
896.982	21036
897.103	21256
897.224	21100
897.345	20944
897.466	20948
897.587	21104
897.708	21249
897.828	21074
897.949	20906
898.07	20845
898.19	20891
898.311	21013
898.431	21047
898.552	20823
898.672	21131
898.792	21020
898.913	20956
899.033	20842
899.153	20815
899.273	20648
899.393	20682
899.513	20819
899.633	20606
899.753	20777
899.873	20655
899.993	20705
900.113	20594
900.232	20754
900.352	20724
900.472	20507
900.591	20450
900.711	20522
900.83	20396
900.95	20613
901.069	20606
901.189	20454
901.308	20183
901.427	20054
901.546	19993
901.665	20119
901.784	20001
901.904	19970
902.023	19852
902.141	19635
902.26	19540
902.379	19655
902.498	19514
902.617	19502
902.735	19605
902.854	19544
902.973	19540
903.091	19282
903.21	19164
903.328	19148
903.446	19107
903.565	19015
903.683	18985
903.801	18939
903.919	18962
904.038	18985
904.156	18768
904.274	18863
904.392	18791
904.51	18715
904.627	18806
904.745	18856
904.863	19012
904.981	18642
905.098	18399
905.216	18429
905.334	18547
905.451	18471
905.569	18426
905.686	18502
905.803	18429
905.921	18159
906.038	18334
906.155	18330
906.272	18136
906.389	18190
906.506	17942
906.623	18087
906.74	17996
906.857	17802
906.974	17843
907.091	17992
907.208	18041
907.324	18015
907.441	17912
907.557	17661
907.674	17893
907.79	17687
907.907	17600
908.023	17718
908.139	17737
908.256	17707
908.372	17726
908.488	17627
908.604	17452
908.72	17486
908.836	17558
908.952	17368
909.068	17452
909.184	17440
909.3	17402
909.415	17543
909.531	17398
909.647	17197
909.762	17025
909.878	17109
909.993	17136
910.108	17105
910.224	17178
910.339	17045
910.454	17010
910.57	16930
910.685	16782
910.8	17185
910.915	17155
911.03	16953
911.145	16679
911.259	16793
911.374	16672
911.489	16687
911.604	16596
911.718	16527
911.833	16554
911.947	16314
912.062	16291
912.176	16386
912.291	16356
912.405	16405
912.519	16634
912.633	16626
912.748	16474
912.862	16436
912.976	16265
913.09	16116
913.204	16299
913.318	16219
913.431	16325
913.545	16421
913.659	16318
913.772	16158
913.886	16097
914	16067
914.113	16150
914.226	16150
914.34	16013
914.453	16002
914.566	16051
914.68	16021
914.793	15835
914.906	15713
915.019	15637
915.132	15568
915.245	15549
915.358	15690
915.47	15633
915.583	15603
915.696	15728
915.809	15778
915.921	15762
916.034	15599
916.146	15511
916.259	15511
916.371	15641
916.483	15648
916.595	15507
916.708	15466
916.82	15447
916.932	15416
917.044	15473
917.156	15428
917.268	15291
917.38	15344
917.491	15249
917.603	15256
917.715	15386
917.826	15370
917.938	15252
918.049	15039
918.161	15131
918.272	15458
918.384	15340
918.495	15203
918.606	15131
918.717	14952
918.828	15017
918.939	14948
919.05	14876
919.161	15047
919.272	14720
919.383	14918
919.494	15032
919.604	15154
919.715	14967
919.826	14902
919.936	14944
920.047	14952
920.157	15047
920.267	15180
920.378	15028
920.488	14998
920.598	15123
920.708	15165
920.818	15009
920.928	15131
921.038	15241
921.148	15222
921.258	14937
921.368	14804
921.477	14861
921.587	14678
921.697	14602
921.806	14785
921.916	14564
922.025	14427
922.134	14271
922.244	14259
922.353	14271
922.462	14290
922.571	14214
922.68	14020
922.789	13967
922.898	13982
923.007	13788
923.116	14008
923.224	14005
923.333	13833
923.442	13928
923.55	13788
923.659	13868
923.767	13879
923.876	13746
923.984	13738
924.092	13715
924.201	13757
924.309	13780
924.417	13647
924.525	13643
924.633	13563
924.741	14617
924.849	13331
924.956	13563
925.064	13453
925.172	13373
925.279	13324
925.387	13396
925.494	13335
925.602	13476
925.709	13400
925.816	13228
925.924	13316
926.031	13403
926.138	13247
926.245	13289
926.352	13168
926.459	13396
926.566	13293
926.673	13228
926.779	13114
926.886	12989
926.993	12977
927.099	12894
927.206	12856
927.312	12897
927.419	13027
927.525	12844
927.631	12920
927.737	12757
927.843	12795
927.95	12658
928.056	12768
928.162	12745
928.267	12856
928.373	13190
928.479	12700
928.585	12532
928.69	12707
928.796	12760
928.901	12623
929.007	12441
929.112	12578
929.218	12540
929.323	12532
929.428	12399
929.533	12646
929.638	12395
929.743	12426
929.848	12536
929.953	12422
930.058	12319
930.163	12087
930.267	12125
930.372	12239
930.477	12041
930.581	12292
930.685	12209
930.79	12053
930.894	12007
930.998	11988
931.103	12083
931.207	11703
931.311	11680
931.415	11554
931.519	11410
931.623	11364
