Data from test_V78500241_193.txt Node
Date: Fri Mar 25 15:11:12 CST 2022
User: usil
Spectrometer: V785-0024
Trigger mode: 0
Integration Time (sec): 4.000000E-1
Scans to average: 1
Nonlinearity correction enabled: false
Boxcar width: 0
Storing dark spectrum: false
XAxis mode: Wavelengths
Number of Pixels in Spectrum: 1024
>>>>>Begin Spectral Data<<<<<
801.071	28002
801.214	27934
801.356	27720
801.499	27603
801.641	27667
801.783	27526
801.926	27660
802.068	27545
802.211	27447
802.353	27401
802.496	27222
802.638	27184
802.78	27028
802.923	27165
803.065	26963
803.208	27017
803.35	27157
803.492	27207
803.635	27370
803.777	27245
803.919	27268
804.061	27637
804.204	27401
804.346	27256
804.488	27199
804.63	27237
804.773	27020
804.915	27332
805.057	27306
805.199	27302
805.341	27275
805.483	27340
805.626	27218
805.768	27256
805.91	27222
806.052	27351
806.194	27230
806.336	27542
806.478	27523
806.62	27321
806.762	27466
806.904	27564
807.046	27759
807.188	27755
807.33	27823
807.472	27705
807.614	27618
807.756	27580
807.898	27507
808.04	27637
808.182	27351
808.324	27606
808.465	27618
808.607	27595
808.749	27983
808.891	27994
809.033	28006
809.174	27888
809.316	27857
809.458	27778
809.6	27808
809.741	27838
809.883	28029
810.025	28067
810.166	28021
810.308	28093
810.45	28124
810.591	27956
810.733	27968
810.875	27778
811.016	27705
811.158	27618
811.299	27701
811.441	27998
811.582	27831
811.724	27861
811.865	27713
812.007	27751
812.148	27743
812.29	27808
812.431	27797
812.573	28055
812.714	28219
812.855	28318
812.997	28421
813.138	28432
813.279	28352
813.421	28341
813.562	28306
813.703	28070
813.845	28040
813.986	27785
814.127	27557
814.268	27435
814.41	27473
814.551	27462
814.692	27462
814.833	27321
814.974	27268
815.115	27321
815.256	27272
815.397	27317
815.539	27169
815.68	27013
815.821	27161
815.962	27173
816.103	27081
816.244	26998
816.385	27085
816.526	26910
816.666	26731
816.807	26731
816.948	26651
817.089	26678
817.23	26514
817.371	26606
817.512	26667
817.653	26583
817.793	26442
817.934	26651
818.075	26697
818.216	26697
818.356	26484
818.497	26476
818.638	26328
818.778	26495
818.919	26374
819.06	26453
819.2	26457
819.341	26621
819.481	26499
819.622	26765
819.762	26792
819.903	26781
820.043	26765
820.184	26667
820.324	26617
820.465	26750
820.605	26716
820.746	26693
820.886	26446
821.026	26541
821.167	26545
821.307	26708
821.447	26583
821.588	26404
821.728	26355
821.868	26073
822.008	26050
822.149	25951
822.289	26016
822.429	25746
822.569	25738
822.709	25742
822.849	25457
822.99	25460
823.13	25324
823.27	25312
823.41	25282
823.55	25072
823.69	25278
823.83	25278
823.97	25091
824.11	25061
824.25	25088
824.389	25103
824.529	25228
824.669	25038
824.809	25202
824.949	25297
825.089	25042
825.228	25126
825.368	24878
825.508	24966
825.648	24875
825.787	24951
825.927	25012
826.067	24871
826.206	24897
826.346	24867
826.485	24878
826.625	24722
826.765	25000
826.904	24867
827.044	24555
827.183	24566
827.323	24517
827.462	24612
827.601	24532
827.741	24509
827.88	24585
828.02	24601
828.159	24479
828.298	24631
828.437	24684
828.577	24456
828.716	24642
828.855	24593
828.994	24395
829.134	24163
829.273	24247
829.412	24148
829.551	24239
829.69	24334
829.829	24384
829.968	24338
830.107	24247
830.246	24262
830.385	24110
830.524	24110
830.663	23961
830.802	24098
830.941	23897
831.08	23805
831.219	23961
831.357	23748
831.496	23927
831.635	23783
831.774	23775
831.913	23638
832.051	23741
832.19	23589
832.329	23657
832.467	23562
832.606	23387
832.744	23493
832.883	23406
833.022	23444
833.16	23406
833.299	23486
833.437	23649
833.576	23672
833.714	23581
833.852	23551
833.991	23463
834.129	23551
834.267	23627
834.406	23509
834.544	23596
834.682	23505
834.821	23391
834.959	23653
835.097	23429
835.235	23448
835.373	23551
835.511	23414
835.65	23258
835.788	23436
835.926	23170
836.064	23212
836.202	23200
836.34	23429
836.478	23421
836.615	23318
836.753	23429
836.891	23398
837.029	23368
837.167	23284
837.305	23299
837.443	23200
837.58	23109
837.718	23288
837.856	23242
837.993	23132
838.131	23204
838.269	23041
838.406	23037
838.544	22862
838.681	22809
838.819	22679
838.956	22615
839.094	22668
839.231	22744
839.369	22736
839.506	22957
839.643	22923
839.781	22637
839.918	22546
840.055	22599
840.193	22531
840.33	22630
840.467	22527
840.604	22634
840.742	22816
840.879	22371
841.016	22489
841.153	22538
841.29	22584
841.427	22516
841.564	22637
841.701	22417
841.838	22516
841.975	22428
842.112	22276
842.249	22306
842.385	22226
842.522	22386
842.659	22303
842.796	22341
842.933	22226
843.069	22097
843.206	22185
843.343	22344
843.479	22246
843.616	22211
843.752	21899
843.889	21918
844.025	22246
844.162	21884
844.298	22090
844.435	22025
844.571	21949
844.708	21968
844.844	22131
844.98	22162
845.117	22036
845.253	21937
845.389	21720
845.525	21926
845.661	21892
845.798	21789
845.934	21785
846.07	21705
846.206	21808
846.342	21808
846.478	21679
846.614	21618
846.75	21405
846.886	21408
847.022	21447
847.158	21462
847.294	21526
847.429	21564
847.565	21386
847.701	21641
847.837	21313
847.972	21005
848.108	21325
848.244	21249
848.379	21058
848.515	21020
848.65	20956
848.786	21131
848.921	20963
849.057	21180
849.192	21332
849.328	21085
849.463	21077
849.598	20986
849.734	20982
849.869	20785
850.004	20826
850.14	20682
850.275	20758
850.41	20670
850.545	20705
850.68	20689
850.815	20834
850.95	20640
851.085	20887
851.22	20845
851.355	20746
851.49	20762
851.625	20663
851.76	20746
851.895	20644
852.03	20625
852.165	20754
852.299	20792
852.434	20796
852.569	20781
852.703	20746
852.838	20804
852.973	20857
853.107	20849
853.242	20762
853.376	20560
853.511	20469
853.645	20579
853.78	20727
853.914	20590
854.048	20583
854.183	20625
854.317	20606
854.451	20693
854.585	20564
854.72	20511
854.854	20602
854.988	20492
855.122	20541
855.256	20434
855.39	20560
855.524	20682
855.658	20625
855.792	20526
855.926	20495
856.06	20716
856.194	20598
856.327	20644
856.461	20518
856.595	20583
856.729	20556
856.862	20739
856.996	20488
857.13	20659
857.263	20743
857.397	20579
857.53	20530
857.664	20659
857.797	20667
857.931	20697
858.064	20549
858.197	20606
858.331	20450
858.464	20564
858.597	20465
858.731	20465
858.864	20469
858.997	20385
859.13	20495
859.263	20488
859.396	20552
859.529	20518
859.662	20499
859.795	20362
859.928	20682
860.061	20678
860.194	20644
860.327	20598
860.46	20541
860.592	20579
860.725	20663
860.858	20705
860.99	20640
861.123	20351
861.256	20400
861.388	20507
861.521	21279
861.653	20351
861.786	20298
861.918	20347
862.05	20415
862.183	20613
862.315	20511
862.447	20587
862.58	20465
862.712	20267
862.844	20355
862.976	20301
863.108	20332
863.24	20746
863.372	20103
863.504	20214
863.636	20206
863.768	20278
863.9	20130
864.032	20069
864.164	20206
864.296	20191
864.428	20492
864.559	20275
864.691	20229
864.823	20263
864.954	20183
865.086	20206
865.217	20031
865.349	20142
865.48	20225
865.612	20050
865.743	20244
865.875	20145
866.006	20046
866.137	20065
866.269	20024
866.4	20058
866.531	20126
866.662	19978
866.793	20084
866.924	20016
867.055	20092
867.186	20111
867.317	20046
867.448	20043
867.579	20012
867.71	20062
867.841	20012
867.972	20138
868.103	20046
868.233	20092
868.364	20027
868.495	20229
868.625	20218
868.756	20362
868.886	20332
869.017	20332
869.147	20473
869.278	20374
869.408	20366
869.539	20339
869.669	20400
869.799	20324
869.929	20511
870.06	20457
870.19	20530
870.32	20686
870.45	20644
870.58	20777
870.71	20731
870.84	20735
870.97	20735
871.1	20750
871.23	20960
871.36	20933
871.489	20735
871.619	20834
871.749	20883
871.879	20956
872.008	20982
872.138	20830
872.267	20952
872.397	20754
872.526	20686
872.656	20720
872.785	20659
872.915	20815
873.044	21020
873.173	20914
873.303	20979
873.432	20971
873.561	21001
873.69	20857
873.819	20944
873.948	21024
874.077	20914
874.206	20960
874.335	20975
874.464	21062
874.593	21249
874.722	21180
874.851	21268
874.979	21302
875.108	21207
875.237	21146
875.365	20986
875.494	21112
875.623	21096
875.751	21104
875.88	21157
876.008	21389
876.136	21332
876.265	21572
876.393	21599
876.521	21545
876.65	21599
876.778	21614
876.906	21526
877.034	21408
877.162	21454
877.29	21561
877.418	21595
877.546	21633
877.674	21443
877.802	21485
877.93	21644
878.058	21450
878.185	21382
878.313	21496
878.441	21420
878.568	21367
878.696	21492
878.824	21652
878.951	21599
879.079	21682
879.206	21934
879.333	21667
879.461	21504
879.588	21717
879.715	21629
879.842	21755
879.97	21526
880.097	21351
880.224	21275
880.351	21336
880.478	21294
880.605	21367
880.732	21454
880.859	21553
880.986	21279
881.112	21507
881.239	21138
881.366	21100
881.493	21055
881.619	20918
881.746	21081
881.872	20998
881.999	20864
882.125	20925
882.252	21096
882.378	20941
882.505	21138
882.631	20739
882.757	20629
882.883	20674
883.01	20644
883.136	20598
883.262	20461
883.388	20590
883.514	20663
883.64	20720
883.766	20686
883.892	20461
884.018	20495
884.143	20480
884.269	20750
884.395	20522
884.52	20385
884.646	20301
884.772	20313
884.897	20153
885.023	20263
885.148	20343
885.274	20511
885.399	20305
885.524	20355
885.65	20351
885.775	20309
885.9	20240
886.025	20492
886.15	20252
886.275	20434
886.4	20164
886.525	20199
886.65	20237
886.775	20183
886.9	20366
887.025	20381
887.149	20153
887.274	20191
887.399	20024
887.523	20062
887.648	20027
887.773	20035
887.897	20149
888.021	20115
888.146	20073
888.27	20100
888.395	20206
888.519	20202
888.643	20088
888.767	20119
888.891	19852
889.015	19887
889.139	19932
889.263	19837
889.387	20046
889.511	20024
889.635	19932
889.759	19708
889.883	19731
890.006	19814
890.13	19917
890.254	19769
890.377	19871
890.501	19620
890.624	19441
890.748	19552
890.871	19540
890.995	19449
891.118	19407
891.241	19457
891.364	19514
891.488	19552
891.611	19521
891.734	19457
891.857	19491
891.98	19430
892.103	19556
892.226	19468
892.349	19396
892.471	19350
892.594	19354
892.717	19362
892.839	19400
892.962	19270
893.085	19441
893.207	19331
893.33	19263
893.452	19236
893.575	19468
893.697	19308
893.819	19571
893.941	19544
894.064	19518
894.186	19343
894.308	19270
894.43	19407
894.552	19499
894.674	19483
894.796	19327
894.918	19407
895.04	19381
895.161	19392
895.283	19335
895.405	19365
895.526	19297
895.648	19396
895.769	19388
895.891	19343
896.012	19396
896.134	19445
896.255	19346
896.376	19434
896.498	19491
896.619	19407
896.74	19483
896.861	19430
896.982	19746
897.103	19955
897.224	19639
897.345	19651
897.466	19624
897.587	19514
897.708	19772
897.828	19670
897.949	19441
898.07	19346
898.19	19533
898.311	19761
898.431	19525
898.552	19578
898.672	19677
898.792	19613
898.913	19556
899.033	19468
899.153	19377
899.273	19301
899.393	19369
899.513	19388
899.633	19343
899.753	19244
899.873	19320
899.993	19327
900.113	19179
900.232	19259
900.352	19236
900.472	19236
900.591	19156
900.711	19297
900.83	19069
900.95	19148
901.069	19282
901.189	19122
901.308	18768
901.427	18726
901.546	18726
901.665	18677
901.784	18681
901.904	18498
902.023	18479
902.141	18388
902.26	18262
902.379	18289
902.498	18228
902.617	18163
902.735	18182
902.854	18216
902.973	18022
903.091	17996
903.21	17840
903.328	17927
903.446	17817
903.565	17802
903.683	17691
903.801	17524
903.919	17608
904.038	17649
904.156	17512
904.274	17570
904.392	17440
904.51	17436
904.627	17516
904.745	17634
904.863	17467
904.981	17212
905.098	17166
905.216	17121
905.334	17193
905.451	17216
905.569	17071
905.686	17212
905.803	17181
905.921	17022
906.038	17041
906.155	17014
906.272	16930
906.389	16843
906.506	16725
906.623	16687
906.74	16710
906.857	16554
906.974	16523
907.091	16793
907.208	16850
907.324	16835
907.441	16637
907.557	16436
907.674	16386
907.79	16344
907.907	16382
908.023	16405
908.139	16421
908.256	16344
908.372	16303
908.488	16219
908.604	16143
908.72	16074
908.836	16261
908.952	16044
909.068	16109
909.184	16249
909.3	16135
909.415	16025
909.531	16059
909.647	15751
909.762	15804
909.878	15835
909.993	15823
910.108	15751
910.224	15812
910.339	15694
910.454	15690
910.57	15679
910.685	15519
910.8	15819
910.915	15804
911.03	15625
911.145	15397
911.259	15458
911.374	15382
911.489	15310
911.604	15313
911.718	15203
911.833	15165
911.947	14990
912.062	15028
912.176	15036
912.291	15192
912.405	15146
912.519	15302
912.633	15355
912.748	15188
912.862	15135
912.976	14994
913.09	14769
913.204	14834
913.318	14990
913.431	15001
913.545	15062
913.659	15043
913.772	14937
913.886	14834
914	14720
914.113	14906
914.226	14880
914.34	14849
914.453	14754
914.566	14811
914.68	14686
914.793	14663
914.906	14568
915.019	14374
915.132	14393
915.245	14389
915.358	14461
915.47	14446
915.583	14442
915.696	14476
915.809	14511
915.921	14457
916.034	14415
916.146	14351
916.259	14313
916.371	14336
916.483	14324
916.595	14271
916.708	14294
916.82	14202
916.932	14263
917.044	14229
917.156	14164
917.268	14145
917.38	14126
917.491	14096
917.603	14054
917.715	14138
917.826	14290
917.938	14024
918.049	13921
918.161	14092
918.272	14123
918.384	14115
918.495	14107
918.606	13944
918.717	13795
918.828	13917
918.939	13883
919.05	13776
919.161	13849
919.272	13643
919.383	13616
919.494	13822
919.604	14008
919.715	13814
919.826	13719
919.936	13841
920.047	13887
920.157	13765
920.267	13974
920.378	13803
920.488	13731
920.598	13906
920.708	14065
920.818	13993
920.928	13986
921.038	14024
921.148	14111
921.258	13700
921.368	13700
921.477	13445
921.587	13540
921.697	13422
921.806	13548
921.916	13460
922.025	13320
922.134	13225
922.244	13164
922.353	13304
922.462	13069
922.571	13042
922.68	12897
922.789	12886
922.898	12852
923.007	12802
923.116	12924
923.224	12783
923.333	12745
923.442	12715
923.55	12620
923.659	12738
923.767	12722
923.876	12658
923.984	12684
924.092	12623
924.201	12627
924.309	12623
924.417	12612
924.525	12460
924.633	12528
924.741	13179
924.849	12353
924.956	12513
925.064	12300
925.172	12243
925.279	12372
925.387	12338
925.494	12376
925.602	12456
925.709	12467
925.816	12232
925.924	12247
926.031	12422
926.138	12239
926.245	12235
926.352	12163
926.459	12308
926.566	12319
926.673	12163
926.779	12003
926.886	11996
926.993	11980
927.099	11912
927.206	11870
927.312	11821
927.419	11859
927.525	11866
927.631	11942
927.737	11828
927.843	11748
927.95	11653
928.056	11710
928.162	11775
928.267	11779
928.373	12247
928.479	11802
928.585	11554
928.69	11684
928.796	11737
928.901	11535
929.007	11440
929.112	11600
929.218	11558
929.323	11486
929.428	11459
929.533	11577
929.638	11258
929.743	11429
929.848	11444
929.953	11368
930.058	11258
930.163	11159
930.267	11170
930.372	11254
930.477	11083
930.581	11345
930.685	11159
930.79	11010
930.894	11124
930.998	10999
931.103	11174
931.207	10748
931.311	10706
931.415	10603
931.519	10432
931.623	10424
