Data from test_V78500241_3598.txt Node
Date: Fri Mar 25 15:34:54 CST 2022
User: usil
Spectrometer: V785-0024
Trigger mode: 0
Integration Time (sec): 4.000000E-1
Scans to average: 1
Nonlinearity correction enabled: false
Boxcar width: 0
Storing dark spectrum: false
XAxis mode: Wavelengths
Number of Pixels in Spectrum: 1024
>>>>>Begin Spectral Data<<<<<
801.071	27355
801.214	27173
801.356	27085
801.499	27100
801.641	26754
801.783	26864
801.926	26914
802.068	26811
802.211	26765
802.353	26712
802.496	26461
802.638	26556
802.78	26514
802.923	26347
803.065	26351
803.208	26347
803.35	26522
803.492	26465
803.635	26693
803.777	26583
803.919	26450
804.061	26918
804.204	26518
804.346	26541
804.488	26530
804.63	26530
804.773	26434
804.915	26537
805.057	26629
805.199	26579
805.341	26621
805.483	26689
805.626	26667
805.768	26526
805.91	26781
806.052	26708
806.194	26686
806.336	26940
806.478	26762
806.62	26815
806.762	26754
806.904	26929
807.046	27291
807.188	27138
807.33	27036
807.472	27043
807.614	27062
807.756	27093
807.898	27055
808.04	26849
808.182	26845
808.324	27013
808.465	26982
808.607	27173
808.749	27355
808.891	27507
809.033	27435
809.174	27389
809.316	27272
809.458	27252
809.6	27272
809.741	27351
809.883	27443
810.025	27614
810.166	27481
810.308	27599
810.45	27443
810.591	27367
810.733	27310
810.875	27310
811.016	27256
811.158	27154
811.299	27477
811.441	27462
811.582	27408
811.724	27386
811.865	27264
812.007	27359
812.148	27214
812.29	27233
812.431	27488
812.573	27587
812.714	27766
812.855	27850
812.997	27930
813.138	27991
813.279	27949
813.421	27812
813.562	27713
813.703	27622
813.845	27515
813.986	27233
814.127	27047
814.268	26960
814.41	27100
814.551	26910
814.692	27055
814.833	26918
814.974	26975
815.115	26876
815.256	26883
815.397	26914
815.539	26792
815.68	26731
815.821	26739
815.962	26853
816.103	26762
816.244	26598
816.385	26522
816.526	26393
816.666	26263
816.807	26237
816.948	26237
817.089	26461
817.23	26244
817.371	26103
817.512	26278
817.653	26214
817.793	26187
817.934	26130
818.075	26157
818.216	26324
818.356	26225
818.497	26103
818.638	26016
818.778	25841
818.919	25887
819.06	26126
819.2	26077
819.341	26183
819.481	26134
819.622	26195
819.762	26556
819.903	26461
820.043	26358
820.184	26370
820.324	26176
820.465	26370
820.605	26473
820.746	26195
820.886	26115
821.026	26084
821.167	26210
821.307	26336
821.447	26107
821.588	26256
821.728	25944
821.868	25864
822.008	25727
822.149	25685
822.289	25715
822.429	25559
822.569	25365
822.709	25308
822.849	25301
822.99	25198
823.13	25050
823.27	25103
823.41	25034
823.55	24966
823.69	25038
823.83	24973
823.97	24977
824.11	24920
824.25	24635
824.389	24844
824.529	24840
824.669	24814
824.809	24932
824.949	24817
825.089	24901
825.228	24882
825.368	24661
825.508	24604
825.648	24616
825.787	24703
825.927	24741
826.067	24711
826.206	24681
826.346	24943
826.485	24772
826.625	24703
826.765	24760
826.904	24673
827.044	24593
827.183	24414
827.323	24464
827.462	24407
827.601	24540
827.741	24357
827.88	24429
828.02	24136
828.159	24319
828.298	24422
828.437	24372
828.577	24285
828.716	24475
828.855	24357
828.994	24171
829.134	24163
829.273	24041
829.412	24068
829.551	24102
829.69	24121
829.829	24174
829.968	24254
830.107	24216
830.246	24098
830.385	24098
830.524	23969
830.663	23996
830.802	23950
830.941	23699
831.08	23809
831.219	23771
831.357	23779
831.496	24083
831.635	23691
831.774	23589
831.913	23733
832.051	23531
832.19	23573
832.329	23535
832.467	23364
832.606	23471
832.744	23368
832.883	23455
833.022	23383
833.16	23417
833.299	23509
833.437	23497
833.576	23436
833.714	23383
833.852	23398
833.991	23417
834.129	23581
834.267	23581
834.406	23505
834.544	23577
834.682	23608
834.821	23516
834.959	23634
835.097	23429
835.235	23467
835.373	23463
835.511	23570
835.65	23402
835.788	23425
835.926	23254
836.064	23216
836.202	23113
836.34	23265
836.478	23284
836.615	23391
836.753	23345
836.891	23360
837.029	23296
837.167	23322
837.305	23246
837.443	23235
837.58	23090
837.718	23395
837.856	23231
837.993	23159
838.131	23204
838.269	23022
838.406	23033
838.544	23048
838.681	22847
838.819	22793
838.956	22797
839.094	22649
839.231	22721
839.369	22820
839.506	23014
839.643	22892
839.781	22561
839.918	22733
840.055	22706
840.193	22573
840.33	22527
840.467	22500
840.604	22637
840.742	22934
840.879	22504
841.016	22546
841.153	22459
841.29	22729
841.427	22641
841.564	22557
841.701	22497
841.838	22535
841.975	22409
842.112	22500
842.249	22531
842.385	22386
842.522	22577
842.659	22546
842.796	22371
842.933	22443
843.069	22318
843.206	22268
843.343	22325
843.479	22421
843.616	22371
843.752	22074
843.889	22238
844.025	22329
844.162	21953
844.298	22154
844.435	22097
844.571	22131
844.708	22158
844.844	22291
844.98	22261
845.117	22109
845.253	22017
845.389	21987
845.525	22051
845.661	21873
845.798	21770
845.934	21987
846.07	21831
846.206	21835
846.342	22067
846.478	21861
846.614	21591
846.75	21485
846.886	21568
847.022	21622
847.158	21606
847.294	21568
847.429	21698
847.565	21568
847.701	21797
847.837	21458
847.972	21351
848.108	21424
848.244	21397
848.379	21226
848.515	21256
848.65	21161
848.786	21188
848.921	21294
849.057	21256
849.192	21275
849.328	21348
849.463	21287
849.598	21154
849.734	21043
849.869	21066
850.004	21028
850.14	21077
850.275	20944
850.41	20921
850.545	20967
850.68	20815
850.815	20956
850.95	20918
851.085	21173
851.22	21081
851.355	20998
851.49	20967
851.625	20796
851.76	20933
851.895	20883
852.03	20823
852.165	20956
852.299	20948
852.434	21070
852.569	20990
852.703	21108
852.838	20937
852.973	21100
853.107	21119
853.242	20960
853.376	20792
853.511	20727
853.645	20762
853.78	20941
853.914	20792
854.048	20796
854.183	20883
854.317	20750
854.451	20998
854.585	20731
854.72	20781
854.854	20823
854.988	20724
855.122	20853
855.256	20667
855.39	20845
855.524	20910
855.658	20857
855.792	20800
855.926	20708
856.06	20876
856.194	20910
856.327	20686
856.461	20906
856.595	20796
856.729	20720
856.862	20929
856.996	20952
857.13	20804
857.263	21001
857.397	20804
857.53	20807
857.664	20762
857.797	20781
857.931	20849
858.064	20765
858.197	20941
858.331	20823
858.464	20857
858.597	20682
858.731	20670
858.864	20663
858.997	20731
859.13	20800
859.263	20750
859.396	20906
859.529	20853
859.662	20670
859.795	20743
859.928	20804
860.061	20982
860.194	21043
860.327	20792
860.46	20872
860.592	20963
860.725	21005
860.858	20921
860.99	20743
861.123	20743
861.256	20731
861.388	20811
861.521	21545
861.653	20731
861.786	20503
861.918	20594
862.05	20602
862.183	20762
862.315	20750
862.447	20720
862.58	20648
862.712	20465
862.844	20469
862.976	20609
863.108	20667
863.24	20868
863.372	20507
863.504	20552
863.636	20419
863.768	20549
863.9	20518
864.032	20438
864.164	20408
864.296	20396
864.428	20617
864.559	20678
864.691	20545
864.823	20450
864.954	20495
865.086	20457
865.217	20431
865.349	20412
865.48	20317
865.612	20461
865.743	20533
865.875	20381
866.006	20381
866.137	20400
866.269	20476
866.4	20423
866.531	20343
866.662	20210
866.793	20427
866.924	20347
867.055	20362
867.186	20313
867.317	20305
867.448	20237
867.579	20301
867.71	20237
867.841	20275
867.972	20358
868.103	20434
868.233	20275
868.364	20412
868.495	20484
868.625	20609
868.756	20674
868.886	20434
869.017	20583
869.147	20674
869.278	20678
869.408	20617
869.539	20556
869.669	20708
869.799	20640
869.929	20735
870.06	20735
870.19	20982
870.32	20845
870.45	20986
870.58	20895
870.71	21062
870.84	21017
870.97	20921
871.1	20986
871.23	21093
871.36	21157
871.489	21135
871.619	21135
871.749	21245
871.879	21275
872.008	21329
872.138	21321
872.267	21142
872.397	21104
872.526	20941
872.656	20971
872.785	20967
872.915	21268
873.044	21344
873.173	21260
873.303	21195
873.432	21207
873.561	21351
873.69	21211
873.819	21222
873.948	21310
874.077	21230
874.206	21161
874.335	21195
874.464	21291
874.593	21393
874.722	21431
874.851	21370
874.979	21496
875.108	21530
875.237	21481
875.365	21306
875.494	21523
875.623	21595
875.751	21500
875.88	21625
876.008	21656
876.136	21797
876.265	21854
876.393	21934
876.521	21979
876.65	22025
876.778	21850
876.906	21960
877.034	21812
877.162	21915
877.29	21800
877.418	21759
877.546	21903
877.674	21739
877.802	21854
877.93	21842
878.058	21743
878.185	21641
878.313	21751
878.441	21838
878.568	21739
878.696	21736
878.824	21819
878.951	21884
879.079	21941
879.206	21979
879.333	21960
879.461	21934
879.588	21956
879.715	21949
879.842	22135
879.97	21857
880.097	21652
880.224	21671
880.351	21732
880.478	21698
880.605	21709
880.732	21633
880.859	21831
880.986	21641
881.112	21652
881.239	21576
881.366	21473
881.493	21272
881.619	21287
881.746	21207
881.872	21298
881.999	21093
882.125	21169
882.252	21207
882.378	21154
882.505	21249
882.631	21089
882.757	20998
882.883	20944
883.01	20986
883.136	20899
883.262	20883
883.388	20758
883.514	20925
883.64	20986
883.766	20800
883.892	20754
884.018	20804
884.143	20872
884.269	20849
884.395	20640
884.52	20575
884.646	20651
884.772	20530
884.897	20400
885.023	20560
885.148	20716
885.274	20773
885.399	20712
885.524	20609
885.65	20625
885.775	20484
885.9	20514
886.025	20670
886.15	20636
886.275	20511
886.4	20434
886.525	20552
886.65	20556
886.775	20499
886.9	20689
887.025	20727
887.149	20518
887.274	20275
887.399	20309
887.523	20218
887.648	20191
887.773	20248
887.897	20423
888.021	20343
888.146	20332
888.27	20507
888.395	20488
888.519	20404
888.643	20408
888.767	20347
888.891	20244
889.015	20263
889.139	20267
889.263	20180
889.387	20317
889.511	20374
889.635	20294
889.759	20039
889.883	20202
890.006	20168
890.13	20221
890.254	20100
890.377	20039
890.501	19887
890.624	19944
890.748	19936
890.871	19795
890.995	19742
891.118	19662
891.241	19658
891.364	19780
891.488	19765
891.611	19845
891.734	19750
891.857	19814
891.98	19734
892.103	19750
892.226	19616
892.349	19674
892.471	19605
892.594	19597
892.717	19685
892.839	19506
892.962	19651
893.085	19639
893.207	19613
893.33	19639
893.452	19571
893.575	19715
893.697	19502
893.819	19833
893.941	19750
894.064	19696
894.186	19639
894.308	19594
894.43	19772
894.552	19890
894.674	19689
894.796	19643
894.918	19620
895.04	19491
895.161	19753
895.283	19772
895.405	19586
895.526	19613
895.648	19556
895.769	19769
895.891	19750
896.012	19632
896.134	19651
896.255	19628
896.376	19556
896.498	19616
896.619	19708
896.74	19655
896.861	19670
896.982	20050
897.103	20221
897.224	19883
897.345	19898
897.466	19875
897.587	19864
897.708	20043
897.828	19955
897.949	19902
898.07	19655
898.19	19784
898.311	20069
898.431	19871
898.552	19875
898.672	19822
898.792	19921
898.913	19963
899.033	19776
899.153	19776
899.273	19597
899.393	19635
899.513	19742
899.633	19563
899.753	19594
899.873	19537
899.993	19700
900.113	19605
900.232	19624
900.352	19597
900.472	19518
900.591	19430
900.711	19335
900.83	19457
900.95	19453
901.069	19468
901.189	19350
901.308	19160
901.427	18928
901.546	18977
901.665	18939
901.784	18954
901.904	18920
902.023	18802
902.141	18601
902.26	18540
902.379	18677
902.498	18574
902.617	18521
902.735	18479
902.854	18490
902.973	18441
903.091	18171
903.21	18178
903.328	18133
903.446	18019
903.565	18068
903.683	17996
903.801	17836
903.919	18015
904.038	17931
904.156	17813
904.274	17836
904.392	17813
904.51	17741
904.627	17741
904.745	17836
904.863	17821
904.981	17680
905.098	17486
905.216	17425
905.334	17440
905.451	17520
905.569	17406
905.686	17368
905.803	17459
905.921	17261
906.038	17334
906.155	17216
906.272	17147
906.389	17204
906.506	17014
906.623	17143
906.74	16991
906.857	16866
906.974	16889
907.091	17052
907.208	17098
907.324	16904
907.441	16915
907.557	16759
907.674	16733
907.79	16694
907.907	16683
908.023	16801
908.139	16771
908.256	16611
908.372	16649
908.488	16653
908.604	16504
908.72	16348
908.836	16508
908.952	16386
909.068	16500
909.184	16573
909.3	16497
909.415	16504
909.531	16493
909.647	16211
909.762	16078
909.878	16185
909.993	16249
910.108	16120
910.224	16158
910.339	16040
910.454	15975
910.57	16025
910.685	15888
910.8	16185
910.915	16048
911.03	15915
911.145	15819
911.259	15778
911.374	15667
911.489	15690
911.604	15690
911.718	15549
911.833	15500
911.947	15431
912.062	15348
912.176	15485
912.291	15526
912.405	15648
912.519	15629
912.633	15625
912.748	15557
912.862	15488
912.976	15332
913.09	15306
913.204	15275
913.318	15386
913.431	15313
913.545	15420
913.659	15447
913.772	15264
913.886	15157
914	15142
914.113	15211
914.226	15241
914.34	15184
914.453	15043
914.566	15173
914.68	14967
914.793	14998
914.906	14807
915.019	14693
915.132	14655
915.245	14720
915.358	14754
915.47	14739
915.583	14727
915.696	14861
915.809	14883
915.921	14872
916.034	14697
916.146	14610
916.259	14610
916.371	14724
916.483	14678
916.595	14625
916.708	14648
916.82	14530
916.932	14473
917.044	14594
917.156	14419
917.268	14450
917.38	14457
917.491	14317
917.603	14427
917.715	14461
917.826	14427
917.938	14343
918.049	14218
918.161	14358
918.272	14575
918.384	14537
918.495	14355
918.606	14240
918.717	14081
918.828	14161
918.939	14199
919.05	14130
919.161	14168
919.272	14008
919.383	14088
919.494	14263
919.604	14343
919.715	14221
919.826	14161
919.936	14134
920.047	14290
920.157	14157
920.267	14301
920.378	14221
920.488	14027
920.598	14240
920.708	14488
920.818	14324
920.928	14309
921.038	14415
921.148	14339
921.258	14142
921.368	13997
921.477	13982
921.587	13921
921.697	13761
921.806	13902
921.916	13750
922.025	13636
922.134	13495
922.244	13487
922.353	13502
922.462	13381
922.571	13350
922.68	13228
922.789	13179
922.898	13221
923.007	13141
923.116	13206
923.224	13129
923.333	13160
923.442	12943
923.55	13034
923.659	13133
923.767	13133
923.876	13019
923.984	13091
924.092	12951
924.201	12916
924.309	12901
924.417	12943
924.525	12890
924.633	12817
924.741	13765
924.849	12715
924.956	12798
925.064	12566
925.172	12582
925.279	12623
925.387	12623
925.494	12631
925.602	12844
925.709	12684
925.816	12528
925.924	12551
926.031	12681
926.138	12574
926.245	12616
926.352	12471
926.459	12612
926.566	12601
926.673	12521
926.779	12422
926.886	12448
926.993	12296
927.099	12186
927.206	12133
927.312	12121
927.419	12266
927.525	12190
927.631	12167
927.737	12064
927.843	12038
927.95	11950
928.056	11969
928.162	12019
928.267	12068
928.373	12445
928.479	12076
928.585	11847
928.69	12060
928.796	12114
928.901	11882
929.007	11783
929.112	11904
929.218	11817
929.323	11745
929.428	11737
929.533	11878
929.638	11634
929.743	11737
929.848	11653
929.953	11703
930.058	11611
930.163	11463
930.267	11425
930.372	11600
930.477	11425
930.581	11611
930.685	11448
930.79	11429
930.894	11372
930.998	11318
931.103	11497
931.207	11189
931.311	11048
931.415	10946
931.519	10835
931.623	10744
