Data from test_V78500241_742.txt Node
Date: Fri Mar 25 15:15:01 CST 2022
User: usil
Spectrometer: V785-0024
Trigger mode: 0
Integration Time (sec): 4.000000E-1
Scans to average: 1
Nonlinearity correction enabled: false
Boxcar width: 0
Storing dark spectrum: false
XAxis mode: Wavelengths
Number of Pixels in Spectrum: 1024
>>>>>Begin Spectral Data<<<<<
801.071	27549
801.214	27488
801.356	27154
801.499	27199
801.641	26921
801.783	27108
801.926	27116
802.068	27001
802.211	26857
802.353	26807
802.496	26640
802.638	26617
802.78	26720
802.923	26727
803.065	26636
803.208	26735
803.35	26731
803.492	26811
803.635	26918
803.777	26750
803.919	26796
804.061	27051
804.204	26750
804.346	26693
804.488	26659
804.63	26651
804.773	26629
804.915	26708
805.057	26868
805.199	26708
805.341	26921
805.483	26956
805.626	26921
805.768	26739
805.91	26937
806.052	26895
806.194	26933
806.336	27127
806.478	26994
806.62	27043
806.762	26998
806.904	27154
807.046	27447
807.188	27485
807.33	27386
807.472	27272
807.614	27256
807.756	27382
807.898	27329
808.04	27184
808.182	27192
808.324	27127
808.465	27298
808.607	27302
808.749	27561
808.891	27625
809.033	27827
809.174	27595
809.316	27477
809.458	27641
809.6	27622
809.741	27724
809.883	27545
810.025	27895
810.166	27846
810.308	27926
810.45	27842
810.591	27762
810.733	27648
810.875	27515
811.016	27583
811.158	27454
811.299	27610
811.441	27637
811.582	27671
811.724	27443
811.865	27511
812.007	27580
812.148	27530
812.29	27652
812.431	27854
812.573	27930
812.714	28036
812.855	28162
812.997	28238
813.138	28352
813.279	28280
813.421	28032
813.562	28219
813.703	27979
813.845	27934
813.986	27367
814.127	27355
814.268	27355
814.41	27211
814.551	27245
814.692	27332
814.833	27306
814.974	27332
815.115	27355
815.256	27176
815.397	27279
815.539	27146
815.68	27058
815.821	27039
815.962	26960
816.103	26982
816.244	26940
816.385	26872
816.526	26872
816.666	26697
816.807	26438
816.948	26663
817.089	26648
817.23	26613
817.371	26571
817.512	26583
817.653	26431
817.793	26590
817.934	26564
818.075	26571
818.216	26579
818.356	26537
818.497	26320
818.638	26240
818.778	26206
818.919	26320
819.06	26256
819.2	26298
819.341	26507
819.481	26370
819.622	26541
819.762	26933
819.903	26792
820.043	26762
820.184	26602
820.324	26469
820.465	26522
820.605	26708
820.746	26667
820.886	26526
821.026	26674
821.167	26651
821.307	26667
821.447	26579
821.588	26492
821.728	26366
821.868	26069
822.008	26024
822.149	25986
822.289	25951
822.429	25772
822.569	25795
822.709	25757
822.849	25453
822.99	25381
823.13	25346
823.27	25590
823.41	25388
823.55	25270
823.69	25312
823.83	25255
823.97	25244
824.11	25118
824.25	25015
824.389	25015
824.529	25168
824.669	25168
824.809	25339
824.949	25240
825.089	25148
825.228	25110
825.368	24985
825.508	24905
825.648	25027
825.787	25046
825.927	25084
826.067	24951
826.206	24859
826.346	24992
826.485	25107
826.625	25015
826.765	25129
826.904	25008
827.044	24852
827.183	24802
827.323	24658
827.462	24795
827.601	24703
827.741	24589
827.88	24715
828.02	24692
828.159	24707
828.298	24859
828.437	24730
828.577	24707
828.716	24810
828.855	24741
828.994	24505
829.134	24376
829.273	24490
829.412	24395
829.551	24315
829.69	24429
829.829	24323
829.968	24483
830.107	24525
830.246	24342
830.385	24445
830.524	24285
830.663	24251
830.802	24079
830.941	23950
831.08	23977
831.219	24190
831.357	24060
831.496	24247
831.635	24076
831.774	23863
831.913	23939
832.051	23798
832.19	23726
832.329	23695
832.467	23619
832.606	23668
832.744	23661
832.883	23714
833.022	23604
833.16	23554
833.299	23718
833.437	23638
833.576	23840
833.714	23646
833.852	23889
833.991	23863
834.129	23828
834.267	23832
834.406	23832
834.544	23783
834.682	23748
834.821	23813
834.959	23882
835.097	23630
835.235	23767
835.373	23741
835.511	23726
835.65	23623
835.788	23596
835.926	23486
836.064	23406
836.202	23539
836.34	23600
836.478	23653
836.615	23524
836.753	23661
836.891	23703
837.029	23478
837.167	23486
837.305	23558
837.443	23421
837.58	23459
837.718	23444
837.856	23391
837.993	23311
838.131	23307
838.269	23303
838.406	23353
838.544	23242
838.681	23003
838.819	22972
838.956	22900
839.094	22957
839.231	22938
839.369	22995
839.506	23208
839.643	23064
839.781	22927
839.918	22847
840.055	22896
840.193	22858
840.33	22835
840.467	22740
840.604	22797
840.742	23094
840.879	22634
841.016	22683
841.153	22801
841.29	22915
841.427	22763
841.564	22793
841.701	22930
841.838	22752
841.975	22729
842.112	22672
842.249	22626
842.385	22618
842.522	22801
842.659	22538
842.796	22531
842.933	22668
843.069	22512
843.206	22478
843.343	22660
843.479	22542
843.616	22538
843.752	22348
843.889	22234
844.025	22523
844.162	22371
844.298	22508
844.435	22280
844.571	22398
844.708	22459
844.844	22664
844.98	22500
845.117	22413
845.253	22238
845.389	22230
845.525	22207
845.661	22173
845.798	22032
845.934	22192
846.07	22086
846.206	22238
846.342	22181
846.478	21964
846.614	21838
846.75	21778
846.886	21800
847.022	21949
847.158	21804
847.294	21751
847.429	21987
847.565	21934
847.701	22074
847.837	21481
847.972	21481
848.108	21694
848.244	21568
848.379	21435
848.515	21447
848.65	21443
848.786	21447
848.921	21428
849.057	21538
849.192	21553
849.328	21420
849.463	21397
849.598	21443
849.734	21397
849.869	21241
850.004	21142
850.14	21180
850.275	21051
850.41	21077
850.545	21157
850.68	21070
850.815	21214
850.95	21150
851.085	21291
851.22	21241
851.355	21222
851.49	21093
851.625	21032
851.76	21211
851.895	21116
852.03	20967
852.165	21043
852.299	21233
852.434	21211
852.569	21192
852.703	21154
852.838	21279
852.973	21313
853.107	21363
853.242	21142
853.376	21077
853.511	20861
853.645	20826
853.78	21066
853.914	21180
854.048	20994
854.183	21017
854.317	21047
854.451	21195
854.585	21066
854.72	21058
854.854	21180
854.988	20925
855.122	21005
855.256	20952
855.39	20887
855.524	21047
855.658	21070
855.792	20986
855.926	21017
856.06	21039
856.194	21089
856.327	21001
856.461	21055
856.595	20880
856.729	20948
856.862	21112
856.996	21009
857.13	21112
857.263	21047
857.397	21119
857.53	21028
857.664	20990
857.797	21058
857.931	21150
858.064	21104
858.197	21119
858.331	21047
858.464	20883
858.597	20807
858.731	20933
858.864	21028
858.997	20819
859.13	20944
859.263	21123
859.396	21123
859.529	21032
859.662	20880
859.795	20864
859.928	21074
860.061	21161
860.194	21150
860.327	21024
860.46	20994
860.592	21100
860.725	21142
860.858	21077
860.99	20975
861.123	20834
861.256	20975
861.388	21036
861.521	21656
861.653	20845
861.786	20708
861.918	20739
862.05	20937
862.183	20868
862.315	20910
862.447	21062
862.58	20998
862.712	20682
862.844	20697
862.976	20727
863.108	20758
863.24	21013
863.372	20701
863.504	20686
863.636	20724
863.768	20765
863.9	20697
864.032	20602
864.164	20640
864.296	20678
864.428	20727
864.559	20708
864.691	20648
864.823	20579
864.954	20598
865.086	20670
865.217	20545
865.349	20503
865.48	20575
865.612	20594
865.743	20815
865.875	20632
866.006	20594
866.137	20533
866.269	20590
866.4	20480
866.531	20575
866.662	20495
866.793	20511
866.924	20549
867.055	20629
867.186	20549
867.317	20587
867.448	20541
867.579	20446
867.71	20366
867.841	20446
867.972	20609
868.103	20442
868.233	20396
868.364	20564
868.495	20609
868.625	20724
868.756	20883
868.886	20724
869.017	20716
869.147	20807
869.278	20861
869.408	20739
869.539	20769
869.669	20868
869.799	20823
869.929	20765
870.06	20861
870.19	21039
870.32	20986
870.45	21081
870.58	21199
870.71	21272
870.84	21233
870.97	21207
871.1	21043
871.23	21283
871.36	21363
871.489	21245
871.619	21268
871.749	21382
871.879	21389
872.008	21580
872.138	21374
872.267	21428
872.397	21260
872.526	21245
872.656	21161
872.785	21104
872.915	21344
873.044	21424
873.173	21332
873.303	21344
873.432	21450
873.561	21534
873.69	21336
873.819	21363
873.948	21397
874.077	21329
874.206	21412
874.335	21279
874.464	21553
874.593	21504
874.722	21576
874.851	21705
874.979	21641
875.108	21675
875.237	21530
875.365	21485
875.494	21603
875.623	21663
875.751	21431
875.88	21743
876.008	21762
876.136	21766
876.265	22070
876.393	22097
876.521	22097
876.65	22063
876.778	21956
876.906	22006
877.034	21876
877.162	22063
877.29	21930
877.418	22093
877.546	21884
877.674	21941
877.802	21819
877.93	22067
878.058	21899
878.185	21861
878.313	21819
878.441	21960
878.568	21827
878.696	21865
878.824	21884
878.951	22082
879.079	22090
879.206	22386
879.333	22120
879.461	22013
879.588	22112
879.715	22109
879.842	22147
879.97	22013
880.097	21789
880.224	21781
880.351	21835
880.478	21804
880.605	21762
880.732	21759
880.859	22029
880.986	21736
881.112	21823
881.239	21591
881.366	21549
881.493	21389
881.619	21313
881.746	21355
881.872	21382
881.999	21298
882.125	21260
882.252	21287
882.378	21435
882.505	21374
882.631	21260
882.757	21260
882.883	21199
883.01	21142
883.136	21070
883.262	20948
883.388	20906
883.514	21024
883.64	21112
883.766	20906
883.892	20842
884.018	20960
884.143	21070
884.269	21055
884.395	20830
884.52	20746
884.646	20659
884.772	20655
884.897	20686
885.023	20712
885.148	20746
885.274	20788
885.399	20861
885.524	20830
885.65	20731
885.775	20720
885.9	20640
886.025	20724
886.15	20769
886.275	20667
886.4	20655
886.525	20651
886.65	20625
886.775	20621
886.9	20716
887.025	20948
887.149	20750
887.274	20530
887.399	20480
887.523	20438
887.648	20412
887.773	20415
887.897	20594
888.021	20545
888.146	20530
888.27	20552
888.395	20568
888.519	20393
888.643	20423
888.767	20431
888.891	20317
889.015	20294
889.139	20351
889.263	20256
889.387	20366
889.511	20419
889.635	20419
889.759	20252
889.883	20252
890.006	20229
890.13	20412
890.254	20145
890.377	20218
890.501	20027
890.624	20183
890.748	20016
890.871	19978
890.995	19852
891.118	19811
891.241	19776
891.364	19864
891.488	19978
891.611	19795
891.734	19890
891.857	19967
891.98	19780
892.103	19974
892.226	19898
892.349	19795
892.471	19559
892.594	19757
892.717	19811
892.839	19826
892.962	19780
893.085	19788
893.207	19712
893.33	19655
893.452	19803
893.575	19909
893.697	19734
893.819	19845
893.941	19879
894.064	19909
894.186	19788
894.308	19723
894.43	19837
894.552	19837
894.674	19822
894.796	19632
894.918	19803
895.04	19738
895.161	19868
895.283	19811
895.405	19731
895.526	19715
895.648	19727
895.769	19708
895.891	19788
896.012	19909
896.134	19871
896.255	19856
896.376	19685
896.498	19666
896.619	19894
896.74	19700
896.861	19887
896.982	20180
897.103	20157
897.224	20035
897.345	20012
897.466	19932
897.587	19982
897.708	20103
897.828	20035
897.949	19890
898.07	19799
898.19	19871
898.311	20065
898.431	19951
898.552	19890
898.672	19947
898.792	20187
898.913	20058
899.033	19890
899.153	19776
899.273	19674
899.393	19799
899.513	19852
899.633	19795
899.753	19712
899.873	19616
899.993	19799
900.113	19685
900.232	19776
900.352	19708
900.472	19632
900.591	19487
900.711	19533
900.83	19563
900.95	19635
901.069	19586
901.189	19392
901.308	19206
901.427	19179
901.546	19107
901.665	19168
901.784	19293
901.904	19004
902.023	18920
902.141	18646
902.26	18665
902.379	18658
902.498	18673
902.617	18669
902.735	18475
902.854	18521
902.973	18521
903.091	18445
903.21	18346
903.328	18357
903.446	18330
903.565	18186
903.683	18129
903.801	18022
903.919	18216
904.038	18053
904.156	17912
904.274	17935
904.392	18015
904.51	17843
904.627	17779
904.745	17973
904.863	18049
904.981	17737
905.098	17482
905.216	17535
905.334	17619
905.451	17566
905.569	17505
905.686	17623
905.803	17539
905.921	17368
906.038	17376
906.155	17539
906.272	17261
906.389	17166
906.506	17143
906.623	17109
906.74	17155
906.857	17060
906.974	17045
907.091	17166
907.208	17109
907.324	17166
907.441	16927
907.557	16812
907.674	16782
907.79	16725
907.907	16759
908.023	16767
908.139	16790
908.256	16672
908.372	16634
908.488	16733
908.604	16580
908.72	16481
908.836	16550
908.952	16512
909.068	16694
909.184	16618
909.3	16615
909.415	16542
909.531	16512
909.647	16181
909.762	16299
909.878	16215
909.993	16226
910.108	16280
910.224	16112
910.339	16207
910.454	16082
910.57	16067
910.685	16101
910.8	16223
910.915	16223
911.03	16013
911.145	15895
911.259	15808
911.374	15907
911.489	15789
911.604	15709
911.718	15587
911.833	15629
911.947	15557
912.062	15458
912.176	15439
912.291	15671
912.405	15606
912.519	15804
912.633	15739
912.748	15595
912.862	15523
912.976	15435
913.09	15268
913.204	15424
913.318	15359
913.431	15500
913.545	15549
913.659	15515
913.772	15382
913.886	15241
914	15203
914.113	15245
914.226	15264
914.34	15207
914.453	15039
914.566	15275
914.68	15203
914.793	15005
914.906	14967
915.019	14849
915.132	14804
915.245	14842
915.358	14815
915.47	14921
915.583	14815
915.696	14830
915.809	14952
915.921	15001
916.034	14743
916.146	14746
916.259	14739
916.371	14838
916.483	14754
916.595	14720
916.708	14720
916.82	14720
916.932	14594
917.044	14632
917.156	14632
917.268	14518
917.38	14522
917.491	14507
917.603	14602
917.715	14579
917.826	14533
917.938	14473
918.049	14427
918.161	14419
918.272	14556
918.384	14556
918.495	14408
918.606	14320
918.717	14168
918.828	14431
918.939	14221
919.05	14161
919.161	14282
919.272	14035
919.383	14119
919.494	14252
919.604	14454
919.715	14252
919.826	14206
919.936	14191
920.047	14290
920.157	14237
920.267	14355
920.378	14233
920.488	14145
920.598	14366
920.708	14396
920.818	14355
920.928	14343
921.038	14511
921.148	14450
921.258	14229
921.368	14138
921.477	13986
921.587	14008
921.697	13765
921.806	13951
921.916	13845
922.025	13750
922.134	13601
922.244	13567
922.353	13620
922.462	13441
922.571	13518
922.68	13316
922.789	13171
922.898	13255
923.007	13183
923.116	13350
923.224	13122
923.333	13225
923.442	13149
923.55	12966
923.659	13095
923.767	13187
923.876	13091
923.984	13171
924.092	12962
924.201	13061
924.309	13103
924.417	13118
924.525	12920
924.633	12894
924.741	13700
924.849	12798
924.956	12924
925.064	12700
925.172	12688
925.279	12734
925.387	12760
925.494	12665
925.602	12840
925.709	12776
925.816	12574
925.924	12620
926.031	12677
926.138	12696
926.245	12688
926.352	12593
926.459	12677
926.566	12802
926.673	12585
926.779	12528
926.886	12445
926.993	12319
927.099	12296
927.206	12209
927.312	12258
927.419	12395
927.525	12289
927.631	12308
927.737	12216
927.843	12091
927.95	12041
928.056	12057
928.162	12095
928.267	12140
928.373	12741
928.479	12232
928.585	12007
928.69	12034
928.796	12098
928.901	12011
929.007	11851
929.112	11954
929.218	11980
929.323	11942
929.428	11798
929.533	12011
929.638	11748
929.743	11779
929.848	11771
929.953	11745
930.058	11707
930.163	11520
930.267	11585
930.372	11756
930.477	11486
930.581	11775
930.685	11505
930.79	11383
930.894	11573
930.998	11406
931.103	11596
931.207	11143
931.311	11121
931.415	11022
931.519	10869
931.623	10809
