Data from test_V78500241_1493.txt Node
Date: Fri Mar 25 15:20:15 CST 2022
User: usil
Spectrometer: V785-0024
Trigger mode: 0
Integration Time (sec): 4.000000E-1
Scans to average: 1
Nonlinearity correction enabled: false
Boxcar width: 0
Storing dark spectrum: false
XAxis mode: Wavelengths
Number of Pixels in Spectrum: 1024
>>>>>Begin Spectral Data<<<<<
801.071	28093
801.214	28097
801.356	27903
801.499	27800
801.641	27603
801.783	27660
801.926	27842
802.068	27667
802.211	27587
802.353	27595
802.496	27393
802.638	27325
802.78	27416
802.923	27256
803.065	27180
803.208	27268
803.35	27344
803.492	27454
803.635	27545
803.777	27431
803.919	27408
804.061	27785
804.204	27583
804.346	27481
804.488	27370
804.63	27561
804.773	27538
804.915	27564
805.057	27652
805.199	27614
805.341	27568
805.483	27808
805.626	27717
805.768	27526
805.91	27823
806.052	27797
806.194	27523
806.336	27899
806.478	27705
806.62	27618
806.762	27941
806.904	27899
807.046	28333
807.188	28059
807.33	28116
807.472	28131
807.614	28040
807.756	28116
807.898	28025
808.04	27937
808.182	27888
808.324	27926
808.465	28112
808.607	28211
808.749	28291
808.891	28504
809.033	28428
809.174	28508
809.316	28257
809.458	28333
809.6	28268
809.741	28455
809.883	28485
810.025	28683
810.166	28493
810.308	28626
810.45	28569
810.591	28561
810.733	28485
810.875	28200
811.016	28272
811.158	28219
811.299	28375
811.441	28413
811.582	28538
811.724	28386
811.865	28352
812.007	28295
812.148	28360
812.29	28489
812.431	28474
812.573	28797
812.714	28831
812.855	28778
812.997	29025
813.138	29140
813.279	29147
813.421	28987
813.562	28790
813.703	28694
813.845	28672
813.986	28295
814.127	28295
814.268	28124
814.41	28109
814.551	28013
814.692	27979
814.833	27926
814.974	28150
815.115	28093
815.256	27953
815.397	28021
815.539	27838
815.68	27914
815.821	27854
815.962	27975
816.103	27827
816.244	27652
816.385	27587
816.526	27553
816.666	27420
816.807	27291
816.948	27386
817.089	27519
817.23	27507
817.371	27272
817.512	27306
817.653	27363
817.793	27401
817.934	27294
818.075	27249
818.216	27378
818.356	27245
818.497	27344
818.638	27058
818.778	27051
818.919	27093
819.06	27241
819.2	27135
819.341	27378
819.481	27298
819.622	27466
819.762	27682
819.903	27660
820.043	27523
820.184	27431
820.324	27351
820.465	27530
820.605	27488
820.746	27488
820.886	27264
821.026	27481
821.167	27370
821.307	27458
821.447	27351
821.588	27287
821.728	27131
821.868	26971
822.008	26868
822.149	26739
822.289	26925
822.429	26533
822.569	26457
822.709	26492
822.849	26320
822.99	26374
823.13	26195
823.27	26210
823.41	26122
823.55	26005
823.69	26157
823.83	26092
823.97	26096
824.11	25993
824.25	26012
824.389	25818
824.529	26103
824.669	25928
824.809	26107
824.949	26100
825.089	26035
825.228	26058
825.368	25837
825.508	25799
825.648	25761
825.787	25879
825.927	26046
826.067	25830
826.206	25845
826.346	25852
826.485	25871
826.625	25776
826.765	25902
826.904	26020
827.044	25624
827.183	25624
827.323	25514
827.462	25590
827.601	25594
827.741	25392
827.88	25620
828.02	25426
828.159	25525
828.298	25502
828.437	25571
828.577	25331
828.716	25525
828.855	25468
828.994	25209
829.134	25221
829.273	25297
829.412	25251
829.551	25091
829.69	25244
829.829	25278
829.968	25232
830.107	25388
830.246	25206
830.385	25225
830.524	25091
830.663	25046
830.802	25076
830.941	24821
831.08	24730
831.219	25012
831.357	24932
831.496	25129
831.635	24909
831.774	24730
831.913	24654
832.051	24654
832.19	24563
832.329	24692
832.467	24494
832.606	24437
832.744	24525
832.883	24601
833.022	24483
833.16	24547
833.299	24528
833.437	24460
833.576	24578
833.714	24479
833.852	24525
833.991	24616
834.129	24650
834.267	24700
834.406	24722
834.544	24650
834.682	24555
834.821	24551
834.959	24745
835.097	24505
835.235	24692
835.373	24612
835.511	24582
835.65	24505
835.788	24437
835.926	24159
836.064	24247
836.202	24205
836.34	24452
836.478	24555
836.615	24429
836.753	24441
836.891	24448
837.029	24418
837.167	24258
837.305	24323
837.443	24357
837.58	24228
837.718	24216
837.856	24342
837.993	24144
838.131	24266
838.269	24110
838.406	24091
838.544	23973
838.681	23840
838.819	23786
838.956	23733
839.094	23733
839.231	23718
839.369	23866
839.506	24064
839.643	23912
839.781	23741
839.918	23699
840.055	23707
840.193	23642
840.33	23581
840.467	23649
840.604	23767
840.742	23828
840.879	23421
841.016	23448
841.153	23448
841.29	23653
841.427	23512
841.564	23615
841.701	23642
841.838	23581
841.975	23512
842.112	23493
842.249	23444
842.385	23307
842.522	23672
842.659	23372
842.796	23337
842.933	23372
843.069	23326
843.206	23284
843.343	23330
843.479	23433
843.616	23448
843.752	23143
843.889	23132
844.025	23288
844.162	23117
844.298	23208
844.435	23086
844.571	23094
844.708	23067
844.844	23318
844.98	23261
845.117	23189
845.253	23155
845.389	22927
845.525	23174
845.661	22972
845.798	22911
845.934	22824
846.07	22839
846.206	22831
846.342	23181
846.478	22831
846.614	22675
846.75	22489
846.886	22455
847.022	22721
847.158	22687
847.294	22656
847.429	22603
847.565	22596
847.701	22812
847.837	22333
847.972	22223
848.108	22325
848.244	22443
848.379	22226
848.515	22093
848.65	22040
848.786	22219
848.921	22139
849.057	22291
849.192	22371
849.328	22249
849.463	22078
849.598	22150
849.734	22093
849.869	22025
850.004	21941
850.14	22029
850.275	21964
850.41	21816
850.545	21861
850.68	21949
850.815	21956
850.95	21968
851.085	22074
851.22	22131
851.355	22063
851.49	21907
851.625	21876
851.76	21846
851.895	21842
852.03	21797
852.165	21949
852.299	21934
852.434	22124
852.569	21934
852.703	22002
852.838	21888
852.973	21991
853.107	21956
853.242	21857
853.376	21732
853.511	21736
853.645	21789
853.78	21854
853.914	21915
854.048	21759
854.183	21812
854.317	21762
854.451	21838
854.585	21686
854.72	21698
854.854	21895
854.988	21701
855.122	21667
855.256	21686
855.39	21713
855.524	21705
855.658	21804
855.792	21911
855.926	21846
856.06	21739
856.194	21880
856.327	21808
856.461	21675
856.595	21728
856.729	21766
856.862	21880
856.996	21823
857.13	21819
857.263	21857
857.397	21918
857.53	21709
857.664	21705
857.797	21800
857.931	21922
858.064	21854
858.197	21945
858.331	21778
858.464	21694
858.597	21690
858.731	21728
858.864	21682
858.997	21652
859.13	21842
859.263	21781
859.396	21736
859.529	21759
859.662	21618
859.795	21717
859.928	21876
860.061	21819
860.194	21915
860.327	21755
860.46	21819
860.592	21876
860.725	21873
860.858	21888
860.99	21766
861.123	21663
861.256	21724
861.388	21831
861.521	22291
861.653	21610
861.786	21576
861.918	21599
862.05	21728
862.183	21709
862.315	21610
862.447	21675
862.58	21663
862.712	21530
862.844	21443
862.976	21542
863.108	21424
863.24	21880
863.372	21435
863.504	21504
863.636	21530
863.768	21435
863.9	21450
864.032	21397
864.164	21458
864.296	21428
864.428	21648
864.559	21538
864.691	21553
864.823	21462
864.954	21500
865.086	21401
865.217	21245
865.349	21245
865.48	21359
865.612	21355
865.743	21500
865.875	21363
866.006	21317
866.137	21321
866.269	21332
866.4	21344
866.531	21310
866.662	21249
866.793	21260
866.924	21211
867.055	21161
867.186	21275
867.317	21241
867.448	21298
867.579	21275
867.71	21203
867.841	21260
867.972	21359
868.103	21302
868.233	21317
868.364	21325
868.495	21302
868.625	21389
868.756	21648
868.886	21450
869.017	21526
869.147	21641
869.278	21671
869.408	21492
869.539	21435
869.669	21606
869.799	21462
869.929	21633
870.06	21603
870.19	21797
870.32	21778
870.45	21880
870.58	21819
870.71	22021
870.84	22109
870.97	21926
871.1	21968
871.23	22021
871.36	22135
871.489	22029
871.619	22109
871.749	22063
871.879	22040
872.008	22131
872.138	22135
872.267	22154
872.397	21975
872.526	21903
872.656	21987
872.785	21892
872.915	22097
873.044	22158
873.173	22112
873.303	22139
873.432	22204
873.561	22363
873.69	22097
873.819	22181
873.948	22223
874.077	22105
874.206	22097
874.335	22074
874.464	22188
874.593	22413
874.722	22249
874.851	22451
874.979	22390
875.108	22500
875.237	22284
875.365	22242
875.494	22261
875.623	22356
875.751	22280
875.88	22261
876.008	22542
876.136	22546
876.265	22683
876.393	22854
876.521	22862
876.65	22759
876.778	22668
876.906	22656
877.034	22622
877.162	22664
877.29	22557
877.418	22721
877.546	22611
877.674	22641
877.802	22733
877.93	22679
878.058	22634
878.185	22626
878.313	22664
878.441	22565
878.568	22653
878.696	22546
878.824	22706
878.951	22763
879.079	22866
879.206	23022
879.333	22847
879.461	22729
879.588	22816
879.715	22908
879.842	22835
879.97	22843
880.097	22519
880.224	22485
880.351	22615
880.478	22538
880.605	22485
880.732	22497
880.859	22892
880.986	22481
881.112	22557
881.239	22375
881.366	22177
881.493	22078
881.619	22078
881.746	22185
881.872	22101
881.999	22006
882.125	22074
882.252	22059
882.378	22097
882.505	22059
882.631	21884
882.757	21800
882.883	21808
883.01	21720
883.136	21660
883.262	21580
883.388	21583
883.514	21797
883.64	21781
883.766	21690
883.892	21500
884.018	21652
884.143	21652
884.269	21759
884.395	21416
884.52	21458
884.646	21485
884.772	21393
884.897	21363
885.023	21382
885.148	21504
885.274	21473
885.399	21488
885.524	21272
885.65	21393
885.775	21443
885.9	21412
886.025	21454
886.15	21389
886.275	21321
886.4	21272
886.525	21408
886.65	21348
886.775	21283
886.9	21553
887.025	21363
887.149	21412
887.274	21249
887.399	21119
887.523	21195
887.648	21192
887.773	21017
887.897	21272
888.021	21192
888.146	21081
888.27	21214
888.395	21207
888.519	21207
888.643	21211
888.767	21131
888.891	21070
889.015	21001
889.139	20979
889.263	20918
889.387	21074
889.511	21169
889.635	21093
889.759	20963
889.883	20937
890.006	20853
890.13	21085
890.254	20895
890.377	20979
890.501	20785
890.624	20670
890.748	20689
890.871	20598
890.995	20549
891.118	20370
891.241	20541
891.364	20537
891.488	20648
891.611	20609
891.734	20560
891.857	20507
891.98	20648
892.103	20667
892.226	20682
892.349	20587
892.471	20427
892.594	20530
892.717	20484
892.839	20507
892.962	20533
893.085	20568
893.207	20461
893.33	20343
893.452	20332
893.575	20408
893.697	20583
893.819	20678
893.941	20697
894.064	20625
894.186	20427
894.308	20473
894.43	20602
894.552	20533
894.674	20541
894.796	20309
894.918	20404
895.04	20404
895.161	20598
895.283	20530
895.405	20450
895.526	20503
895.648	20465
895.769	20465
895.891	20514
896.012	20549
896.134	20484
896.255	20408
896.376	20480
896.498	20476
896.619	20549
896.74	20457
896.861	20587
896.982	20762
897.103	20887
897.224	20686
897.345	20659
897.466	20549
897.587	20648
897.708	20708
897.828	20670
897.949	20629
898.07	20545
898.19	20564
898.311	20788
898.431	20731
898.552	20697
898.672	20667
898.792	20708
898.913	20640
899.033	20579
899.153	20514
899.273	20244
899.393	20366
899.513	20442
899.633	20412
899.753	20400
899.873	20324
899.993	20545
900.113	20377
900.232	20339
900.352	20427
900.472	20275
900.591	20138
900.711	20240
900.83	20168
900.95	20229
901.069	20275
901.189	19986
901.308	19864
901.427	19731
901.546	19655
901.665	19780
901.784	19799
901.904	19559
902.023	19540
902.141	19327
902.26	19266
902.379	19369
902.498	19411
902.617	19187
902.735	19324
902.854	19213
902.973	19107
903.091	18951
903.21	18932
903.328	18973
903.446	18810
903.565	18795
903.683	18802
903.801	18642
903.919	18703
904.038	18570
904.156	18433
904.274	18593
904.392	18433
904.51	18452
904.627	18521
904.745	18502
904.863	18570
904.981	18190
905.098	18140
905.216	18049
905.334	18235
905.451	18235
905.569	18106
905.686	18159
905.803	18167
905.921	17965
906.038	17988
906.155	17920
906.272	17885
906.389	17931
906.506	17828
906.623	17855
906.74	17756
906.857	17634
906.974	17501
907.091	17733
907.208	17874
907.324	17726
907.441	17623
907.557	17478
907.674	17516
907.79	17425
907.907	17436
908.023	17398
908.139	17368
908.256	17269
908.372	17322
908.488	17318
908.604	17242
908.72	17056
908.836	17132
908.952	17102
909.068	17121
909.184	17220
909.3	17143
909.415	17090
909.531	17098
909.647	16862
909.762	16820
909.878	16782
909.993	16869
910.108	16835
910.224	16862
910.339	16820
910.454	16664
910.57	16554
910.685	16558
910.8	16858
910.915	16801
911.03	16615
911.145	16474
911.259	16558
911.374	16481
911.489	16291
911.604	16310
911.718	16188
911.833	16204
911.947	16051
912.062	15991
912.176	16097
912.291	16219
912.405	16177
912.519	16390
912.633	16299
912.748	16322
912.862	16131
912.976	16025
913.09	15895
913.204	15941
913.318	16013
913.431	16055
913.545	16143
913.659	16082
913.772	15865
913.886	15838
914	15690
914.113	15850
914.226	15880
914.34	15918
914.453	15591
914.566	15774
914.68	15606
914.793	15686
914.906	15454
915.019	15283
915.132	15382
915.245	15435
915.358	15386
915.47	15367
915.583	15370
915.696	15359
915.809	15500
915.921	15424
916.034	15336
916.146	15199
916.259	15294
916.371	15348
916.483	15291
916.595	15165
916.708	15306
916.82	15211
916.932	15192
917.044	15097
917.156	15138
917.268	14998
917.38	15009
917.491	15024
917.603	14986
917.715	15104
917.826	15020
917.938	14891
918.049	14906
918.161	15005
918.272	15119
918.384	14971
918.495	14967
918.606	14788
918.717	14724
918.828	14880
918.939	14750
919.05	14678
919.161	14663
919.272	14450
919.383	14613
919.494	14830
919.604	14941
919.715	14777
919.826	14674
919.936	14746
920.047	14785
920.157	14781
920.267	14895
920.378	14739
920.488	14655
920.598	14933
920.708	14952
920.818	14765
920.928	14880
921.038	15093
921.148	14902
921.258	14712
921.368	14507
921.477	14415
921.587	14393
921.697	14412
921.806	14438
921.916	14328
922.025	14111
922.134	14088
922.244	14065
922.353	14130
922.462	13989
922.571	13913
922.68	13826
922.789	13704
922.898	13681
923.007	13731
923.116	13723
923.224	13738
923.333	13681
923.442	13590
923.55	13563
923.659	13628
923.767	13651
923.876	13525
923.984	13601
924.092	13491
924.201	13415
924.309	13407
924.417	13571
924.525	13392
924.633	13438
924.741	14180
924.849	13194
924.956	13316
925.064	13225
925.172	13012
925.279	13209
925.387	13171
925.494	13213
925.602	13259
925.709	13168
925.816	13061
925.924	13046
926.031	13198
926.138	13114
926.245	13084
926.352	12981
926.459	13091
926.566	13171
926.673	12962
926.779	12856
926.886	12890
926.993	12696
927.099	12707
927.206	12669
927.312	12730
927.419	12730
927.525	12646
927.631	12650
927.737	12658
927.843	12544
927.95	12475
928.056	12536
928.162	12551
928.267	12635
928.373	13122
928.479	12563
928.585	12308
928.69	12403
928.796	12437
928.901	12372
929.007	12205
929.112	12323
929.218	12372
929.323	12254
929.428	12315
929.533	12315
929.638	12129
929.743	12254
929.848	12220
929.953	12220
930.058	12102
930.163	11912
930.267	12011
930.372	12003
930.477	11851
930.581	12019
930.685	11946
930.79	11893
930.894	11927
930.998	11710
931.103	11939
931.207	11653
931.311	11429
931.415	11368
931.519	11174
931.623	11181
