Data from test_V78500241_3011.txt Node
Date: Fri Mar 25 15:30:49 CST 2022
User: usil
Spectrometer: V785-0024
Trigger mode: 0
Integration Time (sec): 4.000000E-1
Scans to average: 1
Nonlinearity correction enabled: false
Boxcar width: 0
Storing dark spectrum: false
XAxis mode: Wavelengths
Number of Pixels in Spectrum: 1024
>>>>>Begin Spectral Data<<<<<
801.071	27230
801.214	27188
801.356	27001
801.499	27009
801.641	26781
801.783	26712
801.926	26788
802.068	26906
802.211	26735
802.353	26594
802.496	26457
802.638	26412
802.78	26438
802.923	26324
803.065	26286
803.208	26377
803.35	26381
803.492	26446
803.635	26587
803.777	26480
803.919	26484
804.061	26773
804.204	26644
804.346	26480
804.488	26461
804.63	26541
804.773	26522
804.915	26579
805.057	26758
805.199	26602
805.341	26655
805.483	26781
805.626	26655
805.768	26598
805.91	26686
806.052	26743
806.194	26739
806.336	26914
806.478	26746
806.62	26670
806.762	26758
806.904	27043
807.046	27180
807.188	27093
807.33	27077
807.472	27142
807.614	27085
807.756	27055
807.898	26982
808.04	26883
808.182	26883
808.324	27013
808.465	27112
808.607	27214
808.749	27268
808.891	27370
809.033	27485
809.174	27363
809.316	27184
809.458	27359
809.6	27199
809.741	27329
809.883	27427
810.025	27526
810.166	27660
810.308	27633
810.45	27580
810.591	27523
810.733	27363
810.875	27241
811.016	27195
811.158	27370
811.299	27443
811.441	27401
811.582	27450
811.724	27340
811.865	27272
812.007	27150
812.148	27393
812.29	27325
812.431	27473
812.573	27523
812.714	27739
812.855	27816
812.997	27819
813.138	28105
813.279	27907
813.421	27899
813.562	27641
813.703	27564
813.845	27686
813.986	27135
814.127	27032
814.268	27028
814.41	27024
814.551	27017
814.692	26921
814.833	26906
814.974	26887
815.115	26902
815.256	26834
815.397	26868
815.539	26861
815.68	26750
815.821	26746
815.962	26716
816.103	26693
816.244	26621
816.385	26583
816.526	26606
816.666	26412
816.807	26210
816.948	26336
817.089	26324
817.23	26221
817.371	26145
817.512	26229
817.653	26229
817.793	26096
817.934	26202
818.075	26157
818.216	26271
818.356	26115
818.497	26100
818.638	26031
818.778	25890
818.919	26035
819.06	25898
819.2	26024
819.341	26081
819.481	26206
819.622	26377
819.762	26579
819.903	26480
820.043	26355
820.184	26278
820.324	26453
820.465	26408
820.605	26305
820.746	26267
820.886	26168
821.026	26301
821.167	26256
821.307	26480
821.447	26122
821.588	26138
821.728	26081
821.868	25776
822.008	25750
822.149	25761
822.289	25651
822.429	25377
822.569	25266
822.709	25289
822.849	25065
822.99	25152
823.13	25263
823.27	25137
823.41	24989
823.55	24928
823.69	24951
823.83	25084
823.97	24878
824.11	24806
824.25	24768
824.389	24840
824.529	24970
824.669	24791
824.809	24951
824.949	24825
825.089	24882
825.228	24734
825.368	24654
825.508	24597
825.648	24665
825.787	24665
825.927	24639
826.067	24795
826.206	24658
826.346	24715
826.485	24821
826.625	24540
826.765	24783
826.904	24783
827.044	24456
827.183	24388
827.323	24346
827.462	24311
827.601	24422
827.741	24296
827.88	24467
828.02	24319
828.159	24319
828.298	24388
828.437	24475
828.577	24296
828.716	24445
828.855	24319
828.994	24053
829.134	24030
829.273	24194
829.412	24091
829.551	24098
829.69	24076
829.829	23984
829.968	24117
830.107	24148
830.246	24106
830.385	23984
830.524	24003
830.663	23855
830.802	23695
830.941	23634
831.08	23630
831.219	23783
831.357	23794
831.496	23912
831.635	23714
831.774	23611
831.913	23581
832.051	23406
832.19	23463
832.329	23402
832.467	23322
832.606	23322
832.744	23341
832.883	23349
833.022	23376
833.16	23414
833.299	23208
833.437	23368
833.576	23353
833.714	23471
833.852	23528
833.991	23474
834.129	23535
834.267	23592
834.406	23535
834.544	23493
834.682	23383
834.821	23368
834.959	23581
835.097	23478
835.235	23421
835.373	23334
835.511	23322
835.65	23185
835.788	23334
835.926	23170
836.064	22949
836.202	23128
836.34	23204
836.478	23345
836.615	23292
836.753	23307
836.891	23269
837.029	23220
837.167	23174
837.305	23147
837.443	23086
837.58	23098
837.718	23261
837.856	23151
837.993	23083
838.131	23006
838.269	23006
838.406	23064
838.544	22820
838.681	22774
838.819	22668
838.956	22523
839.094	22637
839.231	22603
839.369	22755
839.506	23006
839.643	22782
839.781	22569
839.918	22550
840.055	22512
840.193	22557
840.33	22512
840.467	22478
840.604	22500
840.742	22771
840.879	22348
841.016	22409
841.153	22325
841.29	22656
841.427	22497
841.564	22512
841.701	22485
841.838	22455
841.975	22417
842.112	22535
842.249	22382
842.385	22329
842.522	22504
842.659	22390
842.796	22223
842.933	22196
843.069	22318
843.206	22078
843.343	22352
843.479	22242
843.616	22177
843.752	22101
843.889	22128
844.025	22211
844.162	22010
844.298	22017
844.435	21949
844.571	21953
844.708	21945
844.844	22265
844.98	22082
845.117	21979
845.253	22059
845.389	21949
845.525	21899
845.661	21949
845.798	21736
845.934	21667
846.07	21690
846.206	21739
846.342	21918
846.478	21739
846.614	21622
846.75	21526
846.886	21530
847.022	21603
847.158	21568
847.294	21530
847.429	21439
847.565	21397
847.701	21724
847.837	21336
847.972	21192
848.108	21195
848.244	21351
848.379	21188
848.515	21112
848.65	21138
848.786	21020
848.921	21089
849.057	21230
849.192	21165
849.328	21142
849.463	21043
849.598	20937
849.734	21028
849.869	20990
850.004	20804
850.14	20815
850.275	20956
850.41	20849
850.545	20788
850.68	20883
850.815	20849
850.95	20921
851.085	20952
851.22	21112
851.355	20777
851.49	20731
851.625	20834
851.76	20982
851.895	20686
852.03	20705
852.165	20849
852.299	20800
852.434	20960
852.569	20849
852.703	20887
852.838	20902
852.973	20944
853.107	20941
853.242	20804
853.376	20693
853.511	20526
853.645	20724
853.78	20693
853.914	20807
854.048	20701
854.183	20678
854.317	20621
854.451	20880
854.585	20667
854.72	20727
854.854	20750
854.988	20693
855.122	20781
855.256	20503
855.39	20621
855.524	20918
855.658	20788
855.792	20674
855.926	20701
856.06	20777
856.194	20815
856.327	20659
856.461	20739
856.595	20651
856.729	20564
856.862	20800
856.996	20705
857.13	20735
857.263	20781
857.397	20765
857.53	20609
857.664	20697
857.797	20777
857.931	20864
858.064	20739
858.197	20864
858.331	20811
858.464	20629
858.597	20640
858.731	20746
858.864	20678
858.997	20663
859.13	20682
859.263	20731
859.396	20686
859.529	20773
859.662	20655
859.795	20602
859.928	20655
860.061	20792
860.194	20990
860.327	20743
860.46	20754
860.592	20819
860.725	20826
860.858	20720
860.99	20636
861.123	20655
861.256	20731
861.388	20651
861.521	21211
861.653	20571
861.786	20507
861.918	20549
862.05	20575
862.183	20480
862.315	20613
862.447	20708
862.58	20590
862.712	20400
862.844	20347
862.976	20404
863.108	20381
863.24	20918
863.372	20370
863.504	20412
863.636	20454
863.768	20442
863.9	20400
864.032	20366
864.164	20404
864.296	20465
864.428	20492
864.559	20404
864.691	20393
864.823	20408
864.954	20339
865.086	20450
865.217	20256
865.349	20149
865.48	20161
865.612	20351
865.743	20442
865.875	20385
866.006	20294
866.137	20301
866.269	20355
866.4	20206
866.531	20221
866.662	20218
866.793	20259
866.924	20267
867.055	20358
867.186	20282
867.317	20263
867.448	20214
867.579	20305
867.71	20164
867.841	20191
867.972	20298
868.103	20214
868.233	20191
868.364	20336
868.495	20377
868.625	20575
868.756	20587
868.886	20431
869.017	20492
869.147	20545
869.278	20613
869.408	20594
869.539	20564
869.669	20454
869.799	20412
869.929	20533
870.06	20743
870.19	20815
870.32	20819
870.45	20864
870.58	20819
870.71	20956
870.84	21039
870.97	20891
871.1	21032
871.23	21077
871.36	21192
871.489	20902
871.619	21047
871.749	21131
871.879	21135
872.008	21237
872.138	21131
872.267	21112
872.397	21123
872.526	20895
872.656	20948
872.785	20975
872.915	21020
873.044	21264
873.173	21104
873.303	21272
873.432	21214
873.561	21313
873.69	21226
873.819	21176
873.948	21214
874.077	21272
874.206	21039
874.335	21112
874.464	21321
874.593	21344
874.722	21416
874.851	21359
874.979	21359
875.108	21622
875.237	21340
875.365	21230
875.494	21329
875.623	21454
875.751	21264
875.88	21526
876.008	21443
876.136	21564
876.265	21785
876.393	22013
876.521	21888
876.65	21793
876.778	21789
876.906	21629
877.034	21781
877.162	21724
877.29	21751
877.418	21755
877.546	21819
877.674	21724
877.802	21819
877.93	21850
878.058	21713
878.185	21671
878.313	21595
878.441	21686
878.568	21530
878.696	21614
878.824	21743
878.951	21755
879.079	21842
879.206	22040
879.333	21998
879.461	21842
879.588	21949
879.715	21945
879.842	21998
879.97	21762
880.097	21542
880.224	21583
880.351	21637
880.478	21614
880.605	21534
880.732	21591
880.859	21747
880.986	21538
881.112	21553
881.239	21389
881.366	21393
881.493	21317
881.619	21214
881.746	21154
881.872	21195
881.999	21093
882.125	21093
882.252	21188
882.378	21108
882.505	21104
882.631	20826
882.757	20834
882.883	20975
883.01	20872
883.136	20720
883.262	20689
883.388	20712
883.514	20895
883.64	20914
883.766	20826
883.892	20583
884.018	20625
884.143	20697
884.269	20857
884.395	20594
884.52	20454
884.646	20552
884.772	20301
884.897	20381
885.023	20663
885.148	20659
885.274	20598
885.399	20712
885.524	20522
885.65	20514
885.775	20465
885.9	20480
886.025	20613
886.15	20568
886.275	20465
886.4	20442
886.525	20522
886.65	20362
886.775	20431
886.9	20606
887.025	20678
887.149	20412
887.274	20339
887.399	20271
887.523	20138
887.648	20229
887.773	20172
887.897	20313
888.021	20244
888.146	20149
888.27	20419
888.395	20263
888.519	20252
888.643	20362
888.767	20324
888.891	20187
889.015	20050
889.139	20122
889.263	20062
889.387	20122
889.511	20259
889.635	20145
889.759	20100
889.883	20035
890.006	20088
890.13	20187
890.254	19997
890.377	19982
890.501	19868
890.624	19772
890.748	19803
890.871	19776
890.995	19620
891.118	19609
891.241	19670
891.364	19731
891.488	19757
891.611	19696
891.734	19708
891.857	19712
891.98	19613
892.103	19609
892.226	19674
892.349	19563
892.471	19403
892.594	19605
892.717	19689
892.839	19453
892.962	19609
893.085	19651
893.207	19521
893.33	19491
893.452	19510
893.575	19723
893.697	19635
893.819	19712
893.941	19693
894.064	19765
894.186	19605
894.308	19537
894.43	19670
894.552	19837
894.674	19666
894.796	19483
894.918	19468
895.04	19502
895.161	19731
895.283	19658
895.405	19472
895.526	19533
895.648	19518
895.769	19544
895.891	19670
896.012	19746
896.134	19601
896.255	19556
896.376	19624
896.498	19548
896.619	19601
896.74	19491
896.861	19674
896.982	19932
897.103	20008
897.224	19883
897.345	19864
897.466	19784
897.587	19807
897.708	19818
897.828	19753
897.949	19769
898.07	19666
898.19	19761
898.311	19944
898.431	19746
898.552	19734
898.672	19970
898.792	19849
898.913	19742
899.033	19715
899.153	19639
899.273	19575
899.393	19590
899.513	19586
899.633	19628
899.753	19582
899.873	19506
899.993	19480
900.113	19487
900.232	19453
900.352	19468
900.472	19350
900.591	19362
900.711	19396
900.83	19438
900.95	19544
901.069	19449
901.189	19247
901.308	18977
901.427	18966
901.546	18943
901.665	19027
901.784	18913
901.904	18798
902.023	18791
902.141	18513
902.26	18570
902.379	18483
902.498	18555
902.617	18479
902.735	18429
902.854	18441
902.973	18403
903.091	18220
903.21	18186
903.328	18053
903.446	17958
903.565	17874
903.683	17973
903.801	17878
903.919	17904
904.038	17870
904.156	17710
904.274	17798
904.392	17649
904.51	17737
904.627	17699
904.745	17672
904.863	17775
904.981	17558
905.098	17368
905.216	17425
905.334	17429
905.451	17391
905.569	17337
905.686	17459
905.803	17349
905.921	17147
906.038	17273
906.155	17189
906.272	17098
906.389	16991
906.506	16942
906.623	16900
906.74	16919
906.857	16706
906.974	16835
907.091	17041
907.208	16953
907.324	16869
907.441	16866
907.557	16736
907.674	16733
907.79	16584
907.907	16752
908.023	16573
908.139	16656
908.256	16630
908.372	16546
908.488	16489
908.604	16462
908.72	16329
908.836	16432
908.952	16329
909.068	16371
909.184	16493
909.3	16367
909.415	16440
909.531	16542
909.647	16116
909.762	16116
909.878	15998
909.993	16029
910.108	16048
910.224	16074
910.339	16074
910.454	15968
910.57	15865
910.685	15751
910.8	16032
910.915	16044
911.03	15895
911.145	15675
911.259	15705
911.374	15667
911.489	15606
911.604	15564
911.718	15306
911.833	15511
911.947	15298
912.062	15329
912.176	15500
912.291	15561
912.405	15507
912.519	15690
912.633	15572
912.748	15572
912.862	15348
912.976	15294
913.09	15157
913.204	15184
913.318	15306
913.431	15260
913.545	15374
913.659	15310
913.772	15241
913.886	15131
914	15028
914.113	15093
914.226	15146
914.34	15192
914.453	15009
914.566	15047
914.68	15020
914.793	14872
914.906	14823
915.019	14724
915.132	14731
915.245	14663
915.358	14697
915.47	14655
915.583	14693
915.696	14655
915.809	14765
915.921	14792
916.034	14659
916.146	14552
916.259	14583
916.371	14686
916.483	14670
916.595	14514
916.708	14587
916.82	14423
916.932	14526
917.044	14594
917.156	14518
917.268	14271
917.38	14358
917.491	14347
917.603	14358
917.715	14473
917.826	14362
917.938	14366
918.049	14191
918.161	14298
918.272	14442
918.384	14434
918.495	14377
918.606	14172
918.717	13997
918.828	14218
918.939	14123
919.05	14031
919.161	14103
919.272	13997
919.383	13921
919.494	14058
919.604	14366
919.715	14123
919.826	13982
919.936	14058
920.047	14195
920.157	14180
920.267	14252
920.378	14065
920.488	14046
920.598	14282
920.708	14336
920.818	14134
920.928	14214
921.038	14419
921.148	14294
921.258	14157
921.368	13928
921.477	13909
921.587	13890
921.697	13727
921.806	13860
921.916	13742
922.025	13597
922.134	13476
922.244	13483
922.353	13567
922.462	13346
922.571	13362
922.68	13171
922.789	13088
922.898	13122
923.007	13107
923.116	13156
923.224	13080
923.333	13095
923.442	12973
923.55	12981
923.659	12985
923.767	13012
923.876	12916
923.984	12943
924.092	12844
924.201	12886
924.309	12840
924.417	12962
924.525	12897
924.633	12795
924.741	13578
924.849	12673
924.956	12833
925.064	12616
925.172	12525
925.279	12513
925.387	12620
925.494	12604
925.602	12726
925.709	12642
925.816	12410
925.924	12528
926.031	12604
926.138	12490
926.245	12566
926.352	12380
926.459	12589
926.566	12540
926.673	12410
926.779	12391
926.886	12418
926.993	12323
927.099	12197
927.206	12087
927.312	12098
927.419	12125
927.525	12140
927.631	12136
927.737	12102
927.843	12041
927.95	11863
928.056	11965
928.162	12019
928.267	12049
928.373	12669
928.479	12102
928.585	11859
928.69	11958
928.796	11965
928.901	11889
929.007	11642
929.112	11805
929.218	11870
929.323	11733
929.428	11722
929.533	11870
929.638	11649
929.743	11710
929.848	11680
929.953	11756
930.058	11608
930.163	11433
930.267	11436
930.372	11501
930.477	11429
930.581	11547
930.685	11482
930.79	11364
930.894	11284
930.998	11303
931.103	11493
931.207	11022
931.311	10995
931.415	10930
931.519	10733
931.623	10679
