Data from test_V78500241_2794.txt Node
Date: Fri Mar 25 15:29:18 CST 2022
User: usil
Spectrometer: V785-0024
Trigger mode: 0
Integration Time (sec): 4.000000E-1
Scans to average: 1
Nonlinearity correction enabled: false
Boxcar width: 0
Storing dark spectrum: false
XAxis mode: Wavelengths
Number of Pixels in Spectrum: 1024
>>>>>Begin Spectral Data<<<<<
801.071	27165
801.214	27070
801.356	26834
801.499	26743
801.641	26826
801.783	26606
801.926	26705
802.068	26773
802.211	26632
802.353	26640
802.496	26438
802.638	26320
802.78	26427
802.923	26305
803.065	26275
803.208	26237
803.35	26290
803.492	26564
803.635	26541
803.777	26473
803.919	26568
804.061	26887
804.204	26579
804.346	26453
804.488	26377
804.63	26644
804.773	26309
804.915	26484
805.057	26571
805.199	26556
805.341	26530
805.483	26571
805.626	26720
805.768	26507
805.91	26629
806.052	26549
806.194	26609
806.336	26868
806.478	26587
806.62	26590
806.762	26785
806.904	26826
807.046	27020
807.188	27058
807.33	26982
807.472	27074
807.614	26948
807.756	27017
807.898	26910
808.04	26823
808.182	26883
808.324	26891
808.465	26872
808.607	26982
808.749	27382
808.891	27351
809.033	27344
809.174	27401
809.316	27199
809.458	27252
809.6	27233
809.741	27382
809.883	27389
810.025	27447
810.166	27477
810.308	27462
810.45	27481
810.591	27431
810.733	27249
810.875	27161
811.016	27176
811.158	27157
811.299	27241
811.441	27321
811.582	27462
811.724	27241
811.865	27176
812.007	27157
812.148	27112
812.29	27127
812.431	27382
812.573	27420
812.714	27618
812.855	27717
812.997	27785
813.138	27907
813.279	27759
813.421	27774
813.562	27519
813.703	27538
813.845	27302
813.986	27089
814.127	26979
814.268	26811
814.41	27047
814.551	26769
814.692	26956
814.833	26853
814.974	26811
815.115	26880
815.256	26705
815.397	26857
815.539	26644
815.68	26537
815.821	26571
815.962	26583
816.103	26659
816.244	26495
816.385	26453
816.526	26336
816.666	26149
816.807	26183
816.948	26233
817.089	26210
817.23	26122
817.371	26039
817.512	26020
817.653	26027
817.793	26031
817.934	26069
818.075	26157
818.216	26142
818.356	26069
818.497	25982
818.638	25845
818.778	25864
818.919	25849
819.06	26138
819.2	25936
819.341	26180
819.481	26065
819.622	26187
819.762	26457
819.903	26381
820.043	26282
820.184	26252
820.324	26115
820.465	26301
820.605	26290
820.746	26130
820.886	25982
821.026	26180
821.167	26267
821.307	26240
821.447	26164
821.588	25864
821.728	25917
821.868	25799
822.008	25571
822.149	25609
822.289	25559
822.429	25278
822.569	25381
822.709	25232
822.849	25179
822.99	25141
823.13	25095
823.27	25027
823.41	24913
823.55	24863
823.69	24890
823.83	24894
823.97	24970
824.11	24601
824.25	24768
824.389	24783
824.529	24757
824.669	24749
824.809	24856
824.949	24772
825.089	24665
825.228	24589
825.368	24570
825.508	24616
825.648	24639
825.787	24544
825.927	24669
826.067	24623
826.206	24547
826.346	24688
826.485	24642
826.625	24582
826.765	24681
826.904	24665
827.044	24285
827.183	24251
827.323	24292
827.462	24372
827.601	24266
827.741	24178
827.88	24247
828.02	24239
828.159	24159
828.298	24311
828.437	24228
828.577	24258
828.716	24361
828.855	24159
828.994	24083
829.134	23889
829.273	23965
829.412	23958
829.551	23882
829.69	24076
829.829	23942
829.968	24079
830.107	24041
830.246	23889
830.385	24038
830.524	23916
830.663	23828
830.802	23703
830.941	23729
831.08	23592
831.219	23672
831.357	23748
831.496	23737
831.635	23653
831.774	23509
831.913	23398
832.051	23398
832.19	23414
832.329	23436
832.467	23288
832.606	23204
832.744	23269
832.883	23269
833.022	23208
833.16	23356
833.299	23334
833.437	23341
833.576	23334
833.714	23277
833.852	23414
833.991	23433
834.129	23334
834.267	23383
834.406	23280
834.544	23372
834.682	23299
834.821	23288
834.959	23573
835.097	23284
835.235	23315
835.373	23265
835.511	23254
835.65	23231
835.788	23105
835.926	23067
836.064	23048
836.202	22999
836.34	23094
836.478	23246
836.615	23006
836.753	23239
836.891	23143
837.029	23258
837.167	23105
837.305	23181
837.443	23022
837.58	22949
837.718	23079
837.856	23010
837.993	22942
838.131	23086
838.269	22930
838.406	22831
838.544	22748
838.681	22523
838.819	22557
838.956	22466
839.094	22527
839.231	22535
839.369	22668
839.506	22786
839.643	22881
839.781	22462
839.918	22413
840.055	22466
840.193	22474
840.33	22356
840.467	22402
840.604	22363
840.742	22694
840.879	22238
841.016	22379
841.153	22226
841.29	22405
841.427	22424
841.564	22394
841.701	22375
841.838	22455
841.975	22303
842.112	22424
842.249	22253
842.385	22238
842.522	22424
842.659	22249
842.796	22261
842.933	22238
843.069	22185
843.206	22090
843.343	22257
843.479	22036
843.616	22192
843.752	21846
843.889	21930
844.025	22048
844.162	21857
844.298	21903
844.435	21869
844.571	21979
844.708	21998
844.844	22078
844.98	22013
845.117	22067
845.253	21979
845.389	21854
845.525	21895
845.661	21770
845.798	21686
845.934	21736
846.07	21652
846.206	21724
846.342	21850
846.478	21641
846.614	21428
846.75	21351
846.886	21439
847.022	21424
847.158	21336
847.294	21473
847.429	21469
847.565	21431
847.701	21736
847.837	21161
847.972	21173
848.108	21275
848.244	21218
848.379	21028
848.515	20971
848.65	20872
848.786	21043
848.921	21047
849.057	21005
849.192	21055
849.328	21066
849.463	20899
849.598	20944
849.734	20929
849.869	20838
850.004	20750
850.14	20838
850.275	20632
850.41	20629
850.545	20769
850.68	20678
850.815	20773
850.95	20804
851.085	21017
851.22	20845
851.355	20724
851.49	20773
851.625	20724
851.76	20682
851.895	20705
852.03	20758
852.165	20876
852.299	20727
852.434	20857
852.569	20762
852.703	20765
852.838	20701
852.973	20933
853.107	20902
853.242	20724
853.376	20727
853.511	20511
853.645	20590
853.78	20663
853.914	20571
854.048	20461
854.183	20594
854.317	20629
854.451	20826
854.585	20594
854.72	20663
854.854	20583
854.988	20503
855.122	20552
855.256	20514
855.39	20674
855.524	20678
855.658	20598
855.792	20507
855.926	20705
856.06	20735
856.194	20682
856.327	20575
856.461	20480
856.595	20552
856.729	20594
856.862	20667
856.996	20648
857.13	20674
857.263	20769
857.397	20689
857.53	20583
857.664	20602
857.797	20549
857.931	20686
858.064	20526
858.197	20594
858.331	20579
858.464	20492
858.597	20495
858.731	20632
858.864	20492
858.997	20488
859.13	20625
859.263	20655
859.396	20598
859.529	20552
859.662	20590
859.795	20465
859.928	20640
860.061	20762
860.194	20777
860.327	20625
860.46	20495
860.592	20731
860.725	20853
860.858	20746
860.99	20564
861.123	20609
861.256	20518
861.388	20545
861.521	21176
861.653	20503
861.786	20442
861.918	20484
862.05	20408
862.183	20568
862.315	20545
862.447	20598
862.58	20560
862.712	20320
862.844	20256
862.976	20393
863.108	20442
863.24	20830
863.372	20149
863.504	20328
863.636	20248
863.768	20267
863.9	20221
864.032	20233
864.164	20415
864.296	20374
864.428	20381
864.559	20294
864.691	20362
864.823	20400
864.954	20290
865.086	20225
865.217	20267
865.349	20088
865.48	20092
865.612	20096
865.743	20309
865.875	20237
866.006	20122
866.137	20320
866.269	20237
866.4	20256
866.531	20054
866.662	20183
866.793	20088
866.924	20073
867.055	20218
867.186	20149
867.317	20020
867.448	19970
867.579	20081
867.71	20027
867.841	20016
867.972	20077
868.103	20161
868.233	20210
868.364	20218
868.495	20259
868.625	20278
868.756	20518
868.886	20362
869.017	20465
869.147	20473
869.278	20526
869.408	20461
869.539	20393
869.669	20332
869.799	20450
869.929	20533
870.06	20598
870.19	20678
870.32	20712
870.45	20807
870.58	20792
870.71	20838
870.84	20857
870.97	20746
871.1	20800
871.23	21051
871.36	21028
871.489	20937
871.619	20876
871.749	20952
871.879	20937
872.008	21116
872.138	21020
872.267	21051
872.397	20895
872.526	20750
872.656	20849
872.785	20788
872.915	21058
873.044	21066
873.173	21017
873.303	21028
873.432	21028
873.561	21302
873.69	21146
873.819	21051
873.948	21131
874.077	21074
874.206	21062
874.335	20960
874.464	21123
874.593	21298
874.722	21287
874.851	21154
874.979	21119
875.108	21378
875.237	21230
875.365	21184
875.494	21264
875.623	21450
875.751	21184
875.88	21199
876.008	21397
876.136	21469
876.265	21656
876.393	21861
876.521	21781
876.65	21804
876.778	21701
876.906	21728
877.034	21568
877.162	21660
877.29	21656
877.418	21667
877.546	21694
877.674	21614
877.802	21500
877.93	21587
878.058	21633
878.185	21424
878.313	21759
878.441	21538
878.568	21454
878.696	21534
878.824	21644
878.951	21854
879.079	21732
879.206	21945
879.333	21800
879.461	21656
879.588	21785
879.715	21686
879.842	21842
879.97	21690
880.097	21477
880.224	21488
880.351	21408
880.478	21443
880.605	21275
880.732	21393
880.859	21679
880.986	21511
881.112	21363
881.239	21321
881.366	21230
881.493	21085
881.619	21043
881.746	20994
881.872	21036
881.999	21081
882.125	20967
882.252	20986
882.378	21043
882.505	21074
882.631	20937
882.757	20712
882.883	20773
883.01	20739
883.136	20731
883.262	20621
883.388	20602
883.514	20746
883.64	20785
883.766	20606
883.892	20442
884.018	20598
884.143	20735
884.269	20735
884.395	20499
884.52	20343
884.646	20450
884.772	20374
884.897	20377
885.023	20473
885.148	20419
885.274	20454
885.399	20556
885.524	20396
885.65	20385
885.775	20301
885.9	20328
886.025	20530
886.15	20366
886.275	20370
886.4	20336
886.525	20332
886.65	20294
886.775	20180
886.9	20374
887.025	20560
887.149	20332
887.274	20191
887.399	20084
887.523	20115
887.648	20153
887.773	20039
887.897	20168
888.021	20229
888.146	20027
888.27	20294
888.395	20256
888.519	20259
888.643	20240
888.767	20183
888.891	20107
889.015	19970
889.139	20081
889.263	19947
889.387	20157
889.511	20115
889.635	19932
889.759	19989
889.883	19993
890.006	19993
890.13	20016
890.254	19856
890.377	19913
890.501	19776
890.624	19632
890.748	19788
890.871	19601
890.995	19487
891.118	19529
891.241	19540
891.364	19529
891.488	19597
891.611	19655
891.734	19616
891.857	19632
891.98	19578
892.103	19567
892.226	19597
892.349	19514
892.471	19236
892.594	19510
892.717	19438
892.839	19460
892.962	19392
893.085	19468
893.207	19480
893.33	19365
893.452	19430
893.575	19396
893.697	19419
893.819	19575
893.941	19548
894.064	19590
894.186	19354
894.308	19518
894.43	19556
894.552	19666
894.674	19552
894.796	19464
894.918	19491
895.04	19430
895.161	19559
895.283	19510
895.405	19571
895.526	19487
895.648	19400
895.769	19441
895.891	19491
896.012	19476
896.134	19563
896.255	19533
896.376	19449
896.498	19453
896.619	19575
896.74	19495
896.861	19495
896.982	19791
897.103	19852
897.224	19727
897.345	19719
897.466	19674
897.587	19704
897.708	19658
897.828	19693
897.949	19689
898.07	19586
898.19	19594
898.311	19750
898.431	19670
898.552	19635
898.672	19738
898.792	19784
898.913	19693
899.033	19575
899.153	19544
899.273	19460
899.393	19506
899.513	19472
899.633	19521
899.753	19483
899.873	19396
899.993	19430
900.113	19464
900.232	19430
900.352	19327
900.472	19308
900.591	19285
900.711	19179
900.83	19122
900.95	19327
901.069	19297
901.189	19129
901.308	19008
901.427	18772
901.546	18840
901.665	18875
901.784	18897
901.904	18764
902.023	18669
902.141	18521
902.26	18315
902.379	18521
902.498	18391
902.617	18441
902.735	18403
902.854	18323
902.973	18304
903.091	18030
903.21	18121
903.328	18083
903.446	17992
903.565	17840
903.683	17920
903.801	17828
903.919	17729
904.038	17722
904.156	17573
904.274	17733
904.392	17615
904.51	17535
904.627	17684
904.745	17657
904.863	17649
904.981	17356
905.098	17318
905.216	17311
905.334	17334
905.451	17372
905.569	17159
905.686	17368
905.803	17273
905.921	17014
906.038	17318
906.155	17090
906.272	16946
906.389	17022
906.506	16862
906.623	16820
906.74	16816
906.857	16656
906.974	16824
907.091	16850
907.208	16965
907.324	16927
907.441	16656
907.557	16622
907.674	16603
907.79	16443
907.907	16519
908.023	16554
908.139	16565
908.256	16561
908.372	16584
908.488	16466
908.604	16284
908.72	16207
908.836	16215
908.952	16299
909.068	16318
909.184	16421
909.3	16246
909.415	16318
909.531	16306
909.647	16036
909.762	15911
909.878	15964
909.993	15968
910.108	15975
910.224	15892
910.339	15949
910.454	15819
910.57	15766
910.685	15789
910.8	15972
910.915	16006
911.03	15804
911.145	15747
911.259	15507
911.374	15561
911.489	15462
911.604	15454
911.718	15408
911.833	15462
911.947	15260
912.062	15180
912.176	15462
912.291	15428
912.405	15443
912.519	15553
912.633	15595
912.748	15348
912.862	15344
912.976	15157
913.09	15077
913.204	15100
913.318	15157
913.431	15199
913.545	15241
913.659	15313
913.772	15245
913.886	15020
914	14998
914.113	15104
914.226	15176
914.34	15097
914.453	14883
914.566	15001
914.68	14883
914.793	14941
914.906	14678
915.019	14598
915.132	14530
915.245	14560
915.358	14727
915.47	14511
915.583	14610
915.696	14651
915.809	14724
915.921	14629
916.034	14606
916.146	14503
916.259	14499
916.371	14571
916.483	14507
916.595	14480
916.708	14404
916.82	14530
916.932	14412
917.044	14469
917.156	14442
917.268	14362
917.38	14385
917.491	14267
917.603	14282
917.715	14317
917.826	14317
917.938	14252
918.049	14164
918.161	14202
918.272	14419
918.384	14328
918.495	14233
918.606	14065
918.717	14012
918.828	14100
918.939	14058
919.05	14005
919.161	14012
919.272	13860
919.383	13879
919.494	14039
919.604	14191
919.715	14035
919.826	13879
919.936	14016
920.047	14084
920.157	14001
920.267	14168
920.378	14031
920.488	13993
920.598	14130
920.708	14225
920.818	14210
920.928	14199
921.038	14275
921.148	14240
921.258	13993
921.368	13894
921.477	13807
921.587	13772
921.697	13651
921.806	13788
921.916	13655
922.025	13537
922.134	13460
922.244	13396
922.353	13525
922.462	13327
922.571	13247
922.68	13107
922.789	13061
922.898	13103
923.007	12966
923.116	13149
923.224	13027
923.333	13080
923.442	12947
923.55	12848
923.659	12871
923.767	13019
923.876	12772
923.984	12932
924.092	12795
924.201	12844
924.309	12791
924.417	12829
924.525	12806
924.633	12738
924.741	13525
924.849	12566
924.956	12658
925.064	12578
925.172	12452
925.279	12445
925.387	12608
925.494	12532
925.602	12623
925.709	12540
925.816	12334
925.924	12464
926.031	12528
926.138	12399
926.245	12517
926.352	12422
926.459	12555
926.566	12513
926.673	12426
926.779	12247
926.886	12209
926.993	12129
927.099	12251
927.206	12095
927.312	12064
927.419	12079
927.525	12155
927.631	12095
927.737	11935
927.843	12038
927.95	11817
928.056	11927
928.162	12019
928.267	11980
928.373	12551
928.479	12049
928.585	11813
928.69	11885
928.796	11889
928.901	11703
929.007	11718
929.112	11821
929.218	11748
929.323	11718
929.428	11680
929.533	11813
929.638	11600
929.743	11611
929.848	11722
929.953	11600
930.058	11532
930.163	11376
930.267	11330
930.372	11493
930.477	11280
930.581	11516
930.685	11391
930.79	11242
930.894	11349
930.998	11189
931.103	11307
931.207	11045
931.311	10984
931.415	10839
931.519	10603
931.623	10626
