Data from test_V78500241_1368.txt Node
Date: Fri Mar 25 15:19:22 CST 2022
User: usil
Spectrometer: V785-0024
Trigger mode: 0
Integration Time (sec): 4.000000E-1
Scans to average: 1
Nonlinearity correction enabled: false
Boxcar width: 0
Storing dark spectrum: false
XAxis mode: Wavelengths
Number of Pixels in Spectrum: 1024
>>>>>Begin Spectral Data<<<<<
801.071	28017
801.214	28109
801.356	27797
801.499	27728
801.641	27519
801.783	27469
801.926	27614
802.068	27553
802.211	27469
802.353	27260
802.496	27195
802.638	27169
802.78	27173
802.923	27154
803.065	27093
803.208	27138
803.35	27283
803.492	27306
803.635	27367
803.777	27287
803.919	27321
804.061	27705
804.204	27485
804.346	27325
804.488	27431
804.63	27389
804.773	27329
804.915	27401
805.057	27591
805.199	27336
805.341	27450
805.483	27606
805.626	27408
805.768	27504
805.91	27504
806.052	27553
806.194	27485
806.336	27842
806.478	27641
806.62	27568
806.762	27652
806.904	27930
807.046	28040
807.188	27991
807.33	27964
807.472	28021
807.614	27785
807.756	28010
807.898	27774
808.04	27800
808.182	27747
808.324	28040
808.465	27846
808.607	27861
808.749	28253
808.891	28268
809.033	28443
809.174	28093
809.316	28306
809.458	28177
809.6	28166
809.741	28219
809.883	28329
810.025	28451
810.166	28451
810.308	28329
810.45	28417
810.591	28470
810.733	28329
810.875	28287
811.016	28120
811.158	28070
811.299	28223
811.441	28257
811.582	28390
811.724	28162
811.865	28303
812.007	28196
812.148	28325
812.29	28261
812.431	28424
812.573	28428
812.714	28687
812.855	28717
812.997	28828
813.138	28965
813.279	28820
813.421	28679
813.562	28698
813.703	28531
813.845	28489
813.986	28268
814.127	28147
814.268	28120
814.41	27895
814.551	27937
814.692	28021
814.833	27842
814.974	27873
815.115	27880
815.256	27793
815.397	27728
815.539	27854
815.68	27667
815.821	27648
815.962	27770
816.103	27671
816.244	27583
816.385	27469
816.526	27473
816.666	27344
816.807	27264
816.948	27260
817.089	27401
817.23	27272
817.371	27119
817.512	27226
817.653	27055
817.793	27214
817.934	26921
818.075	27207
818.216	27275
818.356	27146
818.497	27081
818.638	26918
818.778	26918
818.919	27032
819.06	26948
819.2	27055
819.341	27195
819.481	27192
819.622	27355
819.762	27534
819.903	27378
820.043	27340
820.184	27313
820.324	27355
820.465	27310
820.605	27355
820.746	27370
820.886	27237
821.026	27378
821.167	27283
821.307	27344
821.447	27294
821.588	27039
821.728	27051
821.868	26918
822.008	26689
822.149	26629
822.289	26579
822.429	26450
822.569	26351
822.709	26358
822.849	26294
822.99	26172
823.13	26054
823.27	26187
823.41	25966
823.55	26020
823.69	26043
823.83	26020
823.97	25925
824.11	25830
824.25	25734
824.389	25887
824.529	25966
824.669	25788
824.809	25932
824.949	25917
825.089	25951
825.228	25830
825.368	25788
825.508	25666
825.648	25731
825.787	25772
825.927	25830
826.067	25575
826.206	25693
826.346	25575
826.485	25666
826.625	25696
826.765	25845
826.904	25704
827.044	25540
827.183	25392
827.323	25487
827.462	25415
827.601	25411
827.741	25491
827.88	25453
828.02	25232
828.159	25362
828.298	25396
828.437	25472
828.577	25316
828.716	25396
828.855	25422
828.994	25240
829.134	25091
829.273	25031
829.412	25027
829.551	25110
829.69	25099
829.829	25076
829.968	25164
830.107	25152
830.246	25076
830.385	25103
830.524	25042
830.663	25012
830.802	24814
830.941	24669
831.08	24741
831.219	24791
831.357	24741
831.496	24977
831.635	24650
831.774	24597
831.913	24578
832.051	24502
832.19	24517
832.329	24574
832.467	24464
832.606	24372
832.744	24277
832.883	24365
833.022	24239
833.16	24311
833.299	24403
833.437	24471
833.576	24528
833.714	24433
833.852	24502
833.991	24494
834.129	24509
834.267	24445
834.406	24593
834.544	24418
834.682	24258
834.821	24414
834.959	24696
835.097	24338
835.235	24498
835.373	24544
835.511	24437
835.65	24452
835.788	24262
835.926	24133
836.064	24098
836.202	24213
836.34	24334
836.478	24357
836.615	24342
836.753	24251
836.891	24254
837.029	24262
837.167	24235
837.305	24174
837.443	24235
837.58	24174
837.718	24258
837.856	24251
837.993	24049
838.131	24159
838.269	23965
838.406	24110
838.544	23885
838.681	23828
838.819	23855
838.956	23653
839.094	23653
839.231	23771
839.369	23676
839.506	23920
839.643	23726
839.781	23512
839.918	23493
840.055	23463
840.193	23630
840.33	23493
840.467	23592
840.604	23585
840.742	23722
840.879	23402
841.016	23463
841.153	23429
841.29	23509
841.427	23486
841.564	23474
841.701	23585
841.838	23471
841.975	23391
842.112	23387
842.249	23284
842.385	23212
842.522	23455
842.659	23356
842.796	23189
842.933	23379
843.069	23178
843.206	23288
843.343	23307
843.479	23280
843.616	23242
843.752	22881
843.889	23090
844.025	23223
844.162	23006
844.298	23121
844.435	23083
844.571	22805
844.708	23067
844.844	23170
844.98	23189
845.117	23071
845.253	22904
845.389	22858
845.525	22946
845.661	22911
845.798	22710
845.934	22755
846.07	22717
846.206	22854
846.342	22991
846.478	22763
846.614	22622
846.75	22371
846.886	22451
847.022	22580
847.158	22497
847.294	22535
847.429	22516
847.565	22459
847.701	22752
847.837	22303
847.972	22078
848.108	22257
848.244	22344
848.379	22234
848.515	22063
848.65	22249
848.786	22093
848.921	22063
849.057	22162
849.192	22192
849.328	22021
849.463	22017
849.598	21956
849.734	21972
849.869	21762
850.004	21915
850.14	21876
850.275	21850
850.41	21743
850.545	21880
850.68	21884
850.815	21850
850.95	21797
851.085	21979
851.22	22013
851.355	21907
851.49	21819
851.625	21732
851.76	21766
851.895	21538
852.03	21785
852.165	21785
852.299	21895
852.434	21911
852.569	21953
852.703	21797
852.838	21926
852.973	21983
853.107	21876
853.242	21899
853.376	21736
853.511	21435
853.645	21637
853.78	21633
853.914	21633
854.048	21633
854.183	21652
854.317	21709
854.451	21816
854.585	21698
854.72	21705
854.854	21679
854.988	21595
855.122	21724
855.256	21515
855.39	21679
855.524	21732
855.658	21720
855.792	21804
855.926	21682
856.06	21698
856.194	21717
856.327	21553
856.461	21679
856.595	21568
856.729	21606
856.862	21732
856.996	21698
857.13	21610
857.263	21770
857.397	21755
857.53	21591
857.664	21698
857.797	21610
857.931	21705
858.064	21679
858.197	21789
858.331	21595
858.464	21633
858.597	21515
858.731	21663
858.864	21656
858.997	21644
859.13	21641
859.263	21633
859.396	21842
859.529	21580
859.662	21572
859.795	21557
859.928	21603
860.061	21785
860.194	21831
860.327	21739
860.46	21701
860.592	21713
860.725	21698
860.858	21812
860.99	21599
861.123	21648
861.256	21561
861.388	21526
861.521	22226
861.653	21530
861.786	21428
861.918	21431
862.05	21443
862.183	21523
862.315	21511
862.447	21637
862.58	21618
862.712	21435
862.844	21355
862.976	21428
863.108	21424
863.24	21736
863.372	21294
863.504	21405
863.636	21363
863.768	21283
863.9	21351
864.032	21374
864.164	21363
864.296	21359
864.428	21416
864.559	21443
864.691	21462
864.823	21416
864.954	21291
865.086	21321
865.217	21264
865.349	21230
865.48	21298
865.612	21302
865.743	21355
865.875	21306
866.006	21237
866.137	21207
866.269	21321
866.4	21241
866.531	21199
866.662	21157
866.793	21214
866.924	21146
867.055	21184
867.186	21100
867.317	21230
867.448	21169
867.579	21112
867.71	21173
867.841	21089
867.972	21214
868.103	21226
868.233	21173
868.364	21108
868.495	21348
868.625	21424
868.756	21443
868.886	21462
869.017	21370
869.147	21538
869.278	21576
869.408	21450
869.539	21469
869.669	21606
869.799	21530
869.929	21511
870.06	21534
870.19	21766
870.32	21686
870.45	21736
870.58	21736
870.71	21838
870.84	21956
870.97	21797
871.1	21736
871.23	21934
871.36	21926
871.489	21987
871.619	21960
871.749	21918
871.879	22036
872.008	22063
872.138	21949
872.267	22010
872.397	21861
872.526	21941
872.656	22006
872.785	21774
872.915	22055
873.044	22124
873.173	22097
873.303	21968
873.432	21915
873.561	22112
873.69	22158
873.819	22006
873.948	22162
874.077	22093
874.206	22013
874.335	21949
874.464	22078
874.593	22200
874.722	22242
874.851	22344
874.979	22337
875.108	22303
875.237	22074
875.365	22086
875.494	22318
875.623	22333
875.751	22185
875.88	22131
876.008	22413
876.136	22413
876.265	22580
876.393	22790
876.521	22565
876.65	22656
876.778	22599
876.906	22607
877.034	22630
877.162	22580
877.29	22596
877.418	22725
877.546	22519
877.674	22527
877.802	22603
877.93	22603
878.058	22531
878.185	22386
878.313	22538
878.441	22527
878.568	22394
878.696	22577
878.824	22500
878.951	22767
879.079	22774
879.206	22938
879.333	22809
879.461	22478
879.588	22645
879.715	22656
879.842	22767
879.97	22622
880.097	22512
880.224	22352
880.351	22432
880.478	22424
880.605	22356
880.732	22500
880.859	22618
880.986	22386
881.112	22432
881.239	22200
881.366	22097
881.493	22029
881.619	21816
881.746	22025
881.872	21972
881.999	21960
882.125	21808
882.252	22025
882.378	21945
882.505	21987
882.631	21846
882.757	21762
882.883	21781
883.01	21743
883.136	21580
883.262	21481
883.388	21488
883.514	21603
883.64	21671
883.766	21523
883.892	21382
884.018	21454
884.143	21542
884.269	21599
884.395	21306
884.52	21116
884.646	21302
884.772	21336
884.897	21184
885.023	21317
885.148	21363
885.274	21439
885.399	21416
885.524	21279
885.65	21367
885.775	21222
885.9	21317
886.025	21382
886.15	21340
886.275	21344
886.4	21146
886.525	21351
886.65	21230
886.775	21146
886.9	21294
887.025	21458
887.149	21313
887.274	21176
887.399	21077
887.523	21028
887.648	21100
887.773	21055
887.897	21237
888.021	21104
888.146	20975
888.27	21142
888.395	21123
888.519	21142
888.643	21123
888.767	21192
888.891	20895
889.015	20872
889.139	20876
889.263	20758
889.387	20990
889.511	21005
889.635	21089
889.759	20739
889.883	20769
890.006	20876
890.13	20929
890.254	20769
890.377	20826
890.501	20606
890.624	20545
890.748	20629
890.871	20495
890.995	20469
891.118	20396
891.241	20469
891.364	20488
891.488	20568
891.611	20442
891.734	20362
891.857	20423
891.98	20393
892.103	20484
892.226	20343
892.349	20431
892.471	20271
892.594	20389
892.717	20286
892.839	20423
892.962	20343
893.085	20396
893.207	20313
893.33	20259
893.452	20233
893.575	20362
893.697	20267
893.819	20495
893.941	20518
894.064	20499
894.186	20153
894.308	20256
894.43	20317
894.552	20457
894.674	20339
894.796	20290
894.918	20221
895.04	20233
895.161	20320
895.283	20415
895.405	20180
895.526	20221
895.648	20229
895.769	20256
895.891	20320
896.012	20400
896.134	20271
896.255	20286
896.376	20290
896.498	20347
896.619	20351
896.74	20294
896.861	20454
896.982	20655
897.103	20785
897.224	20537
897.345	20537
897.466	20465
897.587	20473
897.708	20746
897.828	20625
897.949	20530
898.07	20412
898.19	20488
898.311	20609
898.431	20503
898.552	20587
898.672	20495
898.792	20552
898.913	20484
899.033	20427
899.153	20362
899.273	20176
899.393	20271
899.513	20423
899.633	20256
899.753	20305
899.873	20271
899.993	20320
900.113	20229
900.232	20225
900.352	20183
900.472	20176
900.591	20122
900.711	20103
900.83	20027
900.95	20134
901.069	20195
901.189	19932
901.308	19704
901.427	19597
901.546	19723
901.665	19723
901.784	19601
901.904	19495
902.023	19354
902.141	19285
902.26	19175
902.379	19194
902.498	19088
902.617	19072
902.735	19240
902.854	19198
902.973	19076
903.091	18852
903.21	18852
903.328	18890
903.446	18787
903.565	18650
903.683	18646
903.801	18467
903.919	18635
904.038	18452
904.156	18399
904.274	18384
904.392	18353
904.51	18395
904.627	18353
904.745	18346
904.863	18433
904.981	18216
905.098	18129
905.216	18015
905.334	17999
905.451	18098
905.569	17977
905.686	18030
905.803	17973
905.921	17840
906.038	17973
906.155	17760
906.272	17786
906.389	17798
906.506	17661
906.623	17623
906.74	17699
906.857	17471
906.974	17425
907.091	17703
907.208	17665
907.324	17585
907.441	17444
907.557	17402
907.674	17250
907.79	17246
907.907	17311
908.023	17284
908.139	17349
908.256	17159
908.372	17227
908.488	17197
908.604	17045
908.72	16972
908.836	16991
908.952	16927
909.068	16938
909.184	17083
909.3	17006
909.415	17071
909.531	17010
909.647	16763
909.762	16869
909.878	16710
909.993	16721
910.108	16725
910.224	16645
910.339	16759
910.454	16596
910.57	16443
910.685	16512
910.8	16702
910.915	16641
911.03	16580
911.145	16371
911.259	16280
911.374	16257
911.489	16204
911.604	16246
911.718	16059
911.833	16116
911.947	15937
912.062	15876
912.176	16032
912.291	16067
912.405	16044
912.519	16242
912.633	16207
912.748	16124
912.862	15994
912.976	15915
913.09	15732
913.204	15816
913.318	15850
913.431	15895
913.545	15918
913.659	16040
913.772	15781
913.886	15667
914	15679
914.113	15736
914.226	15831
914.34	15660
914.453	15584
914.566	15644
914.68	15466
914.793	15538
914.906	15393
915.019	15226
915.132	15306
915.245	15211
915.358	15306
915.47	15180
915.583	15291
915.696	15268
915.809	15405
915.921	15469
916.034	15252
916.146	15184
916.259	15188
916.371	15279
916.483	15195
916.595	15097
916.708	15043
916.82	15028
916.932	15047
917.044	15020
917.156	15036
917.268	14849
917.38	14906
917.491	14960
917.603	14868
917.715	14876
917.826	15070
917.938	14883
918.049	14667
918.161	14914
918.272	15017
918.384	14967
918.495	14830
918.606	14701
918.717	14686
918.828	14674
918.939	14667
919.05	14590
919.161	14629
919.272	14412
919.383	14552
919.494	14689
919.604	14921
919.715	14682
919.826	14522
919.936	14621
920.047	14659
920.157	14735
920.267	14819
920.378	14678
920.488	14625
920.598	14773
920.708	14994
920.818	14705
920.928	14720
921.038	14929
921.148	14872
921.258	14541
921.368	14518
921.477	14431
921.587	14317
921.697	14252
921.806	14419
921.916	14161
922.025	13989
922.134	14008
922.244	14001
922.353	14020
922.462	13830
922.571	13818
922.68	13738
922.789	13586
922.898	13689
923.007	13601
923.116	13704
923.224	13681
923.333	13594
923.442	13487
923.55	13472
923.659	13548
923.767	13544
923.876	13422
923.984	13460
924.092	13365
924.201	13510
924.309	13403
924.417	13400
924.525	13278
924.633	13358
924.741	14126
924.849	13065
924.956	13293
925.064	13164
925.172	13034
925.279	13004
925.387	13084
925.494	13160
925.602	13080
925.709	13183
925.816	12935
925.924	12989
926.031	13065
926.138	13057
926.245	13023
926.352	12833
926.459	12996
926.566	13000
926.673	12878
926.779	12802
926.886	12806
926.993	12715
927.099	12635
927.206	12547
927.312	12502
927.419	12696
927.525	12639
927.631	12646
927.737	12391
927.843	12551
927.95	12292
928.056	12506
928.162	12445
928.267	12578
928.373	13053
928.479	12551
928.585	12186
928.69	12395
928.796	12410
928.901	12357
929.007	12220
929.112	12327
929.218	12254
929.323	12159
929.428	12079
929.533	12167
929.638	12064
929.743	12102
929.848	12159
929.953	12095
930.058	11950
930.163	11870
930.267	11980
930.372	11912
930.477	11809
930.581	12015
930.685	11935
930.79	11745
930.894	11737
930.998	11684
931.103	11866
931.207	11452
931.311	11318
931.415	11284
931.519	11113
931.623	11147
