Data from test_V78500241_1605.txt Node
Date: Fri Mar 25 15:21:01 CST 2022
User: usil
Spectrometer: V785-0024
Trigger mode: 0
Integration Time (sec): 4.000000E-1
Scans to average: 1
Nonlinearity correction enabled: false
Boxcar width: 0
Storing dark spectrum: false
XAxis mode: Wavelengths
Number of Pixels in Spectrum: 1024
>>>>>Begin Spectral Data<<<<<
801.071	27762
801.214	27846
801.356	27682
801.499	27614
801.641	27374
801.783	27397
801.926	27458
802.068	27530
802.211	27370
802.353	27313
802.496	27298
802.638	27062
802.78	27093
802.923	26990
803.065	26948
803.208	27058
803.35	27005
803.492	27306
803.635	27359
803.777	27146
803.919	27325
804.061	27652
804.204	27424
804.346	27161
804.488	27146
804.63	27298
804.773	27233
804.915	27378
805.057	27435
805.199	27260
805.341	27374
805.483	27447
805.626	27405
805.768	27329
805.91	27386
806.052	27488
806.194	27348
806.336	27557
806.478	27530
806.62	27378
806.762	27553
806.904	27698
807.046	27918
807.188	27865
807.33	27789
807.472	27785
807.614	27911
807.756	27709
807.898	27663
808.04	27637
808.182	27675
808.324	27622
808.465	27770
808.607	28063
808.749	27956
808.891	28158
809.033	28166
809.174	28097
809.316	28067
809.458	28002
809.6	28032
809.741	28215
809.883	28219
810.025	28341
810.166	28204
810.308	28371
810.45	28261
810.591	28234
810.733	28093
810.875	28082
811.016	27812
811.158	27956
811.299	28181
811.441	28090
811.582	28287
811.724	28131
811.865	28181
812.007	28002
812.148	28048
812.29	28124
812.431	28181
812.573	28436
812.714	28508
812.855	28618
812.997	28531
813.138	28786
813.279	28649
813.421	28725
813.562	28569
813.703	28367
813.845	28386
813.986	28025
814.127	27869
814.268	27823
814.41	27778
814.551	27762
814.692	27907
814.833	27774
814.974	27762
815.115	27895
815.256	27675
815.397	27564
815.539	27641
815.68	27424
815.821	27610
815.962	27580
816.103	27542
816.244	27424
816.385	27447
816.526	27272
816.666	27207
816.807	26933
816.948	27195
817.089	27192
817.23	27127
817.371	27028
817.512	27036
817.653	27058
817.793	26982
817.934	27009
818.075	27127
818.216	27081
818.356	26960
818.497	26952
818.638	26731
818.778	26842
818.919	26880
819.06	26883
819.2	26868
819.341	27036
819.481	27020
819.622	27150
819.762	27386
819.903	27355
820.043	27195
820.184	27207
820.324	27127
820.465	27085
820.605	27176
820.746	27089
820.886	26986
821.026	27157
821.167	27001
821.307	27077
821.447	27169
821.588	26921
821.728	26853
821.868	26598
822.008	26568
822.149	26560
822.289	26453
822.429	26195
822.569	26202
822.709	26240
822.849	26145
822.99	26024
823.13	26096
823.27	25951
823.41	25738
823.55	25586
823.69	25894
823.83	25742
823.97	25803
824.11	25578
824.25	25548
824.389	25723
824.529	25753
824.669	25712
824.809	25852
824.949	25906
825.089	25769
825.228	25609
825.368	25491
825.508	25521
825.648	25514
825.787	25556
825.927	25708
826.067	25392
826.206	25510
826.346	25601
826.485	25548
826.625	25590
826.765	25677
826.904	25540
827.044	25381
827.183	25304
827.323	25206
827.462	25350
827.601	25164
827.741	25255
827.88	25240
828.02	25225
828.159	25217
828.298	25445
828.437	25244
828.577	25164
828.716	25255
828.855	25164
828.994	25008
829.134	24958
829.273	24928
829.412	24947
829.551	24871
829.69	24875
829.829	24920
829.968	25118
830.107	24913
830.246	25004
830.385	24871
830.524	24920
830.663	24829
830.802	24635
830.941	24517
831.08	24623
831.219	24741
831.357	24608
831.496	24760
831.635	24513
831.774	24490
831.913	24483
832.051	24391
832.19	24528
832.329	24483
832.467	24304
832.606	24171
832.744	24213
832.883	24289
833.022	24194
833.16	24178
833.299	24311
833.437	24353
833.576	24281
833.714	24254
833.852	24380
833.991	24369
834.129	24391
834.267	24296
834.406	24330
834.544	24296
834.682	24315
834.821	24323
834.959	24395
835.097	24220
835.235	24471
835.373	24285
835.511	24277
835.65	24011
835.788	24060
835.926	24155
836.064	23923
836.202	23961
836.34	24144
836.478	24277
836.615	24064
836.753	24064
836.891	24213
837.029	23980
837.167	23973
837.305	24068
837.443	23931
837.58	23965
837.718	24098
837.856	24003
837.993	24038
838.131	23935
838.269	24003
838.406	23916
838.544	23920
838.681	23615
838.819	23543
838.956	23440
839.094	23315
839.231	23501
839.369	23661
839.506	23802
839.643	23634
839.781	23478
839.918	23307
840.055	23391
840.193	23478
840.33	23341
840.467	23376
840.604	23372
840.742	23710
840.879	23181
841.016	23246
841.153	23311
841.29	23345
841.427	23368
841.564	23410
841.701	23307
841.838	23307
841.975	23242
842.112	23296
842.249	23227
842.385	23208
842.522	23337
842.659	23025
842.796	23159
842.933	23178
843.069	22949
843.206	23018
843.343	23151
843.479	23136
843.616	23151
843.752	22889
843.889	22873
844.025	23033
844.162	22953
844.298	22995
844.435	22797
844.571	22812
844.708	22972
844.844	23048
844.98	22984
845.117	23098
845.253	22839
845.389	22656
845.525	22782
845.661	22740
845.798	22462
845.934	22596
846.07	22596
846.206	22588
846.342	22706
846.478	22660
846.614	22432
846.75	22276
846.886	22329
847.022	22462
847.158	22405
847.294	22322
847.429	22375
847.565	22299
847.701	22649
847.837	22154
847.972	22158
848.108	22185
848.244	22169
848.379	22002
848.515	21994
848.65	21880
848.786	21983
848.921	21937
849.057	22013
849.192	21998
849.328	21983
849.463	21956
849.598	21770
849.734	21857
849.869	21781
850.004	21652
850.14	21720
850.275	21709
850.41	21622
850.545	21633
850.68	21667
850.815	21724
850.95	21545
851.085	21903
851.22	21736
851.355	21728
851.49	21675
851.625	21690
851.76	21732
851.895	21561
852.03	21511
852.165	21701
852.299	21751
852.434	21812
852.569	21762
852.703	21838
852.838	21679
852.973	21846
853.107	21846
853.242	21618
853.376	21507
853.511	21412
853.645	21595
853.78	21606
853.914	21500
854.048	21557
854.183	21599
854.317	21587
854.451	21728
854.585	21454
854.72	21553
854.854	21599
854.988	21526
855.122	21447
855.256	21325
855.39	21431
855.524	21511
855.658	21622
855.792	21595
855.926	21583
856.06	21466
856.194	21595
856.327	21424
856.461	21504
856.595	21534
856.729	21393
856.862	21698
856.996	21462
857.13	21553
857.263	21656
857.397	21534
857.53	21397
857.664	21469
857.797	21599
857.931	21599
858.064	21564
858.197	21580
858.331	21454
858.464	21374
858.597	21420
858.731	21576
858.864	21435
858.997	21355
859.13	21359
859.263	21553
859.396	21580
859.529	21466
859.662	21492
859.795	21485
859.928	21473
860.061	21496
860.194	21694
860.327	21549
860.46	21595
860.592	21671
860.725	21736
860.858	21583
860.99	21610
861.123	21420
861.256	21534
861.388	21603
861.521	22238
861.653	21382
861.786	21393
861.918	21389
862.05	21378
862.183	21530
862.315	21416
862.447	21538
862.58	21447
862.712	21218
862.844	21279
862.976	21275
863.108	21310
863.24	21576
863.372	21279
863.504	21260
863.636	21127
863.768	21252
863.9	21237
864.032	21077
864.164	21249
864.296	21203
864.428	21176
864.559	21123
864.691	21230
864.823	21173
864.954	21237
865.086	21161
865.217	21173
865.349	21024
865.48	21085
865.612	21077
865.743	21294
865.875	21051
866.006	20986
866.137	21173
866.269	21093
866.4	21047
866.531	21055
866.662	20967
866.793	20975
866.924	21074
867.055	21039
867.186	21104
867.317	20979
867.448	20998
867.579	20971
867.71	20929
867.841	20948
867.972	21005
868.103	20975
868.233	21116
868.364	21085
868.495	21081
868.625	21302
868.756	21302
868.886	21268
869.017	21325
869.147	21557
869.278	21439
869.408	21370
869.539	21169
869.669	21408
869.799	21287
869.929	21401
870.06	21428
870.19	21622
870.32	21519
870.45	21557
870.58	21591
870.71	21751
870.84	21781
870.97	21614
871.1	21675
871.23	21899
871.36	21816
871.489	21751
871.619	21888
871.749	21808
871.879	21892
872.008	21895
872.138	21895
872.267	21876
872.397	21720
872.526	21705
872.656	21618
872.785	21690
872.915	21922
873.044	21972
873.173	21960
873.303	21968
873.432	21838
873.561	21926
873.69	21854
873.819	21880
873.948	21956
874.077	21956
874.206	21869
874.335	21918
874.464	22051
874.593	22230
874.722	22029
874.851	22185
874.979	22169
875.108	22249
875.237	22078
875.365	21960
875.494	22021
875.623	22124
875.751	22078
875.88	22147
876.008	22242
876.136	22207
876.265	22527
876.393	22607
876.521	22489
876.65	22542
876.778	22485
876.906	22519
877.034	22424
877.162	22577
877.29	22291
877.418	22421
877.546	22535
877.674	22466
877.802	22402
877.93	22413
878.058	22341
878.185	22284
878.313	22398
878.441	22512
878.568	22379
878.696	22322
878.824	22424
878.951	22599
879.079	22664
879.206	22672
879.333	22653
879.461	22474
879.588	22443
879.715	22649
879.842	22691
879.97	22599
880.097	22348
880.224	22215
880.351	22371
880.478	22303
880.605	22219
880.732	22352
880.859	22409
880.986	22375
881.112	22234
881.239	22131
881.366	22063
881.493	22093
881.619	21964
881.746	21800
881.872	21907
881.999	21854
882.125	21907
882.252	21972
882.378	21762
882.505	21949
882.631	21652
882.757	21504
882.883	21549
883.01	21622
883.136	21477
883.262	21420
883.388	21401
883.514	21572
883.64	21606
883.766	21534
883.892	21393
884.018	21340
884.143	21405
884.269	21515
884.395	21298
884.52	21108
884.646	21127
884.772	21176
884.897	21017
885.023	21165
885.148	21218
885.274	21332
885.399	21275
885.524	21142
885.65	21279
885.775	21039
885.9	21180
886.025	21214
886.15	21275
886.275	21123
886.4	21173
886.525	21218
886.65	21157
886.775	21199
886.9	21252
887.025	21340
887.149	21085
887.274	21062
887.399	20925
887.523	21047
887.648	20899
887.773	20785
887.897	21047
888.021	20998
888.146	20883
888.27	20956
888.395	20979
888.519	21062
888.643	21146
888.767	21039
888.891	20902
889.015	20708
889.139	20724
889.263	20743
889.387	20876
889.511	20948
889.635	20819
889.759	20701
889.883	20701
890.006	20769
890.13	20929
890.254	20712
890.377	20727
890.501	20533
890.624	20434
890.748	20522
890.871	20427
890.995	20408
891.118	20248
891.241	20317
891.364	20374
891.488	20537
891.611	20309
891.734	20412
891.857	20351
891.98	20446
892.103	20385
892.226	20282
892.349	20221
892.471	20199
892.594	20092
892.717	20332
892.839	20130
892.962	20263
893.085	20313
893.207	20202
893.33	20122
893.452	20168
893.575	20294
893.697	20275
893.819	20442
893.941	20473
894.064	20393
894.186	20115
894.308	20031
894.43	20351
894.552	20347
894.674	20461
894.796	20027
894.918	20301
895.04	20199
895.161	20263
895.283	20187
895.405	20164
895.526	20240
895.648	20301
895.769	20275
895.891	20317
896.012	20271
896.134	20221
896.255	20317
896.376	20221
896.498	20286
896.619	20259
896.74	20199
896.861	20385
896.982	20545
897.103	20564
897.224	20492
897.345	20419
897.466	20256
897.587	20275
897.708	20530
897.828	20476
897.949	20370
898.07	20233
898.19	20434
898.311	20568
898.431	20320
898.552	20385
898.672	20533
898.792	20476
898.913	20503
899.033	20358
899.153	20259
899.273	20244
899.393	20092
899.513	20278
899.633	20286
899.753	20161
899.873	20126
899.993	20271
900.113	20088
900.232	20176
900.352	20016
900.472	19967
900.591	19894
900.711	20111
900.83	19864
900.95	20065
901.069	20069
901.189	19944
901.308	19563
901.427	19616
901.546	19502
901.665	19464
901.784	19449
901.904	19392
902.023	19293
902.141	19141
902.26	19236
902.379	19034
902.498	19133
902.617	18966
902.735	19004
902.854	19012
902.973	18901
903.091	18798
903.21	18760
903.328	18776
903.446	18635
903.565	18509
903.683	18475
903.801	18467
903.919	18506
904.038	18464
904.156	18235
904.274	18388
904.392	18285
904.51	18289
904.627	18308
904.745	18266
904.863	18384
904.981	18079
905.098	18019
905.216	17950
905.334	18034
905.451	18034
905.569	18087
905.686	18064
905.803	17889
905.921	17718
906.038	17809
906.155	17760
906.272	17726
906.389	17646
906.506	17497
906.623	17528
906.74	17532
906.857	17326
906.974	17395
907.091	17566
907.208	17630
907.324	17547
907.441	17330
907.557	17204
907.674	17117
907.79	17029
907.907	17140
908.023	17299
908.139	17239
908.256	17197
908.372	17045
908.488	17136
908.604	17037
908.72	16854
908.836	16930
908.952	16908
909.068	16866
909.184	16980
909.3	16843
909.415	16957
909.531	16809
909.647	16801
909.762	16645
909.878	16584
909.993	16550
910.108	16611
910.224	16580
910.339	16641
910.454	16443
910.57	16500
910.685	16375
910.8	16538
910.915	16580
911.03	16436
911.145	16333
911.259	16268
911.374	16257
911.489	16204
911.604	16048
911.718	15979
911.833	16055
911.947	15789
912.062	15778
912.176	15960
912.291	15964
912.405	15953
912.519	16185
912.633	16226
912.748	15979
912.862	15861
912.976	15724
913.09	15701
913.204	15869
913.318	15854
913.431	15865
913.545	15816
913.659	15979
913.772	15679
913.886	15641
914	15629
914.113	15637
914.226	15705
914.34	15637
914.453	15458
914.566	15671
914.68	15424
914.793	15485
914.906	15180
915.019	15264
915.132	15119
915.245	15188
915.358	15214
915.47	15165
915.583	15256
915.696	15192
915.809	15252
915.921	15226
916.034	15119
916.146	15131
916.259	15062
916.371	15173
916.483	15211
916.595	15028
916.708	15116
916.82	15020
916.932	14880
917.044	14986
917.156	14967
917.268	14819
917.38	14864
917.491	14842
917.603	14868
917.715	14895
917.826	14975
917.938	14781
918.049	14739
918.161	14785
918.272	14842
918.384	14910
918.495	14785
918.606	14689
918.717	14533
918.828	14621
918.939	14674
919.05	14522
919.161	14606
919.272	14461
919.383	14514
919.494	14598
919.604	14773
919.715	14697
919.826	14434
919.936	14541
920.047	14499
920.157	14610
920.267	14708
920.378	14598
920.488	14514
920.598	14739
920.708	14773
920.818	14682
920.928	14754
921.038	14876
921.148	14800
921.258	14461
921.368	14423
921.477	14347
921.587	14259
921.697	14195
921.806	14294
921.916	14176
922.025	14050
922.134	13986
922.244	13928
922.353	13974
922.462	13921
922.571	13814
922.68	13651
922.789	13552
922.898	13609
923.007	13525
923.116	13556
923.224	13609
923.333	13411
923.442	13430
923.55	13483
923.659	13468
923.767	13445
923.876	13369
923.984	13426
924.092	13285
924.201	13247
924.309	13327
924.417	13202
924.525	13179
924.633	13244
924.741	14024
924.849	13065
924.956	13209
925.064	13042
925.172	12958
925.279	12916
925.387	13061
925.494	13019
925.602	13053
925.709	13023
925.816	12859
925.924	12924
926.031	12985
926.138	12970
926.245	12977
926.352	12905
926.459	12947
926.566	12958
926.673	12886
926.779	12779
926.886	12730
926.993	12665
927.099	12563
927.206	12494
927.312	12479
927.419	12646
927.525	12604
927.631	12525
927.737	12429
927.843	12479
927.95	12300
928.056	12323
928.162	12353
928.267	12407
928.373	12985
928.479	12486
928.585	12232
928.69	12334
928.796	12391
928.901	12281
929.007	12106
929.112	12201
929.218	12216
929.323	12076
929.428	12110
929.533	12216
929.638	11999
929.743	12064
929.848	12095
929.953	12060
930.058	12015
930.163	11756
930.267	11775
930.372	11988
930.477	11741
930.581	11984
930.685	11809
930.79	11745
930.894	11695
930.998	11581
931.103	11764
931.207	11440
931.311	11349
931.415	11189
931.519	11003
931.623	10961
