Data from test_V78500241_3026.txt Node
Date: Fri Mar 25 15:30:55 CST 2022
User: usil
Spectrometer: V785-0024
Trigger mode: 0
Integration Time (sec): 4.000000E-1
Scans to average: 1
Nonlinearity correction enabled: false
Boxcar width: 0
Storing dark spectrum: false
XAxis mode: Wavelengths
Number of Pixels in Spectrum: 1024
>>>>>Begin Spectral Data<<<<<
801.071	27252
801.214	27226
801.356	26918
801.499	26804
801.641	26686
801.783	26758
801.926	26788
802.068	26606
802.211	26625
802.353	26629
802.496	26469
802.638	26412
802.78	26195
802.923	26393
803.065	26294
803.208	26328
803.35	26343
803.492	26507
803.635	26613
803.777	26431
803.919	26511
804.061	26872
804.204	26629
804.346	26434
804.488	26347
804.63	26453
804.773	26408
804.915	26583
805.057	26606
805.199	26412
805.341	26587
805.483	26735
805.626	26655
805.768	26450
805.91	26571
806.052	26743
806.194	26602
806.336	26830
806.478	26636
806.62	26754
806.762	26762
806.904	26811
807.046	27100
807.188	27108
807.33	27112
807.472	27112
807.614	27062
807.756	27173
807.898	26979
808.04	26819
808.182	26883
808.324	26864
808.465	26998
808.607	27188
808.749	27283
808.891	27355
809.033	27355
809.174	27329
809.316	27291
809.458	27226
809.6	27207
809.741	27211
809.883	27321
810.025	27530
810.166	27576
810.308	27572
810.45	27538
810.591	27564
810.733	27256
810.875	27317
811.016	27207
811.158	27142
811.299	27363
811.441	27427
811.582	27351
811.724	27374
811.865	27165
812.007	27180
812.148	27062
812.29	27093
812.431	27367
812.573	27504
812.714	27583
812.855	27606
812.997	27884
813.138	27899
813.279	27762
813.421	27755
813.562	27717
813.703	27557
813.845	27591
813.986	27161
814.127	27032
814.268	26906
814.41	26849
814.551	26804
814.692	27039
814.833	26868
814.974	26868
815.115	26914
815.256	26849
815.397	26899
815.539	26712
815.68	26693
815.821	26697
815.962	26640
816.103	26594
816.244	26545
816.385	26533
816.526	26377
816.666	26324
816.807	26161
816.948	26309
817.089	26149
817.23	26183
817.371	26111
817.512	26081
817.653	26020
817.793	26088
817.934	26172
818.075	26039
818.216	26096
818.356	26221
818.497	26012
818.638	25906
818.778	25917
818.919	25966
819.06	25925
819.2	25982
819.341	26126
819.481	26012
819.622	26271
819.762	26427
819.903	26309
820.043	26370
820.184	26286
820.324	26252
820.465	26218
820.605	26263
820.746	26229
820.886	26005
821.026	26301
821.167	26244
821.307	26153
821.447	26214
821.588	26035
821.728	25951
821.868	25651
822.008	25647
822.149	25350
822.289	25483
822.429	25244
822.569	25388
822.709	25190
822.849	25126
822.99	25247
823.13	25012
823.27	25023
823.41	24844
823.55	24749
823.69	24992
823.83	24954
823.97	24981
824.11	24730
824.25	24707
824.389	24760
824.529	24848
824.669	24730
824.809	24932
824.949	24711
825.089	24768
825.228	24802
825.368	24601
825.508	24585
825.648	24589
825.787	24604
825.927	24661
826.067	24544
826.206	24563
826.346	24646
826.485	24722
826.625	24475
826.765	24719
826.904	24719
827.044	24357
827.183	24418
827.323	24232
827.462	24296
827.601	24270
827.741	24247
827.88	24243
828.02	24319
828.159	24304
828.298	24330
828.437	24342
828.577	24247
828.716	24391
828.855	24136
828.994	23977
829.134	23824
829.273	24079
829.412	23935
829.551	23939
829.69	23954
829.829	24152
829.968	24041
830.107	23969
830.246	24121
830.385	24049
830.524	23923
830.663	23794
830.802	23760
830.941	23661
831.08	23653
831.219	23665
831.357	23611
831.496	23726
831.635	23722
831.774	23505
831.913	23505
832.051	23277
832.19	23455
832.329	23425
832.467	23379
832.606	23143
832.744	23216
832.883	23227
833.022	23235
833.16	23372
833.299	23303
833.437	23189
833.576	23326
833.714	23391
833.852	23440
833.991	23368
834.129	23417
834.267	23429
834.406	23425
834.544	23326
834.682	23353
834.821	23223
834.959	23554
835.097	23254
835.235	23334
835.373	23220
835.511	23360
835.65	23105
835.788	23216
835.926	23014
836.064	22991
836.202	23014
836.34	23200
836.478	23280
836.615	23143
836.753	23299
836.891	23185
837.029	23181
837.167	23117
837.305	23071
837.443	23056
837.58	22972
837.718	23128
837.856	23006
837.993	22847
838.131	23003
838.269	22869
838.406	22938
838.544	22797
838.681	22691
838.819	22626
838.956	22546
839.094	22615
839.231	22485
839.369	22717
839.506	22839
839.643	22725
839.781	22470
839.918	22440
840.055	22584
840.193	22440
840.33	22360
840.467	22417
840.604	22428
840.742	22790
840.879	22265
841.016	22382
841.153	22371
841.29	22603
841.427	22402
841.564	22485
841.701	22363
841.838	22417
841.975	22284
842.112	22382
842.249	22367
842.385	22211
842.522	22542
842.659	22230
842.796	22139
842.933	22162
843.069	22059
843.206	22242
843.343	22185
843.479	22158
843.616	22246
843.752	21975
843.889	22029
844.025	22025
844.162	21892
844.298	21991
844.435	21983
844.571	21945
844.708	22032
844.844	22128
844.98	22025
845.117	22147
845.253	21926
845.389	21819
845.525	21797
845.661	21728
845.798	21682
845.934	21793
846.07	21591
846.206	21679
846.342	21823
846.478	21633
846.614	21614
846.75	21549
846.886	21447
847.022	21450
847.158	21435
847.294	21488
847.429	21511
847.565	21340
847.701	21561
847.837	21131
847.972	21230
848.108	21214
848.244	21218
848.379	21070
848.515	21024
848.65	21039
848.786	20998
848.921	21116
849.057	21214
849.192	21138
849.328	21135
849.463	21024
849.598	21005
849.734	20845
849.869	20819
850.004	20781
850.14	20838
850.275	20842
850.41	20861
850.545	20781
850.68	20758
850.815	20746
850.95	20735
851.085	20982
851.22	20895
851.355	20864
851.49	20864
851.625	20792
851.76	20629
851.895	20613
852.03	20663
852.165	20758
852.299	20819
852.434	20796
852.569	20796
852.703	20746
852.838	20830
852.973	20819
853.107	20925
853.242	20800
853.376	20556
853.511	20446
853.645	20537
853.78	20807
853.914	20564
854.048	20568
854.183	20564
854.317	20613
854.451	20842
854.585	20568
854.72	20594
854.854	20731
854.988	20594
855.122	20568
855.256	20522
855.39	20629
855.524	20682
855.658	20773
855.792	20716
855.926	20602
856.06	20602
856.194	20743
856.327	20727
856.461	20579
856.595	20590
856.729	20560
856.862	20708
856.996	20648
857.13	20617
857.263	20674
857.397	20792
857.53	20644
857.664	20682
857.797	20792
857.931	20826
858.064	20735
858.197	20773
858.331	20632
858.464	20602
858.597	20518
858.731	20564
858.864	20507
858.997	20526
859.13	20667
859.263	20625
859.396	20689
859.529	20590
859.662	20609
859.795	20579
859.928	20461
860.061	20663
860.194	20785
860.327	20701
860.46	20545
860.592	20777
860.725	20708
860.858	20686
860.99	20697
861.123	20606
861.256	20488
861.388	20632
861.521	21279
861.653	20488
861.786	20381
861.918	20438
862.05	20438
862.183	20495
862.315	20549
862.447	20716
862.58	20450
862.712	20332
862.844	20278
862.976	20423
863.108	20370
863.24	20868
863.372	20221
863.504	20294
863.636	20263
863.768	20313
863.9	20419
864.032	20206
864.164	20290
864.296	20313
864.428	20438
864.559	20434
864.691	20404
864.823	20309
864.954	20328
865.086	20180
865.217	20240
865.349	20176
865.48	20290
865.612	20172
865.743	20374
865.875	20172
866.006	20206
866.137	20225
866.269	20225
866.4	20077
866.531	20199
866.662	20199
866.793	20130
866.924	20081
867.055	20324
867.186	20157
867.317	20115
867.448	20202
867.579	20092
867.71	20202
867.841	20092
867.972	20221
868.103	20161
868.233	20073
868.364	20248
868.495	20317
868.625	20377
868.756	20473
868.886	20271
869.017	20404
869.147	20514
869.278	20526
869.408	20351
869.539	20393
869.669	20446
869.799	20473
869.929	20530
870.06	20484
870.19	20731
870.32	20670
870.45	20800
870.58	20830
870.71	21032
870.84	20963
870.97	20826
871.1	20826
871.23	20864
871.36	20975
871.489	20937
871.619	20937
871.749	20933
871.879	21001
872.008	21199
872.138	20986
872.267	21192
872.397	20845
872.526	20864
872.656	20872
872.785	20815
872.915	21001
873.044	21135
873.173	20956
873.303	21081
873.432	21104
873.561	21112
873.69	20868
873.819	21001
873.948	21146
874.077	21070
874.206	20887
874.335	21020
874.464	21226
874.593	21237
874.722	21184
874.851	21370
874.979	21241
875.108	21393
875.237	21211
875.365	21081
875.494	21287
875.623	21291
875.751	21226
875.88	21245
876.008	21412
876.136	21477
876.265	21686
876.393	21759
876.521	21895
876.65	21778
876.778	21804
876.906	21667
877.034	21720
877.162	21686
877.29	21530
877.418	21564
877.546	21785
877.674	21603
877.802	21682
877.93	21614
878.058	21523
878.185	21431
878.313	21538
878.441	21580
878.568	21370
878.696	21648
878.824	21599
878.951	21747
879.079	21812
879.206	22032
879.333	21762
879.461	21747
879.588	21762
879.715	21835
879.842	21789
879.97	21675
880.097	21431
880.224	21450
880.351	21424
880.478	21500
880.605	21454
880.732	21549
880.859	21736
880.986	21401
881.112	21530
881.239	21386
881.366	21123
881.493	21116
881.619	21108
881.746	21047
881.872	21089
881.999	20880
882.125	20967
882.252	21077
882.378	21020
882.505	21096
882.631	20960
882.757	20834
882.883	20967
883.01	20804
883.136	20765
883.262	20507
883.388	20629
883.514	20891
883.64	20834
883.766	20632
883.892	20571
884.018	20682
884.143	20826
884.269	20842
884.395	20541
884.52	20377
884.646	20408
884.772	20415
884.897	20328
885.023	20271
885.148	20518
885.274	20545
885.399	20507
885.524	20583
885.65	20442
885.775	20434
885.9	20278
886.025	20526
886.15	20492
886.275	20374
886.4	20381
886.525	20324
886.65	20396
886.775	20370
886.9	20575
887.025	20648
887.149	20377
887.274	20263
887.399	20172
887.523	20240
887.648	20157
887.773	20100
887.897	20377
888.021	20199
888.146	20214
888.27	20374
888.395	20336
888.519	20176
888.643	20290
888.767	20210
888.891	20103
889.015	19955
889.139	19982
889.263	19982
889.387	20069
889.511	20145
889.635	20119
889.759	19944
889.883	19940
890.006	19864
890.13	20130
890.254	19955
890.377	19906
890.501	19655
890.624	19731
890.748	19742
890.871	19658
890.995	19510
891.118	19438
891.241	19586
891.364	19712
891.488	19632
891.611	19594
891.734	19651
891.857	19575
891.98	19597
892.103	19655
892.226	19578
892.349	19445
892.471	19419
892.594	19514
892.717	19635
892.839	19460
892.962	19441
893.085	19518
893.207	19430
893.33	19377
893.452	19403
893.575	19453
893.697	19457
893.819	19651
893.941	19628
894.064	19609
894.186	19407
894.308	19434
894.43	19651
894.552	19624
894.674	19594
894.796	19590
894.918	19441
895.04	19457
895.161	19563
895.283	19540
895.405	19495
895.526	19483
895.648	19518
895.769	19441
895.891	19609
896.012	19563
896.134	19502
896.255	19533
896.376	19415
896.498	19464
896.619	19548
896.74	19510
896.861	19384
896.982	19871
897.103	19959
897.224	19849
897.345	19769
897.466	19712
897.587	19689
897.708	19841
897.828	19841
897.949	19734
898.07	19628
898.19	19658
898.311	19772
898.431	19609
898.552	19776
898.672	19830
898.792	19913
898.913	19776
899.033	19571
899.153	19620
899.273	19457
899.393	19613
899.513	19601
899.633	19567
899.753	19487
899.873	19468
899.993	19540
900.113	19426
900.232	19476
900.352	19453
900.472	19354
900.591	19274
900.711	19304
900.83	19225
900.95	19362
901.069	19308
901.189	19141
901.308	18947
901.427	18844
901.546	18871
901.665	18894
901.784	18875
901.904	18814
902.023	18627
902.141	18502
902.26	18445
902.379	18464
902.498	18433
902.617	18327
902.735	18555
902.854	18380
902.973	18353
903.091	18117
903.21	18053
903.328	18182
903.446	18060
903.565	17847
903.683	17828
903.801	17775
903.919	17885
904.038	17843
904.156	17684
904.274	17771
904.392	17589
904.51	17551
904.627	17676
904.745	17718
904.863	17874
904.981	17463
905.098	17345
905.216	17307
905.334	17383
905.451	17303
905.569	17258
905.686	17353
905.803	17414
905.921	17200
906.038	17254
906.155	17181
906.272	17029
906.389	16995
906.506	16889
906.623	16858
906.74	16957
906.857	16820
906.974	16843
907.091	17014
907.208	16972
907.324	16885
907.441	16809
907.557	16668
907.674	16592
907.79	16527
907.907	16497
908.023	16558
908.139	16546
908.256	16504
908.372	16443
908.488	16462
908.604	16379
908.72	16246
908.836	16314
908.952	16348
909.068	16363
909.184	16402
909.3	16257
909.415	16303
909.531	16310
909.647	16109
909.762	15979
909.878	16055
909.993	16036
910.108	15903
910.224	15953
910.339	15968
910.454	15937
910.57	15873
910.685	15804
910.8	15915
910.915	16002
911.03	15838
911.145	15709
911.259	15595
911.374	15637
911.489	15553
911.604	15610
911.718	15374
911.833	15534
911.947	15332
912.062	15184
912.176	15298
912.291	15443
912.405	15500
912.519	15492
912.633	15545
912.748	15401
912.862	15363
912.976	15306
913.09	15104
913.204	15165
913.318	15203
913.431	15359
913.545	15218
913.659	15424
913.772	15268
913.886	14994
914	15020
914.113	15119
914.226	15176
914.34	15112
914.453	14876
914.566	15043
914.68	14834
914.793	14842
914.906	14640
915.019	14705
915.132	14537
915.245	14571
915.358	14674
915.47	14617
915.583	14579
915.696	14640
915.809	14697
915.921	14754
916.034	14507
916.146	14560
916.259	14503
916.371	14587
916.483	14674
916.595	14412
916.708	14476
916.82	14473
916.932	14404
917.044	14465
917.156	14446
917.268	14233
917.38	14351
917.491	14358
917.603	14309
917.715	14370
917.826	14324
917.938	14183
918.049	14142
918.161	14199
918.272	14370
918.384	14313
918.495	14206
918.606	14123
918.717	14073
918.828	14046
918.939	14062
919.05	13932
919.161	14103
919.272	13807
919.383	13970
919.494	14077
919.604	14225
919.715	14031
919.826	13909
919.936	13921
920.047	14119
920.157	14050
920.267	14225
920.378	14005
920.488	13970
920.598	14199
920.708	14240
920.818	14164
920.928	14130
921.038	14233
921.148	14282
921.258	13993
921.368	13883
921.477	13894
921.587	13742
921.697	13624
921.806	13807
921.916	13696
922.025	13521
922.134	13472
922.244	13491
922.353	13491
922.462	13297
922.571	13232
922.68	13118
922.789	13031
922.898	13076
923.007	13133
923.116	12977
923.224	13015
923.333	12985
923.442	12981
923.55	12901
923.659	12897
923.767	12993
923.876	12871
923.984	12985
924.092	12776
924.201	12840
924.309	12825
924.417	12890
924.525	12802
924.633	12772
924.741	13605
924.849	12570
924.956	12760
925.064	12551
925.172	12547
925.279	12555
925.387	12597
925.494	12471
925.602	12623
925.709	12673
925.816	12361
925.924	12471
926.031	12635
926.138	12460
926.245	12521
926.352	12357
926.459	12471
926.566	12566
926.673	12407
926.779	12327
926.886	12372
926.993	12171
927.099	12178
927.206	12060
927.312	12087
927.419	12190
927.525	12155
927.631	12076
927.737	12060
927.843	11977
927.95	11920
928.056	11916
928.162	12007
928.267	11984
928.373	12612
928.479	12083
928.585	11798
928.69	11923
928.796	11999
928.901	11805
929.007	11661
929.112	11794
929.218	11699
929.323	11737
929.428	11646
929.533	11882
929.638	11634
929.743	11604
929.848	11680
929.953	11608
930.058	11486
930.163	11417
930.267	11425
930.372	11551
930.477	11364
930.581	11570
930.685	11486
930.79	11189
930.894	11288
930.998	11208
931.103	11452
931.207	11022
931.311	10953
931.415	10885
931.519	10668
931.623	10615
