Data from test_V78500241_607.txt Node
Date: Fri Mar 25 15:14:05 CST 2022
User: usil
Spectrometer: V785-0024
Trigger mode: 0
Integration Time (sec): 4.000000E-1
Scans to average: 1
Nonlinearity correction enabled: false
Boxcar width: 0
Storing dark spectrum: false
XAxis mode: Wavelengths
Number of Pixels in Spectrum: 1024
>>>>>Begin Spectral Data<<<<<
801.071	27488
801.214	27591
801.356	27195
801.499	27157
801.641	27317
801.783	27180
801.926	27055
802.068	27154
802.211	27024
802.353	26960
802.496	26800
802.638	26769
802.78	26678
802.923	26872
803.065	26697
803.208	26727
803.35	26743
803.492	26868
803.635	26933
803.777	26838
803.919	26940
804.061	27131
804.204	26986
804.346	26975
804.488	26800
804.63	26944
804.773	26815
804.915	26918
805.057	27024
805.199	26918
805.341	27009
805.483	27180
805.626	27024
805.768	27020
805.91	27108
806.052	27116
806.194	26975
806.336	27173
806.478	27135
806.62	27043
806.762	27241
806.904	27389
807.046	27618
807.188	27526
807.33	27496
807.472	27439
807.614	27515
807.756	27500
807.898	27378
808.04	27268
808.182	27150
808.324	27382
808.465	27427
808.607	27504
808.749	27625
808.891	27694
809.033	27865
809.174	27850
809.316	27675
809.458	27838
809.6	27720
809.741	27812
809.883	27914
810.025	27991
810.166	28010
810.308	27964
810.45	27895
810.591	27953
810.733	27778
810.875	27812
811.016	27610
811.158	27595
811.299	27827
811.441	28013
811.582	27930
811.724	27762
811.865	27804
812.007	27739
812.148	27599
812.29	27644
812.431	27797
812.573	28154
812.714	28158
812.855	28185
812.997	28466
813.138	28459
813.279	28512
813.421	28337
813.562	28261
813.703	28051
813.845	27865
813.986	27717
814.127	27519
814.268	27462
814.41	27393
814.551	27359
814.692	27405
814.833	27195
814.974	27321
815.115	27488
815.256	27275
815.397	27355
815.539	27195
815.68	27066
815.821	27173
815.962	27256
816.103	27184
816.244	27100
816.385	26994
816.526	26914
816.666	26724
816.807	26636
816.948	26781
817.089	26746
817.23	26705
817.371	26708
817.512	26640
817.653	26495
817.793	26872
817.934	26667
818.075	26659
818.216	26617
818.356	26537
818.497	26556
818.638	26415
818.778	26465
818.919	26400
819.06	26507
819.2	26404
819.341	26541
819.481	26659
819.622	26826
819.762	27020
819.903	26921
820.043	26986
820.184	26826
820.324	26682
820.465	26663
820.605	26705
820.746	26750
820.886	26560
821.026	26800
821.167	26674
821.307	26823
821.447	26613
821.588	26693
821.728	26579
821.868	26343
822.008	26176
822.149	26168
822.289	26214
822.429	25833
822.569	25780
822.709	25719
822.849	25578
822.99	25601
823.13	25681
823.27	25601
823.41	25419
823.55	25384
823.69	25518
823.83	25575
823.97	25453
824.11	25358
824.25	25202
824.389	25255
824.529	25411
824.669	25293
824.809	25502
824.949	25491
825.089	25270
825.228	25297
825.368	25141
825.508	25114
825.648	25168
825.787	25164
825.927	25114
826.067	25168
826.206	25209
826.346	25183
826.485	25202
826.625	25103
826.765	25285
826.904	25179
827.044	24977
827.183	24989
827.323	24806
827.462	24837
827.601	24833
827.741	24878
827.88	24920
828.02	24635
828.159	24856
828.298	24939
828.437	24894
828.577	24730
828.716	24882
828.855	24795
828.994	24536
829.134	24593
829.273	24696
829.412	24593
829.551	24414
829.69	24570
829.829	24536
829.968	24715
830.107	24597
830.246	24494
830.385	24475
830.524	24418
830.663	24448
830.802	24254
830.941	24239
831.08	24026
831.219	24197
831.357	24216
831.496	24467
831.635	24197
831.774	24053
831.913	24129
832.051	24087
832.19	23923
832.329	24076
832.467	23893
832.606	23802
832.744	23912
832.883	23794
833.022	23741
833.16	23923
833.299	23863
833.437	23920
833.576	23958
833.714	24038
833.852	24102
833.991	23996
834.129	23927
834.267	24095
834.406	23961
834.544	24117
834.682	23904
834.821	23851
834.959	24015
835.097	23882
835.235	23999
835.373	23923
835.511	23882
835.65	23885
835.788	23707
835.926	23718
836.064	23661
836.202	23554
836.34	23828
836.478	23805
836.615	23771
836.753	23832
836.891	23802
837.029	23764
837.167	23802
837.305	23809
837.443	23627
837.58	23516
837.718	23623
837.856	23672
837.993	23482
838.131	23790
838.269	23471
838.406	23608
838.544	23455
838.681	23273
838.819	23288
838.956	23060
839.094	23075
839.231	23121
839.369	23261
839.506	23493
839.643	23261
839.781	23067
839.918	22946
840.055	23136
840.193	23166
840.33	22949
840.467	23048
840.604	23006
840.742	23364
840.879	22820
841.016	22858
841.153	22968
841.29	23022
841.427	22923
841.564	23041
841.701	22923
841.838	23060
841.975	23003
842.112	22942
842.249	22889
842.385	22645
842.522	22938
842.659	22881
842.796	22721
842.933	22767
843.069	22786
843.206	22790
843.343	22702
843.479	22850
843.616	22790
843.752	22569
843.889	22664
844.025	22649
844.162	22596
844.298	22527
844.435	22493
844.571	22504
844.708	22573
844.844	22641
844.98	22748
845.117	22626
845.253	22478
845.389	22428
845.525	22428
845.661	22390
845.798	22306
845.934	22360
846.07	22299
846.206	22226
846.342	22428
846.478	22196
846.614	22120
846.75	21968
846.886	22070
847.022	22051
847.158	22021
847.294	22112
847.429	22074
847.565	21953
847.701	22086
847.837	21831
847.972	21667
848.108	21785
848.244	21804
848.379	21583
848.515	21644
848.65	21686
848.786	21587
848.921	21485
849.057	21743
849.192	21652
849.328	21671
849.463	21545
849.598	21557
849.734	21443
849.869	21447
850.004	21386
850.14	21428
850.275	21370
850.41	21321
850.545	21233
850.68	21374
850.815	21260
850.95	21374
851.085	21450
851.22	21428
851.355	21439
851.49	21348
851.625	21310
851.76	21428
851.895	21317
852.03	21180
852.165	21462
852.299	21511
852.434	21408
852.569	21473
852.703	21340
852.838	21302
852.973	21587
853.107	21526
853.242	21272
853.376	21169
853.511	21039
853.645	21199
853.78	21260
853.914	21157
854.048	21108
854.183	21108
854.317	21195
854.451	21447
854.585	21195
854.72	21268
854.854	21245
854.988	21123
855.122	21199
855.256	21096
855.39	21306
855.524	21272
855.658	21332
855.792	21112
855.926	21245
856.06	21359
856.194	21268
856.327	21211
856.461	21017
856.595	21173
856.729	21195
856.862	21279
856.996	21184
857.13	21272
857.263	21294
857.397	21256
857.53	21165
857.664	21332
857.797	21142
857.931	21325
858.064	21211
858.197	21241
858.331	21256
858.464	21089
858.597	21058
858.731	21241
858.864	21188
858.997	21173
859.13	21226
859.263	21199
859.396	21279
859.529	21161
859.662	21135
859.795	21047
859.928	21131
860.061	21386
860.194	21439
860.327	21317
860.46	21249
860.592	21306
860.725	21420
860.858	21279
860.99	21241
861.123	21131
861.256	21081
861.388	21199
861.521	22082
861.653	21176
861.786	21055
861.918	21001
862.05	21028
862.183	21096
862.315	21127
862.447	21169
862.58	21085
862.712	20815
862.844	20861
862.976	21081
863.108	20948
863.24	21306
863.372	20861
863.504	20921
863.636	20838
863.768	20891
863.9	20887
864.032	20769
864.164	20845
864.296	21020
864.428	20963
864.559	21024
864.691	20956
864.823	20853
864.954	20781
865.086	20921
865.217	20785
865.349	20682
865.48	20743
865.612	20815
865.743	20792
865.875	20727
866.006	20731
866.137	20731
866.269	20796
866.4	20697
866.531	20785
866.662	20716
866.793	20701
866.924	20716
867.055	20781
867.186	20689
867.317	20769
867.448	20651
867.579	20686
867.71	20644
867.841	20689
867.972	20655
868.103	20674
868.233	20819
868.364	20651
868.495	20727
868.625	20998
868.756	21070
868.886	20975
869.017	20906
869.147	20994
869.278	20998
869.408	20899
869.539	20963
869.669	21013
869.799	21089
869.929	21062
870.06	21070
870.19	21329
870.32	21157
870.45	21291
870.58	21325
870.71	21370
870.84	21500
870.97	21367
871.1	21412
871.23	21561
871.36	21618
871.489	21443
871.619	21496
871.749	21568
871.879	21694
872.008	21637
872.138	21530
872.267	21458
872.397	21408
872.526	21397
872.656	21283
872.785	21511
872.915	21496
873.044	21656
873.173	21679
873.303	21553
873.432	21614
873.561	21698
873.69	21671
873.819	21641
873.948	21629
874.077	21610
874.206	21534
874.335	21466
874.464	21686
874.593	21774
874.722	21800
874.851	21892
874.979	21934
875.108	21835
875.237	21846
875.365	21656
875.494	21759
875.623	21785
875.751	21629
875.88	21804
876.008	22048
876.136	21972
876.265	22112
876.393	22337
876.521	22310
876.65	22344
876.778	22325
876.906	22101
877.034	22124
877.162	22249
877.29	22048
877.418	22139
877.546	22181
877.674	22086
877.802	22040
877.93	22185
878.058	22112
878.185	22025
878.313	22059
878.441	22086
878.568	21994
878.696	22082
878.824	22234
878.951	22246
879.079	22409
879.206	22466
879.333	22242
879.461	22226
879.588	22284
879.715	22306
879.842	22573
879.97	22173
880.097	21972
880.224	21899
880.351	21915
880.478	21850
880.605	21884
880.732	21922
880.859	22246
880.986	21903
881.112	21945
881.239	21987
881.366	21785
881.493	21648
881.619	21549
881.746	21568
881.872	21637
881.999	21485
882.125	21530
882.252	21580
882.378	21504
882.505	21675
882.631	21348
882.757	21256
882.883	21291
883.01	21317
883.136	21294
883.262	21184
883.388	20960
883.514	21310
883.64	21252
883.766	21104
883.892	21081
884.018	21066
884.143	21150
884.269	21359
884.395	20982
884.52	20891
884.646	20944
884.772	20910
884.897	20769
885.023	20929
885.148	21005
885.274	21138
885.399	21108
885.524	20895
885.65	20960
885.775	20933
885.9	20899
886.025	20979
886.15	20979
886.275	20925
886.4	20857
886.525	20743
886.65	20834
886.775	20785
886.9	21055
887.025	21123
887.149	20842
887.274	20785
887.399	20705
887.523	20644
887.648	20564
887.773	20602
887.897	20689
888.021	20777
888.146	20587
888.27	20792
888.395	20765
888.519	20769
888.643	20625
888.767	20636
888.891	20625
889.015	20434
889.139	20473
889.263	20465
889.387	20583
889.511	20739
889.635	20568
889.759	20473
889.883	20469
890.006	20438
890.13	20602
890.254	20412
890.377	20408
890.501	20339
890.624	20225
890.748	20374
890.871	20020
890.995	20031
891.118	19936
891.241	20020
891.364	20020
891.488	20107
891.611	20111
891.734	20035
891.857	19997
891.98	20043
892.103	20012
892.226	20092
892.349	19997
892.471	19883
892.594	19974
892.717	20001
892.839	19986
892.962	19921
893.085	19970
893.207	19989
893.33	19849
893.452	19932
893.575	19940
893.697	19898
893.819	20111
893.941	20134
894.064	20092
894.186	19967
894.308	19955
894.43	20035
894.552	20161
894.674	20024
894.796	19750
894.918	19955
895.04	19913
895.161	19913
895.283	20012
895.405	19837
895.526	19978
895.648	19940
895.769	19951
895.891	20012
896.012	20065
896.134	19997
896.255	19925
896.376	19856
896.498	19978
896.619	19955
896.74	19826
896.861	19936
896.982	20347
897.103	20404
897.224	20286
897.345	20187
897.466	20016
897.587	20138
897.708	20252
897.828	20145
897.949	20134
898.07	19947
898.19	19963
898.311	20176
898.431	20225
898.552	20145
898.672	20313
898.792	20256
898.913	20233
899.033	20103
899.153	19890
899.273	19803
899.393	19902
899.513	19944
899.633	19921
899.753	19913
899.873	19887
899.993	19928
900.113	19811
900.232	19791
900.352	19879
900.472	19750
900.591	19704
900.711	19742
900.83	19670
900.95	19856
901.069	19738
901.189	19563
901.308	19422
901.427	19289
901.546	19343
901.665	19217
901.784	19240
901.904	19168
902.023	19091
902.141	18909
902.26	18844
902.379	18844
902.498	18814
902.617	18776
902.735	18779
902.854	18817
902.973	18757
903.091	18525
903.21	18479
903.328	18464
903.446	18376
903.565	18388
903.683	18254
903.801	18228
903.919	18216
904.038	18205
904.156	18019
904.274	18057
904.392	18098
904.51	17973
904.627	18019
904.745	18015
904.863	18083
904.981	17885
905.098	17634
905.216	17783
905.334	17699
905.451	17741
905.569	17684
905.686	17805
905.803	17661
905.921	17604
906.038	17433
906.155	17516
906.272	17452
906.389	17421
906.506	17315
906.623	17299
906.74	17242
906.857	17128
906.974	17170
907.091	17379
907.208	17360
907.324	17261
907.441	17121
907.557	17010
907.674	17045
907.79	16877
907.907	16949
908.023	17048
908.139	16896
908.256	16877
908.372	16873
908.488	16904
908.604	16831
908.72	16573
908.836	16786
908.952	16664
909.068	16752
909.184	16809
909.3	16725
909.415	16748
909.531	16725
909.647	16432
909.762	16481
909.878	16268
909.993	16470
910.108	16371
910.224	16390
910.339	16405
910.454	16207
910.57	16257
910.685	16124
910.8	16352
910.915	16325
911.03	16128
911.145	16040
911.259	16044
911.374	15911
911.489	15922
911.604	15759
911.718	15739
911.833	15778
911.947	15660
912.062	15469
912.176	15709
912.291	15690
912.405	15797
912.519	15918
912.633	15930
912.748	15724
912.862	15652
912.976	15519
913.09	15500
913.204	15496
913.318	15599
913.431	15587
913.545	15618
913.659	15698
913.772	15606
913.886	15329
914	15340
914.113	15526
914.226	15542
914.34	15431
914.453	15340
914.566	15378
914.68	15294
914.793	15214
914.906	15161
915.019	15032
915.132	14967
915.245	14998
915.358	14979
915.47	15001
915.583	14986
915.696	15001
915.809	15055
915.921	15188
916.034	14910
916.146	14883
916.259	14880
916.371	14990
916.483	14937
916.595	14830
916.708	14807
916.82	14842
916.932	14811
917.044	14667
917.156	14785
917.268	14632
917.38	14727
917.491	14632
917.603	14659
917.715	14819
917.826	14686
917.938	14617
918.049	14454
918.161	14533
918.272	14735
918.384	14648
918.495	14552
918.606	14450
918.717	14324
918.828	14461
918.939	14412
919.05	14256
919.161	14374
919.272	14275
919.383	14313
919.494	14362
919.604	14556
919.715	14396
919.826	14381
919.936	14309
920.047	14400
920.157	14263
920.267	14590
920.378	14355
920.488	14214
920.598	14499
920.708	14708
920.818	14396
920.928	14636
921.038	14724
921.148	14587
921.258	14267
921.368	14317
921.477	14073
921.587	14119
921.697	13989
921.806	14081
921.916	13944
922.025	13826
922.134	13757
922.244	13643
922.353	13822
922.462	13636
922.571	13628
922.68	13460
922.789	13358
922.898	13396
923.007	13373
923.116	13343
923.224	13373
923.333	13278
923.442	13266
923.55	13225
923.659	13278
923.767	13247
923.876	13149
923.984	13194
924.092	13149
924.201	13213
924.309	13122
924.417	13168
924.525	13103
924.633	13050
924.741	13818
924.849	12852
924.956	12989
925.064	12863
925.172	12787
925.279	12810
925.387	12806
925.494	12772
925.602	12966
925.709	12954
925.816	12738
925.924	12795
926.031	12829
926.138	12764
926.245	12825
926.352	12665
926.459	12772
926.566	12966
926.673	12639
926.779	12566
926.886	12616
926.993	12429
927.099	12372
927.206	12361
927.312	12289
927.419	12376
927.525	12323
927.631	12384
927.737	12235
927.843	12266
927.95	12190
928.056	12216
928.162	12235
928.267	12216
928.373	12894
928.479	12266
928.585	12003
928.69	12152
928.796	12197
928.901	12102
929.007	11901
929.112	11969
929.218	12072
929.323	12007
929.428	11923
929.533	12102
929.638	11889
929.743	11927
929.848	11973
929.953	11885
930.058	11764
930.163	11680
930.267	11646
930.372	11775
930.477	11600
930.581	11813
930.685	11672
930.79	11509
930.894	11497
930.998	11501
931.103	11623
931.207	11265
931.311	11227
931.415	11083
931.519	10961
931.623	10854
