Data from test_V78500241_2646.txt Node
Date: Fri Mar 25 15:28:17 CST 2022
User: usil
Spectrometer: V785-0024
Trigger mode: 0
Integration Time (sec): 4.000000E-1
Scans to average: 1
Nonlinearity correction enabled: false
Boxcar width: 0
Storing dark spectrum: false
XAxis mode: Wavelengths
Number of Pixels in Spectrum: 1024
>>>>>Begin Spectral Data<<<<<
801.071	27211
801.214	27066
801.356	26921
801.499	26834
801.641	26705
801.783	26758
801.926	26830
802.068	26640
802.211	26526
802.353	26667
802.496	26358
802.638	26263
802.78	26259
802.923	26320
803.065	26122
803.208	26362
803.35	26301
803.492	26492
803.635	26457
803.777	26385
803.919	26408
804.061	26914
804.204	26579
804.346	26431
804.488	26317
804.63	26587
804.773	26446
804.915	26511
805.057	26579
805.199	26385
805.341	26526
805.483	26545
805.626	26549
805.768	26393
805.91	26484
806.052	26625
806.194	26590
806.336	26788
806.478	26503
806.62	26549
806.762	26621
806.904	26842
807.046	27009
807.188	27028
807.33	27001
807.472	27089
807.614	26899
807.756	26842
807.898	26792
808.04	26834
808.182	26804
808.324	26937
808.465	26883
808.607	27112
808.749	27214
808.891	27351
809.033	27325
809.174	27226
809.316	27169
809.458	27173
809.6	27119
809.741	27363
809.883	27256
810.025	27530
810.166	27420
810.308	27329
810.45	27245
810.591	27344
810.733	27192
810.875	27123
811.016	27047
811.158	27157
811.299	27287
811.441	27336
811.582	27279
811.724	27237
811.865	27138
812.007	27142
812.148	27047
812.29	27237
812.431	27275
812.573	27340
812.714	27416
812.855	27675
812.997	27865
813.138	27922
813.279	27831
813.421	27660
813.562	27542
813.703	27382
813.845	27454
813.986	27055
814.127	27131
814.268	26845
814.41	26883
814.551	26712
814.692	26819
814.833	26686
814.974	26902
815.115	26838
815.256	26708
815.397	26571
815.539	26636
815.68	26514
815.821	26453
815.962	26579
816.103	26625
816.244	26431
816.385	26366
816.526	26282
816.666	26176
816.807	26024
816.948	26142
817.089	26206
817.23	26111
817.371	25974
817.512	26164
817.653	26130
817.793	26016
817.934	26145
818.075	26119
818.216	26111
818.356	25986
818.497	25826
818.638	25742
818.778	25769
818.919	25864
819.06	25909
819.2	25887
819.341	26058
819.481	26073
819.622	26225
819.762	26484
819.903	26183
820.043	26290
820.184	26149
820.324	26145
820.465	26142
820.605	26111
820.746	26195
820.886	25974
821.026	26126
821.167	26077
821.307	26252
821.447	26115
821.588	26012
821.728	25871
821.868	25712
822.008	25582
822.149	25563
822.289	25556
822.429	25278
822.569	25228
822.709	25213
822.849	25103
822.99	25072
823.13	24977
823.27	24985
823.41	24802
823.55	24947
823.69	25019
823.83	24844
823.97	24700
824.11	24631
824.25	24593
824.389	24650
824.529	24825
824.669	24551
824.809	24703
824.949	24734
825.089	24707
825.228	24688
825.368	24555
825.508	24391
825.648	24483
825.787	24620
825.927	24623
826.067	24525
826.206	24498
826.346	24513
826.485	24642
826.625	24593
826.765	24604
826.904	24555
827.044	24304
827.183	24433
827.323	24342
827.462	24330
827.601	24247
827.741	24251
827.88	24292
828.02	24133
828.159	24258
828.298	24433
828.437	24220
828.577	24247
828.716	24399
828.855	24144
828.994	24148
829.134	23843
829.273	23996
829.412	23939
829.551	23851
829.69	23859
829.829	23958
829.968	24057
830.107	24038
830.246	23980
830.385	23840
830.524	23889
830.663	23802
830.802	23668
830.941	23646
831.08	23551
831.219	23604
831.357	23703
831.496	23821
831.635	23512
831.774	23551
831.913	23627
832.051	23360
832.19	23455
832.329	23433
832.467	23376
832.606	23223
832.744	23288
832.883	23204
833.022	23212
833.16	23208
833.299	23299
833.437	23269
833.576	23383
833.714	23292
833.852	23364
833.991	23326
834.129	23379
834.267	23368
834.406	23261
834.544	23433
834.682	23448
834.821	23239
834.959	23436
835.097	23193
835.235	23414
835.373	23353
835.511	23174
835.65	23155
835.788	23098
835.926	23117
836.064	23006
836.202	22919
836.34	23242
836.478	23239
836.615	23185
836.753	23128
836.891	23307
837.029	23231
837.167	23003
837.305	23060
837.443	23109
837.58	23022
837.718	23025
837.856	23056
837.993	22991
838.131	23014
838.269	22881
838.406	22793
838.544	22820
838.681	22637
838.819	22656
838.956	22523
839.094	22485
839.231	22584
839.369	22729
839.506	22869
839.643	22634
839.781	22451
839.918	22428
840.055	22386
840.193	22527
840.33	22417
840.467	22432
840.604	22500
840.742	22812
840.879	22295
841.016	22341
841.153	22341
841.29	22535
841.427	22371
841.564	22421
841.701	22405
841.838	22348
841.975	22318
842.112	22344
842.249	22375
842.385	22169
842.522	22402
842.659	22360
842.796	22211
842.933	22223
843.069	22116
843.206	22204
843.343	22219
843.479	22143
843.616	22105
843.752	21956
843.889	22059
844.025	22128
844.162	21953
844.298	22002
844.435	21991
844.571	21895
844.708	21972
844.844	22051
844.98	22021
845.117	22112
845.253	21899
845.389	21880
845.525	21827
845.661	21842
845.798	21660
845.934	21641
846.07	21629
846.206	21755
846.342	21717
846.478	21789
846.614	21485
846.75	21367
846.886	21416
847.022	21526
847.158	21564
847.294	21496
847.429	21424
847.565	21450
847.701	21648
847.837	21157
847.972	21165
848.108	21363
848.244	21222
848.379	21005
848.515	21096
848.65	20937
848.786	21142
848.921	21043
849.057	21096
849.192	21180
849.328	21131
849.463	21116
849.598	21074
849.734	20948
849.869	20830
850.004	20887
850.14	20777
850.275	20906
850.41	20800
850.545	20819
850.68	20705
850.815	20880
850.95	20727
851.085	20975
851.22	20887
851.355	20765
851.49	20857
851.625	20724
851.76	20948
851.895	20750
852.03	20769
852.165	20762
852.299	20804
852.434	20845
852.569	20640
852.703	20739
852.838	20887
852.973	20990
853.107	20929
853.242	20655
853.376	20564
853.511	20583
853.645	20541
853.78	20762
853.914	20590
854.048	20674
854.183	20568
854.317	20667
854.451	20762
854.585	20613
854.72	20708
854.854	20663
854.988	20651
855.122	20590
855.256	20450
855.39	20655
855.524	20579
855.658	20651
855.792	20575
855.926	20617
856.06	20613
856.194	20701
856.327	20530
856.461	20541
856.595	20617
856.729	20537
856.862	20731
856.996	20720
857.13	20648
857.263	20811
857.397	20663
857.53	20678
857.664	20705
857.797	20625
857.931	20682
858.064	20640
858.197	20640
858.331	20556
858.464	20617
858.597	20499
858.731	20499
858.864	20667
858.997	20625
859.13	20648
859.263	20621
859.396	20746
859.529	20575
859.662	20727
859.795	20590
859.928	20514
860.061	20864
860.194	20750
860.327	20560
860.46	20587
860.592	20727
860.725	20857
860.858	20769
860.99	20693
861.123	20613
861.256	20549
861.388	20587
861.521	21336
861.653	20511
861.786	20351
861.918	20579
862.05	20511
862.183	20549
862.315	20488
862.447	20617
862.58	20522
862.712	20317
862.844	20358
862.976	20492
863.108	20385
863.24	20902
863.372	20286
863.504	20404
863.636	20362
863.768	20309
863.9	20393
864.032	20347
864.164	20233
864.296	20305
864.428	20393
864.559	20351
864.691	20412
864.823	20298
864.954	20339
865.086	20320
865.217	20298
865.349	20149
865.48	20218
865.612	20168
865.743	20412
865.875	20343
866.006	20259
866.137	20298
866.269	20221
866.4	20199
866.531	20050
866.662	20221
866.793	20206
866.924	20191
867.055	20252
867.186	20317
867.317	20119
867.448	20046
867.579	20229
867.71	20084
867.841	20035
867.972	20252
868.103	20214
868.233	20073
868.364	20134
868.495	20244
868.625	20503
868.756	20568
868.886	20347
869.017	20450
869.147	20545
869.278	20495
869.408	20450
869.539	20480
869.669	20541
869.799	20419
869.929	20568
870.06	20518
870.19	20708
870.32	20724
870.45	20659
870.58	20724
870.71	20861
870.84	20796
870.97	20933
871.1	20872
871.23	21104
871.36	20998
871.489	20880
871.619	21005
871.749	20944
871.879	20994
872.008	21135
872.138	20990
872.267	21108
872.397	20891
872.526	20777
872.656	20807
872.785	20868
872.915	21100
873.044	21077
873.173	21058
873.303	21176
873.432	21066
873.561	21123
873.69	20929
873.819	21028
873.948	21100
874.077	21081
874.206	20986
874.335	20963
874.464	21211
874.593	21264
874.722	21222
874.851	21112
874.979	21397
875.108	21382
875.237	21279
875.365	21214
875.494	21222
875.623	21291
875.751	21260
875.88	21389
876.008	21386
876.136	21401
876.265	21629
876.393	21694
876.521	21816
876.65	21679
876.778	21842
876.906	21667
877.034	21591
877.162	21682
877.29	21618
877.418	21720
877.546	21728
877.674	21591
877.802	21663
877.93	21660
878.058	21580
878.185	21633
878.313	21599
878.441	21671
878.568	21587
878.696	21618
878.824	21713
878.951	21720
879.079	21876
879.206	21918
879.333	21846
879.461	21599
879.588	21667
879.715	21850
879.842	21861
879.97	21701
880.097	21564
880.224	21439
880.351	21530
880.478	21469
880.605	21492
880.732	21382
880.859	21701
880.986	21412
881.112	21469
881.239	21302
881.366	21127
881.493	21112
881.619	21017
881.746	20998
881.872	21070
881.999	21077
882.125	21081
882.252	21058
882.378	21070
882.505	21119
882.631	20891
882.757	20750
882.883	20842
883.01	20777
883.136	20689
883.262	20663
883.388	20632
883.514	20830
883.64	20849
883.766	20720
883.892	20686
884.018	20640
884.143	20750
884.269	20788
884.395	20594
884.52	20282
884.646	20362
884.772	20237
884.897	20355
885.023	20465
885.148	20530
885.274	20621
885.399	20503
885.524	20427
885.65	20488
885.775	20473
885.9	20454
886.025	20587
886.15	20431
886.275	20358
886.4	20366
886.525	20393
886.65	20488
886.775	20275
886.9	20503
887.025	20583
887.149	20370
887.274	20187
887.399	20225
887.523	20301
887.648	20172
887.773	20043
887.897	20275
888.021	20237
888.146	20122
888.27	20366
888.395	20305
888.519	20153
888.643	20233
888.767	20233
888.891	20142
889.015	19917
889.139	20016
889.263	19959
889.387	20126
889.511	20244
889.635	20111
889.759	20054
889.883	19997
890.006	20035
890.13	19970
890.254	19871
890.377	19883
890.501	19902
890.624	19807
890.748	19791
890.871	19738
890.995	19521
891.118	19514
891.241	19620
891.364	19609
891.488	19628
891.611	19597
891.734	19635
891.857	19567
891.98	19559
892.103	19628
892.226	19468
892.349	19575
892.471	19331
892.594	19491
892.717	19419
892.839	19381
892.962	19506
893.085	19605
893.207	19392
893.33	19278
893.452	19400
893.575	19616
893.697	19472
893.819	19708
893.941	19723
894.064	19655
894.186	19441
894.308	19491
894.43	19601
894.552	19586
894.674	19499
894.796	19571
894.918	19480
895.04	19464
895.161	19537
895.283	19502
895.405	19445
895.526	19510
895.648	19495
895.769	19689
895.891	19339
896.012	19537
896.134	19491
896.255	19518
896.376	19510
896.498	19510
896.619	19518
896.74	19476
896.861	19559
896.982	19845
897.103	19898
897.224	19734
897.345	19639
897.466	19776
897.587	19677
897.708	19944
897.828	19856
897.949	19738
898.07	19639
898.19	19594
898.311	19856
898.431	19624
898.552	19674
898.672	19811
898.792	19719
898.913	19803
899.033	19518
899.153	19476
899.273	19453
899.393	19521
899.513	19529
899.633	19438
899.753	19445
899.873	19377
899.993	19483
900.113	19430
900.232	19499
900.352	19392
900.472	19266
900.591	19263
900.711	19343
900.83	19213
900.95	19369
901.069	19274
901.189	19141
901.308	18935
901.427	18943
901.546	18776
901.665	18894
901.784	18810
901.904	18776
902.023	18616
902.141	18338
902.26	18346
902.379	18456
902.498	18395
902.617	18376
902.735	18395
902.854	18308
902.973	18357
903.091	18125
903.21	18022
903.328	18015
903.446	17931
903.565	17878
903.683	17954
903.801	17767
903.919	17843
904.038	17843
904.156	17726
904.274	17737
904.392	17638
904.51	17680
904.627	17687
904.745	17600
904.863	17615
904.981	17425
905.098	17356
905.216	17288
905.334	17406
905.451	17349
905.569	17322
905.686	17353
905.803	17258
905.921	17113
906.038	17265
906.155	17064
906.272	17010
906.389	17037
906.506	16892
906.623	16793
906.74	16812
906.857	16679
906.974	16717
907.091	16869
907.208	16976
907.324	16862
907.441	16755
907.557	16634
907.674	16596
907.79	16550
907.907	16508
908.023	16542
908.139	16535
908.256	16519
908.372	16424
908.488	16386
908.604	16291
908.72	16230
908.836	16280
908.952	16242
909.068	16386
909.184	16409
909.3	16265
909.415	16413
909.531	16177
909.647	15991
909.762	16040
909.878	15876
909.993	16040
910.108	15888
910.224	15968
910.339	16093
910.454	15884
910.57	15823
910.685	15766
910.8	15968
910.915	15865
911.03	15861
911.145	15625
911.259	15629
911.374	15549
911.489	15603
911.604	15549
911.718	15325
911.833	15378
911.947	15336
912.062	15249
912.176	15389
912.291	15397
912.405	15473
912.519	15625
912.633	15523
912.748	15332
912.862	15287
912.976	15188
913.09	15100
913.204	15097
913.318	15169
913.431	15351
913.545	15237
913.659	15298
913.772	15138
913.886	14982
914	14952
914.113	15081
914.226	15154
914.34	15017
914.453	14906
914.566	14986
914.68	14887
914.793	14933
914.906	14781
915.019	14758
915.132	14541
915.245	14594
915.358	14598
915.47	14716
915.583	14667
915.696	14579
915.809	14716
915.921	14765
916.034	14552
916.146	14465
916.259	14507
916.371	14594
916.483	14514
916.595	14408
916.708	14495
916.82	14427
916.932	14442
917.044	14431
917.156	14431
917.268	14233
917.38	14355
917.491	14225
917.603	14328
917.715	14320
917.826	14503
917.938	14187
918.049	14054
918.161	14275
918.272	14355
918.384	14423
918.495	14286
918.606	14084
918.717	14039
918.828	14058
918.939	14176
919.05	14001
919.161	14012
919.272	13967
919.383	13902
919.494	14050
919.604	14202
919.715	14039
919.826	13989
919.936	13936
920.047	14058
920.157	14031
920.267	14225
920.378	14100
920.488	13955
920.598	14111
920.708	14248
920.818	14237
920.928	14145
921.038	14256
921.148	14271
921.258	13925
921.368	13856
921.477	13837
921.587	13734
921.697	13742
921.806	13784
921.916	13582
922.025	13460
922.134	13445
922.244	13472
922.353	13491
922.462	13407
922.571	13251
922.68	13099
922.789	13228
922.898	13091
923.007	13008
923.116	13110
923.224	13072
923.333	13008
923.442	13012
923.55	12916
923.659	13000
923.767	13012
923.876	12894
923.984	12920
924.092	12890
924.201	12856
924.309	12783
924.417	12935
924.525	12768
924.633	12791
924.741	13647
924.849	12521
924.956	12745
925.064	12555
925.172	12464
925.279	12589
925.387	12631
925.494	12540
925.602	12658
925.709	12570
925.816	12445
925.924	12437
926.031	12601
926.138	12551
926.245	12566
926.352	12429
926.459	12471
926.566	12521
926.673	12414
926.779	12384
926.886	12281
926.993	12175
927.099	12163
927.206	12076
927.312	12106
927.419	12087
927.525	12072
927.631	12076
927.737	11939
927.843	11847
927.95	11889
928.056	11946
928.162	11946
928.267	11961
928.373	12517
928.479	11977
928.585	11847
928.69	11901
928.796	11882
928.901	11821
929.007	11608
929.112	11748
929.218	11737
929.323	11665
929.428	11688
929.533	11752
929.638	11532
929.743	11653
929.848	11646
929.953	11596
930.058	11501
930.163	11364
930.267	11296
930.372	11547
930.477	11318
930.581	11634
930.685	11360
930.79	11322
930.894	11299
930.998	11265
931.103	11383
931.207	11064
931.311	10923
931.415	10866
931.519	10664
931.623	10679
