Data from test_V78500241_3082.txt Node
Date: Fri Mar 25 15:31:19 CST 2022
User: usil
Spectrometer: V785-0024
Trigger mode: 0
Integration Time (sec): 4.000000E-1
Scans to average: 1
Nonlinearity correction enabled: false
Boxcar width: 0
Storing dark spectrum: false
XAxis mode: Wavelengths
Number of Pixels in Spectrum: 1024
>>>>>Begin Spectral Data<<<<<
801.071	27218
801.214	27310
801.356	27047
801.499	26940
801.641	26944
801.783	26933
801.926	26948
802.068	26842
802.211	26872
802.353	26712
802.496	26613
802.638	26526
802.78	26533
802.923	26511
803.065	26278
803.208	26431
803.35	26431
803.492	26545
803.635	26697
803.777	26636
803.919	26697
804.061	26971
804.204	26606
804.346	26579
804.488	26674
804.63	26720
804.773	26609
804.915	26609
805.057	26712
805.199	26678
805.341	26758
805.483	26792
805.626	26895
805.768	26621
805.91	26674
806.052	26864
806.194	26560
806.336	26929
806.478	26739
806.62	26796
806.762	26823
806.904	26960
807.046	27275
807.188	27214
807.33	27226
807.472	27412
807.614	27074
807.756	27165
807.898	27085
808.04	26918
808.182	26963
808.324	27074
808.465	27142
808.607	27336
808.749	27382
808.891	27420
809.033	27538
809.174	27488
809.316	27332
809.458	27260
809.6	27397
809.741	27374
809.883	27564
810.025	27595
810.166	27694
810.308	27694
810.45	27583
810.591	27504
810.733	27450
810.875	27325
811.016	27192
811.158	27393
811.299	27439
811.441	27595
811.582	27698
811.724	27416
811.865	27317
812.007	27431
812.148	27332
812.29	27355
812.431	27462
812.573	27614
812.714	27698
812.855	27857
812.997	28017
813.138	28105
813.279	27975
813.421	27778
813.562	27857
813.703	27747
813.845	27580
813.986	27325
814.127	27077
814.268	27020
814.41	26895
814.551	27001
814.692	26979
814.833	26940
814.974	26921
815.115	27009
815.256	26994
815.397	26902
815.539	26891
815.68	26826
815.821	26712
815.962	26921
816.103	26899
816.244	26629
816.385	26488
816.526	26552
816.666	26408
816.807	26275
816.948	26278
817.089	26328
817.23	26377
817.371	26278
817.512	26218
817.653	26332
817.793	26149
817.934	26267
818.075	26317
818.216	26385
818.356	26298
818.497	26084
818.638	26035
818.778	25978
818.919	26084
819.06	26062
819.2	26130
819.341	26275
819.481	26267
819.622	26370
819.762	26689
819.903	26476
820.043	26522
820.184	26347
820.324	26275
820.465	26290
820.605	26453
820.746	26404
820.886	26161
821.026	26195
821.167	26336
821.307	26347
821.447	26301
821.588	26202
821.728	26050
821.868	25966
822.008	25791
822.149	25814
822.289	25814
822.429	25460
822.569	25377
822.709	25381
822.849	25209
822.99	25312
823.13	25156
823.27	25027
823.41	25145
823.55	24962
823.69	25179
823.83	25095
823.97	25000
824.11	24909
824.25	24745
824.389	24829
824.529	24939
824.669	24810
824.809	24989
824.949	24954
825.089	25042
825.228	24852
825.368	24673
825.508	24684
825.648	24692
825.787	24753
825.927	24814
826.067	24734
826.206	24711
826.346	24867
826.485	24764
826.625	24741
826.765	24730
826.904	24722
827.044	24513
827.183	24490
827.323	24376
827.462	24513
827.601	24407
827.741	24403
827.88	24467
828.02	24357
828.159	24201
828.298	24403
828.437	24574
828.577	24346
828.716	24578
828.855	24372
828.994	24209
829.134	24201
829.273	24186
829.412	24159
829.551	24178
829.69	24144
829.829	24190
829.968	24228
830.107	24197
830.246	24201
830.385	24140
830.524	24136
830.663	23897
830.802	23824
830.941	23874
831.08	23684
831.219	23855
831.357	23897
831.496	24018
831.635	23756
831.774	23649
831.913	23623
832.051	23600
832.19	23581
832.329	23695
832.467	23623
832.606	23433
832.744	23372
832.883	23284
833.022	23429
833.16	23436
833.299	23452
833.437	23417
833.576	23516
833.714	23478
833.852	23455
833.991	23665
834.129	23512
834.267	23627
834.406	23444
834.544	23528
834.682	23623
834.821	23562
834.959	23653
835.097	23391
835.235	23478
835.373	23493
835.511	23505
835.65	23376
835.788	23395
835.926	23330
836.064	23208
836.202	23128
836.34	23292
836.478	23326
836.615	23414
836.753	23265
836.891	23341
837.029	23444
837.167	23269
837.305	23299
837.443	23239
837.58	23166
837.718	23258
837.856	23250
837.993	23147
838.131	23155
838.269	23033
838.406	23067
838.544	23018
838.681	22805
838.819	22771
838.956	22611
839.094	22706
839.231	22767
839.369	22976
839.506	22900
839.643	22858
839.781	22630
839.918	22603
840.055	22759
840.193	22531
840.33	22683
840.467	22660
840.604	22588
840.742	23014
840.879	22440
841.016	22599
841.153	22611
841.29	22752
841.427	22546
841.564	22611
841.701	22565
841.838	22653
841.975	22455
842.112	22550
842.249	22440
842.385	22394
842.522	22694
842.659	22436
842.796	22348
842.933	22143
843.069	22287
843.206	22375
843.343	22436
843.479	22265
843.616	22329
843.752	22181
843.889	22116
844.025	22253
844.162	22070
844.298	22257
844.435	22112
844.571	22040
844.708	22158
844.844	22344
844.98	22246
845.117	22226
845.253	22044
845.389	21915
845.525	22044
845.661	22086
845.798	21804
845.934	21861
846.07	21728
846.206	21880
846.342	21892
846.478	21766
846.614	21778
846.75	21686
846.886	21644
847.022	21656
847.158	21633
847.294	21557
847.429	21572
847.565	21603
847.701	21736
847.837	21386
847.972	21332
848.108	21416
848.244	21351
848.379	21188
848.515	21249
848.65	21135
848.786	21256
848.921	21173
849.057	21218
849.192	21211
849.328	21157
849.463	21241
849.598	20971
849.734	21047
849.869	21047
850.004	20971
850.14	20929
850.275	20910
850.41	21070
850.545	20895
850.68	20906
850.815	21100
850.95	20994
851.085	21249
851.22	21081
851.355	20868
851.49	20963
851.625	20929
851.76	20853
851.895	20861
852.03	20906
852.165	21017
852.299	21024
852.434	21036
852.569	20918
852.703	20876
852.838	20994
852.973	21074
853.107	21043
853.242	20845
853.376	20925
853.511	20670
853.645	20746
853.78	20891
853.914	20845
854.048	20834
854.183	20754
854.317	20887
854.451	21028
854.585	20823
854.72	20754
854.854	20849
854.988	20792
855.122	20849
855.256	20754
855.39	20640
855.524	20861
855.658	20796
855.792	20781
855.926	20823
856.06	20731
856.194	20906
856.327	20800
856.461	20765
856.595	20758
856.729	20746
856.862	20899
856.996	20800
857.13	21009
857.263	20921
857.397	20861
857.53	20716
857.664	20921
857.797	20895
857.931	20899
858.064	20853
858.197	20921
858.331	20792
858.464	20807
858.597	20644
858.731	20655
858.864	20629
858.997	20659
859.13	20754
859.263	20682
859.396	20739
859.529	20674
859.662	20697
859.795	20769
859.928	20743
860.061	20849
860.194	20921
860.327	20811
860.46	20785
860.592	20804
860.725	20853
860.858	20910
860.99	20746
861.123	20609
861.256	20686
861.388	20781
861.521	21370
861.653	20625
861.786	20446
861.918	20514
862.05	20686
862.183	20708
862.315	20674
862.447	20937
862.58	20705
862.712	20522
862.844	20473
862.976	20689
863.108	20530
863.24	20899
863.372	20438
863.504	20320
863.636	20415
863.768	20533
863.9	20541
864.032	20419
864.164	20503
864.296	20507
864.428	20537
864.559	20549
864.691	20507
864.823	20454
864.954	20454
865.086	20423
865.217	20480
865.349	20381
865.48	20347
865.612	20385
865.743	20442
865.875	20393
866.006	20362
866.137	20404
866.269	20389
866.4	20324
866.531	20218
866.662	20328
866.793	20294
866.924	20427
867.055	20374
867.186	20377
867.317	20290
867.448	20180
867.579	20187
867.71	20149
867.841	20263
867.972	20305
868.103	20324
868.233	20282
868.364	20256
868.495	20507
868.625	20438
868.756	20609
868.886	20629
869.017	20564
869.147	20640
869.278	20640
869.408	20644
869.539	20514
869.669	20621
869.799	20625
869.929	20667
870.06	20689
870.19	20979
870.32	20921
870.45	20952
870.58	21036
870.71	21116
870.84	21077
870.97	20967
871.1	20937
871.23	21195
871.36	21230
871.489	21093
871.619	21184
871.749	21131
871.879	21135
872.008	21233
872.138	21165
872.267	21142
872.397	21043
872.526	21017
872.656	20986
872.785	20963
872.915	21233
873.044	21161
873.173	21260
873.303	21260
873.432	21241
873.561	21211
873.69	21138
873.819	21169
873.948	21408
874.077	21211
874.206	21119
874.335	21112
874.464	21264
874.593	21526
874.722	21405
874.851	21401
874.979	21496
875.108	21473
875.237	21336
875.365	21317
875.494	21382
875.623	21507
875.751	21405
875.88	21393
876.008	21488
876.136	21644
876.265	21808
876.393	21884
876.521	21956
876.65	21827
876.778	21949
876.906	21625
877.034	21739
877.162	21827
877.29	21595
877.418	21724
877.546	21793
877.674	21701
877.802	21751
877.93	21831
878.058	21705
878.185	21519
878.313	21747
878.441	21698
878.568	21553
878.696	21648
878.824	21895
878.951	21854
879.079	21926
879.206	22120
879.333	21884
879.461	21682
879.588	21842
879.715	21861
879.842	22013
879.97	21884
880.097	21686
880.224	21633
880.351	21648
880.478	21629
880.605	21466
880.732	21724
880.859	21838
880.986	21526
881.112	21595
881.239	21477
881.366	21355
881.493	21336
881.619	21268
881.746	21370
881.872	21283
881.999	21085
882.125	21173
882.252	21226
882.378	21146
882.505	21233
882.631	21058
882.757	20925
882.883	21032
883.01	20838
883.136	20815
883.262	20796
883.388	20682
883.514	20956
883.64	20891
883.766	20765
883.892	20750
884.018	20609
884.143	20853
884.269	20944
884.395	20701
884.52	20590
884.646	20632
884.772	20571
884.897	20431
885.023	20575
885.148	20682
885.274	20678
885.399	20606
885.524	20518
885.65	20583
885.775	20465
885.9	20412
886.025	20613
886.15	20598
886.275	20465
886.4	20446
886.525	20514
886.65	20374
886.775	20465
886.9	20659
887.025	20655
887.149	20549
887.274	20385
887.399	20313
887.523	20317
887.648	20301
887.773	20252
887.897	20400
888.021	20362
888.146	20252
888.27	20446
888.395	20400
888.519	20317
888.643	20355
888.767	20385
888.891	20199
889.015	20122
889.139	20138
889.263	20157
889.387	20324
889.511	20351
889.635	20164
889.759	20062
889.883	20138
890.006	20149
890.13	20187
890.254	20062
890.377	20039
890.501	19955
890.624	19947
890.748	19868
890.871	19651
890.995	19601
891.118	19704
891.241	19780
891.364	19727
891.488	19811
891.611	19738
891.734	19693
891.857	19845
891.98	19651
892.103	19704
892.226	19757
892.349	19750
892.471	19533
892.594	19552
892.717	19685
892.839	19578
892.962	19693
893.085	19746
893.207	19556
893.33	19453
893.452	19460
893.575	19643
893.697	19575
893.819	19734
893.941	19753
894.064	19677
894.186	19556
894.308	19518
894.43	19594
894.552	19830
894.674	19750
894.796	19464
894.918	19635
895.04	19677
895.161	19639
895.283	19674
895.405	19613
895.526	19658
895.648	19609
895.769	19639
895.891	19742
896.012	19765
896.134	19540
896.255	19628
896.376	19616
896.498	19647
896.619	19651
896.74	19578
896.861	19719
896.982	19974
897.103	19978
897.224	19666
897.345	19841
897.466	19715
897.587	19852
897.708	20031
897.828	19909
897.949	19917
898.07	19635
898.19	19814
898.311	20005
898.431	19708
898.552	19864
898.672	19890
898.792	19837
898.913	20062
899.033	19780
899.153	19689
899.273	19464
899.393	19616
899.513	19609
899.633	19594
899.753	19597
899.873	19548
899.993	19643
900.113	19514
900.232	19537
900.352	19586
900.472	19411
900.591	19327
900.711	19460
900.83	19369
900.95	19514
901.069	19510
901.189	19240
901.308	18947
901.427	18935
901.546	18920
901.665	19012
901.784	18973
901.904	18913
902.023	18863
902.141	18601
902.26	18502
902.379	18639
902.498	18513
902.617	18555
902.735	18585
902.854	18418
902.973	18384
903.091	18197
903.21	18201
903.328	18159
903.446	18034
903.565	18003
903.683	17897
903.801	17920
903.919	17980
904.038	17809
904.156	17771
904.274	17847
904.392	17775
904.51	17752
904.627	17752
904.745	17695
904.863	17764
904.981	17532
905.098	17463
905.216	17379
905.334	17364
905.451	17459
905.569	17448
905.686	17558
905.803	17444
905.921	17083
906.038	17349
906.155	17280
906.272	17136
906.389	17140
906.506	17006
906.623	16938
906.74	17006
906.857	16805
906.974	16797
907.091	16976
907.208	17083
907.324	17029
907.441	16835
907.557	16759
907.674	16713
907.79	16713
907.907	16584
908.023	16698
908.139	16763
908.256	16622
908.372	16512
908.488	16599
908.604	16428
908.72	16462
908.836	16405
908.952	16375
909.068	16478
909.184	16462
909.3	16371
909.415	16451
909.531	16363
909.647	16158
909.762	16040
909.878	15956
909.993	16116
910.108	16036
910.224	16032
910.339	16109
910.454	15972
910.57	15922
910.685	15865
910.8	16143
910.915	16078
911.03	15945
911.145	15675
911.259	15720
911.374	15728
911.489	15713
911.604	15618
911.718	15492
911.833	15458
911.947	15458
912.062	15233
912.176	15504
912.291	15545
912.405	15568
912.519	15663
912.633	15660
912.748	15492
912.862	15454
912.976	15367
913.09	15199
913.204	15268
913.318	15332
913.431	15374
913.545	15306
913.659	15386
913.772	15252
913.886	15138
914	15108
914.113	15165
914.226	15211
914.34	15195
914.453	14967
914.566	15062
914.68	15017
914.793	14929
914.906	14811
915.019	14804
915.132	14655
915.245	14682
915.358	14773
915.47	14667
915.583	14777
915.696	14758
915.809	14834
915.921	14849
916.034	14579
916.146	14617
916.259	14667
916.371	14621
916.483	14644
916.595	14511
916.708	14564
916.82	14537
916.932	14461
917.044	14594
917.156	14358
917.268	14355
917.38	14396
917.491	14374
917.603	14389
917.715	14514
917.826	14583
917.938	14225
918.049	14176
918.161	14271
918.272	14480
918.384	14545
918.495	14320
918.606	14202
918.717	14149
918.828	14195
918.939	14164
919.05	14046
919.161	14054
919.272	13993
919.383	14073
919.494	14138
919.604	14252
919.715	14123
919.826	14092
919.936	14069
920.047	14172
920.157	14107
920.267	14286
920.378	14081
920.488	14115
920.598	14332
920.708	14465
920.818	14233
920.928	14225
921.038	14442
921.148	14351
921.258	14069
921.368	13925
921.477	13921
921.587	13811
921.697	13750
921.806	13951
921.916	13632
922.025	13594
922.134	13540
922.244	13438
922.353	13521
922.462	13464
922.571	13358
922.68	13164
922.789	13187
922.898	13251
923.007	13160
923.116	13221
923.224	13122
923.333	13091
923.442	13046
923.55	12939
923.659	13095
923.767	13110
923.876	12993
923.984	13069
924.092	12859
924.201	12966
924.309	12973
924.417	12882
924.525	12886
924.633	12829
924.741	13746
924.849	12589
924.956	12764
925.064	12688
925.172	12631
925.279	12612
925.387	12654
925.494	12642
925.602	12642
925.709	12574
925.816	12486
925.924	12544
926.031	12612
926.138	12445
926.245	12620
926.352	12448
926.459	12555
926.566	12616
926.673	12479
926.779	12342
926.886	12346
926.993	12182
927.099	12186
927.206	12083
927.312	12152
927.419	12232
927.525	12232
927.631	12277
927.737	12087
927.843	12049
927.95	11885
928.056	12011
928.162	11984
928.267	12087
928.373	12696
928.479	12159
928.585	11798
928.69	11882
928.796	11977
928.901	11889
929.007	11756
929.112	11847
929.218	11832
929.323	11665
929.428	11726
929.533	11889
929.638	11707
929.743	11710
929.848	11790
929.953	11718
930.058	11539
930.163	11433
930.267	11433
930.372	11615
930.477	11360
930.581	11611
930.685	11414
930.79	11258
930.894	11284
930.998	11280
931.103	11463
931.207	11064
931.311	11060
931.415	10957
931.519	10767
931.623	10653
