Data from test_V78500241_3384.txt Node
Date: Fri Mar 25 15:33:25 CST 2022
User: usil
Spectrometer: V785-0024
Trigger mode: 0
Integration Time (sec): 4.000000E-1
Scans to average: 1
Nonlinearity correction enabled: false
Boxcar width: 0
Storing dark spectrum: false
XAxis mode: Wavelengths
Number of Pixels in Spectrum: 1024
>>>>>Begin Spectral Data<<<<<
801.071	27287
801.214	27009
801.356	26956
801.499	26777
801.641	26788
801.783	26792
801.926	26811
802.068	26853
802.211	26712
802.353	26568
802.496	26461
802.638	26503
802.78	26271
802.923	26324
803.065	26328
803.208	26415
803.35	26545
803.492	26469
803.635	26518
803.777	26446
803.919	26469
804.061	26811
804.204	26434
804.346	26549
804.488	26431
804.63	26537
804.773	26381
804.915	26541
805.057	26758
805.199	26507
805.341	26560
805.483	26629
805.626	26568
805.768	26469
805.91	26750
806.052	26667
806.194	26708
806.336	26834
806.478	26670
806.62	26564
806.762	26735
806.904	26929
807.046	27154
807.188	26986
807.33	27169
807.472	27005
807.614	26838
807.756	26906
807.898	26853
808.04	26781
808.182	26735
808.324	26933
808.465	26906
808.607	27058
808.749	27275
808.891	27462
809.033	27302
809.174	27317
809.316	27298
809.458	27294
809.6	27188
809.741	27275
809.883	27450
810.025	27523
810.166	27416
810.308	27526
810.45	27496
810.591	27466
810.733	27268
810.875	27218
811.016	27184
811.158	27203
811.299	27291
811.441	27374
811.582	27382
811.724	27169
811.865	27214
812.007	27184
812.148	27173
812.29	27287
812.431	27389
812.573	27530
812.714	27557
812.855	27618
812.997	27854
813.138	27895
813.279	27785
813.421	27728
813.562	27827
813.703	27511
813.845	27542
813.986	27077
814.127	26967
814.268	26883
814.41	26979
814.551	26868
814.692	26944
814.833	27005
814.974	26933
815.115	26788
815.256	26716
815.397	26640
815.539	26746
815.68	26602
815.821	26655
815.962	26617
816.103	26648
816.244	26598
816.385	26499
816.526	26351
816.666	26244
816.807	26096
816.948	26301
817.089	26202
817.23	26233
817.371	26065
817.512	26069
817.653	26134
817.793	26081
817.934	26043
818.075	26164
818.216	26103
818.356	26282
818.497	25966
818.638	25909
818.778	25864
818.919	25860
819.06	25868
819.2	26054
819.341	26084
819.481	26096
819.622	26275
819.762	26484
819.903	26393
820.043	26336
820.184	26301
820.324	26183
820.465	26278
820.605	26229
820.746	26191
820.886	25955
821.026	26218
821.167	26191
821.307	26336
821.447	26039
821.588	26054
821.728	25803
821.868	25780
822.008	25666
822.149	25582
822.289	25651
822.429	25316
822.569	25175
822.709	25263
822.849	25171
822.99	25278
823.13	25209
823.27	24939
823.41	24992
823.55	24863
823.69	25023
823.83	24916
823.97	24806
824.11	24840
824.25	24730
824.389	24623
824.529	24798
824.669	24837
824.809	24825
824.949	24833
825.089	24867
825.228	24684
825.368	24730
825.508	24650
825.648	24536
825.787	24601
825.927	24585
826.067	24639
826.206	24566
826.346	24669
826.485	24696
826.625	24650
826.765	24715
826.904	24639
827.044	24369
827.183	24403
827.323	24384
827.462	24327
827.601	24342
827.741	24273
827.88	24365
828.02	24205
828.159	24133
828.298	24266
828.437	24376
828.577	24281
828.716	24422
828.855	24194
828.994	24095
829.134	23984
829.273	24091
829.412	24079
829.551	23946
829.69	23973
829.829	24117
829.968	24148
830.107	24209
830.246	23916
830.385	23904
830.524	23946
830.663	23843
830.802	23809
830.941	23771
831.08	23703
831.219	23794
831.357	23703
831.496	23939
831.635	23665
831.774	23554
831.913	23573
832.051	23486
832.19	23452
832.329	23566
832.467	23353
832.606	23296
832.744	23227
832.883	23330
833.022	23242
833.16	23258
833.299	23467
833.437	23364
833.576	23551
833.714	23410
833.852	23535
833.991	23455
834.129	23558
834.267	23459
834.406	23436
834.544	23474
834.682	23414
834.821	23417
834.959	23661
835.097	23497
835.235	23474
835.373	23395
835.511	23520
835.65	23421
835.788	23326
835.926	23246
836.064	23022
836.202	23044
836.34	23220
836.478	23436
836.615	23277
836.753	23143
836.891	23337
837.029	23288
837.167	23353
837.305	23147
837.443	23258
837.58	23109
837.718	23189
837.856	23200
837.993	23140
838.131	23109
838.269	22949
838.406	23056
838.544	22869
838.681	22835
838.819	22812
838.956	22615
839.094	22637
839.231	22717
839.369	22725
839.506	23052
839.643	22835
839.781	22618
839.918	22481
840.055	22615
840.193	22603
840.33	22535
840.467	22497
840.604	22618
840.742	22820
840.879	22356
841.016	22451
841.153	22455
841.29	22637
841.427	22447
841.564	22542
841.701	22508
841.838	22565
841.975	22546
842.112	22375
842.249	22440
842.385	22276
842.522	22436
842.659	22306
842.796	22143
842.933	22261
843.069	22219
843.206	22162
843.343	22363
843.479	22348
843.616	22234
843.752	22017
843.889	22162
844.025	22226
844.162	22074
844.298	22116
844.435	22070
844.571	22067
844.708	22200
844.844	22249
844.98	22329
845.117	22249
845.253	22036
845.389	22010
845.525	22067
845.661	21934
845.798	21770
845.934	21888
846.07	21827
846.206	21739
846.342	21873
846.478	21835
846.614	21614
846.75	21648
846.886	21542
847.022	21618
847.158	21629
847.294	21500
847.429	21663
847.565	21492
847.701	21720
847.837	21287
847.972	21218
848.108	21344
848.244	21397
848.379	21230
848.515	21112
848.65	21013
848.786	21230
848.921	21085
849.057	21264
849.192	21252
849.328	21154
849.463	21169
849.598	21055
849.734	21165
849.869	21009
850.004	20876
850.14	20864
850.275	20921
850.41	20914
850.545	20819
850.68	20845
850.815	20872
850.95	20921
851.085	21131
851.22	20960
851.355	20937
851.49	21055
851.625	20902
851.76	20921
851.895	20758
852.03	20853
852.165	20925
852.299	20944
852.434	20895
852.569	20902
852.703	20963
852.838	20994
852.973	21020
853.107	21089
853.242	20880
853.376	20720
853.511	20651
853.645	20743
853.78	20830
853.914	20686
854.048	20621
854.183	20754
854.317	20651
854.451	20937
854.585	20693
854.72	20724
854.854	20941
854.988	20746
855.122	20739
855.256	20629
855.39	20743
855.524	20769
855.658	20796
855.792	20792
855.926	20727
856.06	20743
856.194	20819
856.327	20731
856.461	20598
856.595	20621
856.729	20617
856.862	20769
856.996	20743
857.13	20705
857.263	20830
857.397	20800
857.53	20705
857.664	20868
857.797	20792
857.931	20667
858.064	20750
858.197	20830
858.331	20636
858.464	20689
858.597	20697
858.731	20731
858.864	20701
858.997	20606
859.13	20697
859.263	20796
859.396	20826
859.529	20804
859.662	20788
859.795	20606
859.928	20697
860.061	20895
860.194	20933
860.327	20830
860.46	20609
860.592	20667
860.725	20933
860.858	20880
860.99	20682
861.123	20674
861.256	20689
861.388	20746
861.521	21500
861.653	20773
861.786	20434
861.918	20442
862.05	20602
862.183	20609
862.315	20625
862.447	20788
862.58	20708
862.712	20438
862.844	20385
862.976	20602
863.108	20488
863.24	20785
863.372	20408
863.504	20404
863.636	20396
863.768	20377
863.9	20385
864.032	20324
864.164	20381
864.296	20457
864.428	20629
864.559	20488
864.691	20526
864.823	20461
864.954	20484
865.086	20419
865.217	20396
865.349	20343
865.48	20404
865.612	20427
865.743	20461
865.875	20339
866.006	20263
866.137	20309
866.269	20423
866.4	20412
866.531	20221
866.662	20294
866.793	20275
866.924	20355
867.055	20347
867.186	20423
867.317	20275
867.448	20164
867.579	20336
867.71	20191
867.841	20142
867.972	20183
868.103	20259
868.233	20240
868.364	20366
868.495	20476
868.625	20408
868.756	20655
868.886	20507
869.017	20537
869.147	20674
869.278	20648
869.408	20537
869.539	20503
869.669	20564
869.799	20594
869.929	20716
870.06	20587
870.19	20899
870.32	20864
870.45	21020
870.58	20925
870.71	21043
870.84	21154
870.97	20880
871.1	20925
871.23	21123
871.36	21237
871.489	21036
871.619	21036
871.749	21131
871.879	21058
872.008	21252
872.138	21119
872.267	21142
872.397	20975
872.526	21058
872.656	20990
872.785	21066
872.915	21184
873.044	21214
873.173	21226
873.303	21123
873.432	21123
873.561	21150
873.69	21287
873.819	21169
873.948	21241
874.077	21184
874.206	21093
874.335	21207
874.464	21226
874.593	21378
874.722	21302
874.851	21477
874.979	21306
875.108	21492
875.237	21283
875.365	21260
875.494	21325
875.623	21564
875.751	21397
875.88	21439
876.008	21428
876.136	21656
876.265	21778
876.393	21911
876.521	21964
876.65	21899
876.778	21785
876.906	21732
877.034	21747
877.162	21816
877.29	21736
877.418	21865
877.546	21907
877.674	21960
877.802	21774
877.93	21656
878.058	21641
878.185	21690
878.313	21625
878.441	21656
878.568	21736
878.696	21762
878.824	21804
878.951	21717
879.079	21869
879.206	22078
879.333	21842
879.461	21808
879.588	21899
879.715	21918
879.842	22078
879.97	21819
880.097	21743
880.224	21606
880.351	21583
880.478	21629
880.605	21454
880.732	21576
880.859	21728
880.986	21755
881.112	21656
881.239	21500
881.366	21329
881.493	21325
881.619	21173
881.746	21230
881.872	21218
881.999	21146
882.125	21173
882.252	21252
882.378	21192
882.505	21249
882.631	21116
882.757	20906
882.883	20868
883.01	21001
883.136	20781
883.262	20792
883.388	20777
883.514	20872
883.64	21028
883.766	20899
883.892	20621
884.018	20621
884.143	20887
884.269	20819
884.395	20438
884.52	20492
884.646	20511
884.772	20545
884.897	20450
885.023	20526
885.148	20606
885.274	20674
885.399	20674
885.524	20545
885.65	20495
885.775	20446
885.9	20412
886.025	20667
886.15	20606
886.275	20400
886.4	20381
886.525	20454
886.65	20423
886.775	20396
886.9	20621
887.025	20708
887.149	20549
887.274	20301
887.399	20301
887.523	20298
887.648	20244
887.773	20237
887.897	20381
888.021	20286
888.146	20347
888.27	20320
888.395	20393
888.519	20233
888.643	20396
888.767	20271
888.891	20183
889.015	20050
889.139	20084
889.263	20092
889.387	20187
889.511	20294
889.635	20176
889.759	20054
889.883	20153
890.006	20122
890.13	20172
890.254	20035
890.377	20065
890.501	19871
890.624	19883
890.748	19856
890.871	19868
890.995	19586
891.118	19540
891.241	19738
891.364	19761
891.488	19780
891.611	19822
891.734	19643
891.857	19643
891.98	19674
892.103	19719
892.226	19731
892.349	19620
892.471	19502
892.594	19438
892.717	19601
892.839	19559
892.962	19586
893.085	19769
893.207	19571
893.33	19521
893.452	19499
893.575	19651
893.697	19521
893.819	19712
893.941	19822
894.064	19803
894.186	19506
894.308	19624
894.43	19776
894.552	19731
894.674	19628
894.796	19430
894.918	19556
895.04	19605
895.161	19643
895.283	19601
895.405	19525
895.526	19544
895.648	19537
895.769	19510
895.891	19635
896.012	19632
896.134	19559
896.255	19666
896.376	19533
896.498	19575
896.619	19616
896.74	19544
896.861	19632
896.982	19921
897.103	20024
897.224	19864
897.345	19856
897.466	19715
897.587	19826
897.708	20027
897.828	19841
897.949	19807
898.07	19635
898.19	19693
898.311	19852
898.431	19738
898.552	19769
898.672	19841
898.792	19967
898.913	19864
899.033	19696
899.153	19639
899.273	19632
899.393	19544
899.513	19552
899.633	19613
899.753	19544
899.873	19495
899.993	19677
900.113	19567
900.232	19590
900.352	19453
900.472	19358
900.591	19365
900.711	19403
900.83	19266
900.95	19434
901.069	19369
901.189	19282
901.308	18924
901.427	18993
901.546	18970
901.665	18958
901.784	18916
901.904	18886
902.023	18597
902.141	18475
902.26	18517
902.379	18532
902.498	18483
902.617	18513
902.735	18494
902.854	18479
902.973	18525
903.091	18235
903.21	18110
903.328	18136
903.446	18049
903.565	18057
903.683	17996
903.801	17866
903.919	17961
904.038	17946
904.156	17779
904.274	17847
904.392	17794
904.51	17699
904.627	17703
904.745	17668
904.863	17722
904.981	17478
905.098	17471
905.216	17539
905.334	17421
905.451	17360
905.569	17311
905.686	17417
905.803	17444
905.921	17147
906.038	17288
906.155	17277
906.272	17014
906.389	17090
906.506	16919
906.623	16980
906.74	16923
906.857	16828
906.974	16774
907.091	16957
907.208	17045
907.324	16946
907.441	16892
907.557	16717
907.674	16721
907.79	16500
907.907	16634
908.023	16630
908.139	16649
908.256	16641
908.372	16588
908.488	16538
908.604	16356
908.72	16436
908.836	16394
908.952	16371
909.068	16402
909.184	16542
909.3	16379
909.415	16367
909.531	16329
909.647	16242
909.762	16128
909.878	16021
909.993	16071
910.108	16082
910.224	16082
910.339	15994
910.454	15941
910.57	15998
910.685	15789
910.8	16067
910.915	16044
911.03	15941
911.145	15698
911.259	15717
911.374	15781
911.489	15587
911.604	15553
911.718	15454
911.833	15393
911.947	15370
912.062	15355
912.176	15504
912.291	15466
912.405	15511
912.519	15713
912.633	15641
912.748	15526
912.862	15439
912.976	15260
913.09	15203
913.204	15252
913.318	15291
913.431	15397
913.545	15401
913.659	15393
913.772	15203
913.886	15104
914	15081
914.113	15123
914.226	15184
914.34	15127
914.453	14914
914.566	15089
914.68	14868
914.793	14925
914.906	14792
915.019	14667
915.132	14575
915.245	14792
915.358	14743
915.47	14708
915.583	14689
915.696	14781
915.809	14716
915.921	14842
916.034	14686
916.146	14556
916.259	14590
916.371	14651
916.483	14560
916.595	14640
916.708	14632
916.82	14583
916.932	14636
917.044	14499
917.156	14480
917.268	14362
917.38	14396
917.491	14305
917.603	14389
917.715	14389
917.826	14473
917.938	14275
918.049	14206
918.161	14351
918.272	14423
918.384	14499
918.495	14336
918.606	14130
918.717	14077
918.828	14176
918.939	14267
919.05	14016
919.161	14077
919.272	13849
919.383	14024
919.494	14275
919.604	14442
919.715	14195
919.826	14062
919.936	14058
920.047	14237
920.157	14161
920.267	14191
920.378	14161
920.488	14202
920.598	14282
920.708	14419
920.818	14271
920.928	14240
921.038	14396
921.148	14301
921.258	14054
921.368	13963
921.477	13906
921.587	13784
921.697	13746
921.806	13856
921.916	13693
922.025	13487
922.134	13506
922.244	13426
922.353	13544
922.462	13396
922.571	13304
922.68	13179
922.789	13137
922.898	13152
923.007	13171
923.116	13206
923.224	13152
923.333	13069
923.442	13019
923.55	13004
923.659	13034
923.767	12996
923.876	12958
923.984	13057
924.092	12943
924.201	12966
924.309	12909
924.417	12871
924.525	12897
924.633	12882
924.741	13811
924.849	12627
924.956	12783
925.064	12669
925.172	12555
925.279	12540
925.387	12616
925.494	12665
925.602	12696
925.709	12608
925.816	12513
925.924	12589
926.031	12570
926.138	12517
926.245	12597
926.352	12376
926.459	12566
926.566	12563
926.673	12369
926.779	12228
926.886	12350
926.993	12171
927.099	12224
927.206	12053
927.312	12117
927.419	12144
927.525	12106
927.631	12186
927.737	12114
927.843	12038
927.95	11980
928.056	11931
928.162	11977
928.267	12026
928.373	12585
928.479	12133
928.585	11817
928.69	11988
928.796	11984
928.901	11809
929.007	11707
929.112	11927
929.218	11874
929.323	11737
929.428	11668
929.533	11783
929.638	11680
929.743	11653
929.848	11722
929.953	11608
930.058	11573
930.163	11474
930.267	11368
930.372	11661
930.477	11421
930.581	11646
930.685	11501
930.79	11334
930.894	11337
930.998	11258
931.103	11509
931.207	11064
931.311	10942
931.415	10908
931.519	10694
931.623	10736
