Data from test_V78500241_3565.txt Node
Date: Fri Mar 25 15:34:40 CST 2022
User: usil
Spectrometer: V785-0024
Trigger mode: 0
Integration Time (sec): 4.000000E-1
Scans to average: 1
Nonlinearity correction enabled: false
Boxcar width: 0
Storing dark spectrum: false
XAxis mode: Wavelengths
Number of Pixels in Spectrum: 1024
>>>>>Begin Spectral Data<<<<<
801.071	27340
801.214	27218
801.356	27005
801.499	26960
801.641	26902
801.783	26807
801.926	26735
802.068	26861
802.211	26727
802.353	26701
802.496	26522
802.638	26492
802.78	26476
802.923	26336
803.065	26374
803.208	26453
803.35	26450
803.492	26495
803.635	26667
803.777	26526
803.919	26549
804.061	26944
804.204	26697
804.346	26495
804.488	26400
804.63	26636
804.773	26530
804.915	26609
805.057	26762
805.199	26648
805.341	26640
805.483	26712
805.626	26678
805.768	26602
805.91	26701
806.052	26792
806.194	26621
806.336	27039
806.478	26724
806.62	26697
806.762	26956
806.904	27017
807.046	27165
807.188	27260
807.33	27104
807.472	27195
807.614	26990
807.756	27089
807.898	26937
808.04	26868
808.182	26861
808.324	27100
808.465	27036
808.607	27142
808.749	27241
808.891	27515
809.033	27386
809.174	27256
809.316	27283
809.458	27241
809.6	27378
809.741	27351
809.883	27466
810.025	27545
810.166	27641
810.308	27679
810.45	27500
810.591	27466
810.733	27382
810.875	27275
811.016	27195
811.158	27291
811.299	27408
811.441	27351
811.582	27378
811.724	27283
811.865	27252
812.007	27268
812.148	27313
812.29	27279
812.431	27473
812.573	27614
812.714	27656
812.855	27686
812.997	27732
813.138	27941
813.279	27922
813.421	27812
813.562	27751
813.703	27530
813.845	27401
813.986	27348
814.127	27127
814.268	26948
814.41	26910
814.551	27043
814.692	27089
814.833	26883
814.974	26906
815.115	27047
815.256	26944
815.397	26765
815.539	26921
815.68	26708
815.821	26648
815.962	26880
816.103	26777
816.244	26712
816.385	26613
816.526	26526
816.666	26324
816.807	26275
816.948	26351
817.089	26317
817.23	26248
817.371	26298
817.512	26275
817.653	26240
817.793	26214
817.934	26305
818.075	26358
818.216	26351
818.356	26187
818.497	26130
818.638	26062
818.778	26027
818.919	26016
819.06	26111
819.2	26081
819.341	26122
819.481	26210
819.622	26275
819.762	26758
819.903	26347
820.043	26324
820.184	26298
820.324	26210
820.465	26419
820.605	26511
820.746	26320
820.886	26145
821.026	26233
821.167	26237
821.307	26275
821.447	26347
821.588	26088
821.728	26050
821.868	25852
822.008	25647
822.149	25670
822.289	25738
822.429	25449
822.569	25400
822.709	25388
822.849	25236
822.99	25270
823.13	25209
823.27	25145
823.41	25156
823.55	24859
823.69	25080
823.83	24901
823.97	25057
824.11	24886
824.25	24875
824.389	24905
824.529	25015
824.669	24779
824.809	25004
824.949	24932
825.089	24913
825.228	24916
825.368	24745
825.508	24753
825.648	24829
825.787	24669
825.927	24734
826.067	24779
826.206	24779
826.346	24768
826.485	24730
826.625	24844
826.765	24856
826.904	24692
827.044	24540
827.183	24441
827.323	24384
827.462	24521
827.601	24372
827.741	24376
827.88	24509
828.02	24281
828.159	24353
828.298	24369
828.437	24471
828.577	24369
828.716	24498
828.855	24467
828.994	24148
829.134	24121
829.273	24194
829.412	24087
829.551	24110
829.69	24144
829.829	24201
829.968	24323
830.107	24060
830.246	24213
830.385	24049
830.524	24053
830.663	23897
830.802	23714
830.941	23802
831.08	23752
831.219	23764
831.357	23893
831.496	23935
831.635	23756
831.774	23737
831.913	23649
832.051	23577
832.19	23554
832.329	23668
832.467	23452
832.606	23372
832.744	23531
832.883	23463
833.022	23471
833.16	23429
833.299	23570
833.437	23417
833.576	23505
833.714	23478
833.852	23493
833.991	23551
834.129	23695
834.267	23570
834.406	23547
834.544	23570
834.682	23585
834.821	23516
834.959	23638
835.097	23516
835.235	23627
835.373	23455
835.511	23455
835.65	23364
835.788	23429
835.926	23242
836.064	23121
836.202	23124
836.34	23417
836.478	23463
836.615	23299
836.753	23322
836.891	23406
837.029	23421
837.167	23326
837.305	23239
837.443	23372
837.58	23113
837.718	23239
837.856	23307
837.993	23098
838.131	23159
838.269	23109
838.406	23239
838.544	23041
838.681	22843
838.819	22847
838.956	22637
839.094	22645
839.231	22801
839.369	22816
839.506	23193
839.643	22968
839.781	22634
839.918	22679
840.055	22660
840.193	22733
840.33	22649
840.467	22736
840.604	22717
840.742	22908
840.879	22489
841.016	22584
841.153	22565
841.29	22752
841.427	22607
841.564	22725
841.701	22763
841.838	22542
841.975	22607
842.112	22535
842.249	22470
842.385	22405
842.522	22679
842.659	22489
842.796	22360
842.933	22356
843.069	22333
843.206	22371
843.343	22443
843.479	22379
843.616	22375
843.752	22131
843.889	22192
844.025	22306
844.162	22276
844.298	22242
844.435	22135
844.571	22200
844.708	22272
844.844	22314
844.98	22177
845.117	22337
845.253	22169
845.389	22086
845.525	22070
845.661	22040
845.798	21835
845.934	21865
846.07	21960
846.206	22036
846.342	22116
846.478	21949
846.614	21618
846.75	21766
846.886	21671
847.022	21713
847.158	21660
847.294	21667
847.429	21656
847.565	21622
847.701	21797
847.837	21408
847.972	21408
848.108	21500
848.244	21469
848.379	21291
848.515	21298
848.65	21317
848.786	21310
848.921	21252
849.057	21313
849.192	21363
849.328	21252
849.463	21127
849.598	21218
849.734	21089
849.869	21112
850.004	20944
850.14	20971
850.275	21116
850.41	20967
850.545	21142
850.68	21032
850.815	21055
850.95	21070
851.085	21260
851.22	21089
851.355	21066
851.49	20960
851.625	20929
851.76	21005
851.895	20982
852.03	20944
852.165	20986
852.299	21058
852.434	21070
852.569	21001
852.703	20975
852.838	20979
852.973	21157
853.107	21173
853.242	20971
853.376	20857
853.511	20857
853.645	20895
853.78	20960
853.914	20826
854.048	20727
854.183	20781
854.317	20834
854.451	21077
854.585	20918
854.72	20834
854.854	21055
854.988	20739
855.122	20895
855.256	20796
855.39	20811
855.524	20937
855.658	20781
855.792	20830
855.926	20902
856.06	20902
856.194	20910
856.327	20708
856.461	20868
856.595	20868
856.729	20815
856.862	20815
856.996	20971
857.13	20899
857.263	20994
857.397	21001
857.53	20887
857.664	20804
857.797	20887
857.931	20971
858.064	20769
858.197	20918
858.331	20731
858.464	20750
858.597	20800
858.731	20800
858.864	20686
858.997	20834
859.13	20823
859.263	20929
859.396	21051
859.529	20815
859.662	20838
859.795	20724
859.928	20849
860.061	20952
860.194	21077
860.327	20971
860.46	20807
860.592	20861
860.725	20925
860.858	21013
860.99	20689
861.123	20792
861.256	20819
861.388	20785
861.521	21660
861.653	20697
861.786	20750
861.918	20667
862.05	20655
862.183	20880
862.315	20705
862.447	20887
862.58	20842
862.712	20602
862.844	20613
862.976	20716
863.108	20590
863.24	20956
863.372	20587
863.504	20602
863.636	20602
863.768	20651
863.9	20488
864.032	20609
864.164	20564
864.296	20617
864.428	20636
864.559	20564
864.691	20564
864.823	20716
864.954	20476
865.086	20503
865.217	20511
865.349	20457
865.48	20438
865.612	20499
865.743	20560
865.875	20473
866.006	20309
866.137	20434
866.269	20454
866.4	20438
866.531	20374
866.662	20282
866.793	20328
866.924	20362
867.055	20530
867.186	20366
867.317	20412
867.448	20404
867.579	20412
867.71	20343
867.841	20362
867.972	20320
868.103	20400
868.233	20419
868.364	20454
868.495	20533
868.625	20473
868.756	20667
868.886	20625
869.017	20663
869.147	20720
869.278	20815
869.408	20689
869.539	20583
869.669	20689
869.799	20823
869.929	20651
870.06	20648
870.19	20986
870.32	20914
870.45	21043
870.58	20982
870.71	21131
870.84	21127
870.97	20971
871.1	20998
871.23	21214
871.36	21211
871.489	21199
871.619	21211
871.749	21127
871.879	21199
872.008	21393
872.138	21298
872.267	21287
872.397	21245
872.526	21051
872.656	21157
872.785	21150
872.915	21279
873.044	21393
873.173	21237
873.303	21310
873.432	21332
873.561	21374
873.69	21485
873.819	21279
873.948	21367
874.077	21302
874.206	21150
874.335	21272
874.464	21321
874.593	21519
874.722	21485
874.851	21496
874.979	21599
875.108	21534
875.237	21412
875.365	21424
875.494	21454
875.623	21656
875.751	21473
875.88	21561
876.008	21656
876.136	21766
876.265	21983
876.393	22025
876.521	21964
876.65	21953
876.778	21846
876.906	21869
877.034	21770
877.162	21922
877.29	21857
877.418	21865
877.546	21884
877.674	21774
877.802	21934
877.93	21937
878.058	21812
878.185	21812
878.313	21804
878.441	21850
878.568	21633
878.696	21778
878.824	21854
878.951	21922
879.079	22097
879.206	22032
879.333	22029
879.461	21926
879.588	21922
879.715	22048
879.842	22299
879.97	21895
880.097	21759
880.224	21622
880.351	21751
880.478	21762
880.605	21580
880.732	21595
880.859	21922
880.986	21724
881.112	21690
881.239	21530
881.366	21485
881.493	21370
881.619	21287
881.746	21363
881.872	21283
881.999	21374
882.125	21245
882.252	21329
882.378	21336
882.505	21363
882.631	21074
882.757	21036
882.883	21020
883.01	20921
883.136	20857
883.262	20853
883.388	20853
883.514	20914
883.64	21001
883.766	21005
883.892	20773
884.018	20758
884.143	20933
884.269	20998
884.395	20686
884.52	20556
884.646	20644
884.772	20651
884.897	20583
885.023	20663
885.148	20735
885.274	20807
885.399	20769
885.524	20629
885.65	20663
885.775	20579
885.9	20594
886.025	20670
886.15	20750
886.275	20522
886.4	20552
886.525	20552
886.65	20526
886.775	20568
886.9	20750
887.025	20796
887.149	20727
887.274	20415
887.399	20343
887.523	20347
887.648	20278
887.773	20221
887.897	20511
888.021	20488
888.146	20298
888.27	20526
888.395	20404
888.519	20484
888.643	20461
888.767	20419
888.891	20381
889.015	20233
889.139	20267
889.263	20157
889.387	20126
889.511	20492
889.635	20404
889.759	20267
889.883	20157
890.006	20248
890.13	20301
890.254	20122
890.377	20225
890.501	19970
890.624	19875
890.748	20027
890.871	19856
890.995	19651
891.118	19757
891.241	19700
891.364	19708
891.488	19765
891.611	19822
891.734	19780
891.857	19795
891.98	19750
892.103	19776
892.226	19765
892.349	19670
892.471	19597
892.594	19700
892.717	19655
892.839	19681
892.962	19753
893.085	19731
893.207	19723
893.33	19472
893.452	19613
893.575	19605
893.697	19708
893.819	19906
893.941	19898
894.064	19738
894.186	19670
894.308	19677
894.43	19890
894.552	19879
894.674	19791
894.796	19537
894.918	19605
895.04	19674
895.161	19662
895.283	19681
895.405	19552
895.526	19651
895.648	19841
895.769	19719
895.891	19647
896.012	19822
896.134	19689
896.255	19559
896.376	19647
896.498	19677
896.619	19696
896.74	19727
896.861	19776
896.982	20005
897.103	20210
897.224	19993
897.345	19898
897.466	19814
897.587	20005
897.708	20058
897.828	19959
897.949	19849
898.07	19723
898.19	19833
898.311	19921
898.431	19909
898.552	19989
898.672	20039
898.792	19970
898.913	19936
899.033	19700
899.153	19655
899.273	19556
899.393	19635
899.513	19632
899.633	19677
899.753	19734
899.873	19582
899.993	19590
900.113	19571
900.232	19666
900.352	19521
900.472	19472
900.591	19354
900.711	19464
900.83	19362
900.95	19441
901.069	19624
901.189	19327
901.308	19122
901.427	19015
901.546	19004
901.665	19080
901.784	18962
901.904	18939
902.023	18901
902.141	18715
902.26	18593
902.379	18623
902.498	18578
902.617	18555
902.735	18669
902.854	18441
902.973	18372
903.091	18277
903.21	18133
903.328	18304
903.446	18197
903.565	18022
903.683	18015
903.801	17897
903.919	18034
904.038	17912
904.156	17798
904.274	17809
904.392	17756
904.51	17756
904.627	17779
904.745	17859
904.863	17821
904.981	17505
905.098	17512
905.216	17524
905.334	17490
905.451	17478
905.569	17516
905.686	17566
905.803	17440
905.921	17235
906.038	17307
906.155	17307
906.272	17159
906.389	17269
906.506	17071
906.623	17109
906.74	17029
906.857	16957
906.974	16965
907.091	17094
907.208	17090
907.324	17067
907.441	16961
907.557	16805
907.674	16706
907.79	16634
907.907	16733
908.023	16736
908.139	16733
908.256	16710
908.372	16668
908.488	16634
908.604	16500
908.72	16459
908.836	16398
908.952	16440
909.068	16550
909.184	16565
909.3	16424
909.415	16428
909.531	16451
909.647	16253
909.762	16192
909.878	16128
909.993	16135
910.108	16097
910.224	16181
910.339	16147
910.454	16059
910.57	15964
910.685	15892
910.8	16253
910.915	16143
911.03	15873
911.145	15770
911.259	15869
911.374	15778
911.489	15751
911.604	15679
911.718	15538
911.833	15568
911.947	15485
912.062	15511
912.176	15606
912.291	15576
912.405	15618
912.519	15743
912.633	15774
912.748	15629
912.862	15519
912.976	15363
913.09	15310
913.204	15306
913.318	15416
913.431	15401
913.545	15450
913.659	15454
913.772	15321
913.886	15279
914	15146
914.113	15283
914.226	15317
914.34	15214
914.453	15066
914.566	15222
914.68	15176
914.793	15119
914.906	14914
915.019	14731
915.132	14682
915.245	14880
915.358	14845
915.47	14823
915.583	14724
915.696	14876
915.809	14864
915.921	14804
916.034	14777
916.146	14777
916.259	14712
916.371	14746
916.483	14777
916.595	14712
916.708	14602
916.82	14636
916.932	14644
917.044	14705
917.156	14556
917.268	14537
917.38	14461
917.491	14469
917.603	14533
917.715	14571
917.826	14541
917.938	14385
918.049	14252
918.161	14355
918.272	14545
918.384	14473
918.495	14530
918.606	14332
918.717	14172
918.828	14320
918.939	14339
919.05	14191
919.161	14298
919.272	14096
919.383	14115
919.494	14271
919.604	14336
919.715	14145
919.826	14187
919.936	14145
920.047	14267
920.157	14180
920.267	14484
920.378	14336
920.488	14103
920.598	14320
920.708	14526
920.818	14317
920.928	14328
921.038	14412
921.148	14499
921.258	14157
921.368	14126
921.477	13894
921.587	13909
921.697	13856
921.806	14035
921.916	13852
922.025	13738
922.134	13636
922.244	13529
922.353	13597
922.462	13582
922.571	13426
922.68	13289
922.789	13301
922.898	13236
923.007	13171
923.116	13308
923.224	13274
923.333	13213
923.442	13088
923.55	13129
923.659	13088
923.767	13221
923.876	13050
923.984	13091
924.092	12985
924.201	13084
924.309	12943
924.417	13042
924.525	12996
924.633	12981
924.741	13967
924.849	12787
924.956	12935
925.064	12703
925.172	12608
925.279	12707
925.387	12741
925.494	12745
925.602	12798
925.709	12688
925.816	12597
925.924	12635
926.031	12642
926.138	12650
926.245	12662
926.352	12525
926.459	12684
926.566	12791
926.673	12604
926.779	12460
926.886	12486
926.993	12285
927.099	12289
927.206	12239
927.312	12197
927.419	12338
927.525	12232
927.631	12273
927.737	12087
927.843	12102
927.95	11988
928.056	12098
928.162	12159
928.267	12175
928.373	12616
928.479	12133
928.585	11946
928.69	12030
928.796	12136
928.901	11935
929.007	11824
929.112	11931
929.218	11931
929.323	11901
929.428	11779
929.533	11950
929.638	11802
929.743	11714
929.848	11836
929.953	11817
930.058	11672
930.163	11630
930.267	11524
930.372	11733
930.477	11551
930.581	11775
930.685	11539
930.79	11372
930.894	11455
930.998	11349
931.103	11509
931.207	11124
931.311	11155
931.415	10946
931.519	10774
931.623	10824
