Data from test_V78500241_605.txt Node
Date: Fri Mar 25 15:14:04 CST 2022
User: usil
Spectrometer: V785-0024
Trigger mode: 0
Integration Time (sec): 4.000000E-1
Scans to average: 1
Nonlinearity correction enabled: false
Boxcar width: 0
Storing dark spectrum: false
XAxis mode: Wavelengths
Number of Pixels in Spectrum: 1024
>>>>>Begin Spectral Data<<<<<
801.071	27462
801.214	27408
801.356	27150
801.499	27180
801.641	27100
801.783	27051
801.926	27020
802.068	27100
802.211	26883
802.353	26929
802.496	26735
802.638	26651
802.78	26781
802.923	26583
803.065	26617
803.208	26621
803.35	26727
803.492	26746
803.635	26838
803.777	26575
803.919	26823
804.061	27146
804.204	26906
804.346	26758
804.488	26762
804.63	26743
804.773	26693
804.915	26845
805.057	26842
805.199	26925
805.341	26857
805.483	27081
805.626	26948
805.768	26807
805.91	26781
806.052	26960
806.194	26910
806.336	27154
806.478	26940
806.62	26921
806.762	27051
806.904	27207
807.046	27458
807.188	27382
807.33	27310
807.472	27359
807.614	27241
807.756	27344
807.898	27294
808.04	27233
808.182	27180
808.324	27096
808.465	27169
808.607	27401
808.749	27443
808.891	27614
809.033	27857
809.174	27641
809.316	27545
809.458	27633
809.6	27603
809.741	27812
809.883	27720
810.025	27808
810.166	27892
810.308	27941
810.45	27861
810.591	27873
810.733	27606
810.875	27568
811.016	27427
811.158	27439
811.299	27682
811.441	27694
811.582	27580
811.724	27663
811.865	27374
812.007	27633
812.148	27530
812.29	27587
812.431	27663
812.573	27979
812.714	28097
812.855	28090
812.997	28112
813.138	28223
813.279	28185
813.421	28135
813.562	28101
813.703	27930
813.845	27873
813.986	27488
814.127	27283
814.268	27226
814.41	27348
814.551	27222
814.692	27230
814.833	27176
814.974	27332
815.115	27157
815.256	27138
815.397	27138
815.539	27268
815.68	27013
815.821	26986
815.962	27146
816.103	27150
816.244	26750
816.385	26731
816.526	26804
816.666	26663
816.807	26564
816.948	26560
817.089	26777
817.23	26598
817.371	26549
817.512	26571
817.653	26571
817.793	26518
817.934	26617
818.075	26446
818.216	26438
818.356	26533
818.497	26450
818.638	26271
818.778	26339
818.919	26434
819.06	26328
819.2	26575
819.341	26484
819.481	26484
819.622	26686
819.762	26754
819.903	26724
820.043	26785
820.184	26678
820.324	26686
820.465	26705
820.605	26617
820.746	26583
820.886	26507
821.026	26568
821.167	26571
821.307	26583
821.447	26765
821.588	26492
821.728	26393
821.868	26259
822.008	26142
822.149	25959
822.289	25959
822.429	25791
822.569	25723
822.709	25708
822.849	25495
822.99	25559
823.13	25358
823.27	25411
823.41	25365
823.55	25183
823.69	25289
823.83	25365
823.97	25293
824.11	25202
824.25	25110
824.389	25202
824.529	25369
824.669	25175
824.809	25247
824.949	25240
825.089	25240
825.228	25331
825.368	24973
825.508	25095
825.648	24962
825.787	25137
825.927	25004
826.067	24863
826.206	25122
826.346	25034
826.485	25088
826.625	24928
826.765	25133
826.904	25164
827.044	24837
827.183	24741
827.323	24795
827.462	24764
827.601	24741
827.741	24738
827.88	24749
828.02	24681
828.159	24681
828.298	24703
828.437	24757
828.577	24757
828.716	24768
828.855	24703
828.994	24528
829.134	24597
829.273	24547
829.412	24467
829.551	24437
829.69	24311
829.829	24422
829.968	24559
830.107	24536
830.246	24483
830.385	24410
830.524	24327
830.663	24201
830.802	24197
830.941	24057
831.08	24038
831.219	24076
831.357	24171
831.496	24251
831.635	24117
831.774	23904
831.913	24034
832.051	23904
832.19	23912
832.329	23950
832.467	23889
832.606	23741
832.744	23649
832.883	23672
833.022	23726
833.16	23665
833.299	23779
833.437	23676
833.576	23783
833.714	23809
833.852	23893
833.991	23916
834.129	23916
834.267	23870
834.406	23813
834.544	23927
834.682	23828
834.821	23878
834.959	23897
835.097	23764
835.235	23885
835.373	23790
835.511	23828
835.65	23668
835.788	23615
835.926	23589
836.064	23471
836.202	23547
836.34	23619
836.478	23726
836.615	23611
836.753	23649
836.891	23703
837.029	23680
837.167	23581
837.305	23429
837.443	23547
837.58	23482
837.718	23543
837.856	23547
837.993	23455
838.131	23501
838.269	23315
838.406	23455
838.544	23341
838.681	23071
838.819	23102
838.956	22873
839.094	22965
839.231	22927
839.369	23124
839.506	23345
839.643	23242
839.781	23025
839.918	22885
840.055	22919
840.193	22942
840.33	22915
840.467	22847
840.604	22938
840.742	23204
840.879	22809
841.016	22869
841.153	22634
841.29	22980
841.427	23037
841.564	22809
841.701	22786
841.838	22805
841.975	22850
842.112	22736
842.249	22721
842.385	22645
842.522	22771
842.659	22592
842.796	22771
842.933	22713
843.069	22516
843.206	22588
843.343	22710
843.479	22805
843.616	22508
843.752	22447
843.889	22474
844.025	22542
844.162	22470
844.298	22421
844.435	22390
844.571	22295
844.708	22402
844.844	22512
844.98	22611
845.117	22508
845.253	22352
845.389	22276
845.525	22379
845.661	22299
845.798	22242
845.934	22196
846.07	22074
846.206	22070
846.342	22246
846.478	22128
846.614	21994
846.75	21975
846.886	21903
847.022	22051
847.158	21861
847.294	21884
847.429	21994
847.565	21842
847.701	22124
847.837	21606
847.972	21606
848.108	21720
848.244	21701
848.379	21576
848.515	21511
848.65	21454
848.786	21511
848.921	21492
849.057	21682
849.192	21553
849.328	21481
849.463	21530
849.598	21325
849.734	21507
849.869	21264
850.004	21275
850.14	21279
850.275	21302
850.41	21260
850.545	21169
850.68	21252
850.815	21294
850.95	21230
851.085	21367
851.22	21397
851.355	21370
851.49	21214
851.625	21302
851.76	21222
851.895	21260
852.03	21074
852.165	21161
852.299	21112
852.434	21325
852.569	21291
852.703	21207
852.838	21291
852.973	21370
853.107	21389
853.242	21146
853.376	21165
853.511	21013
853.645	20918
853.78	21237
853.914	21176
854.048	20971
854.183	21074
854.317	20986
854.451	21287
854.585	21093
854.72	21116
854.854	21123
854.988	21055
855.122	21066
855.256	20918
855.39	21036
855.524	21161
855.658	21195
855.792	21108
855.926	21070
856.06	21150
856.194	21188
856.327	21203
856.461	21036
856.595	20963
856.729	21062
856.862	21233
856.996	21154
857.13	21279
857.263	21188
857.397	21192
857.53	21119
857.664	21066
857.797	21062
857.931	21180
858.064	21085
858.197	21252
858.331	21104
858.464	20979
858.597	20929
858.731	21096
858.864	21036
858.997	20929
859.13	21150
859.263	21161
859.396	21154
859.529	21116
859.662	20960
859.795	21089
859.928	21093
860.061	21287
860.194	21378
860.327	21169
860.46	21157
860.592	21195
860.725	21157
860.858	21302
860.99	21036
861.123	21036
861.256	21195
861.388	21081
861.521	22002
861.653	20910
861.786	20815
861.918	21020
862.05	20933
862.183	21058
862.315	20982
862.447	21161
862.58	21058
862.712	20769
862.844	20800
862.976	20906
863.108	20788
863.24	21264
863.372	20739
863.504	20758
863.636	20864
863.768	20773
863.9	20746
864.032	20788
864.164	20731
864.296	20682
864.428	20765
864.559	20796
864.691	20861
864.823	20845
864.954	20667
865.086	20830
865.217	20769
865.349	20682
865.48	20632
865.612	20625
865.743	20708
865.875	20735
866.006	20571
866.137	20651
866.269	20682
866.4	20689
866.531	20625
866.662	20629
866.793	20598
866.924	20655
867.055	20602
867.186	20606
867.317	20678
867.448	20606
867.579	20617
867.71	20518
867.841	20511
867.972	20636
868.103	20541
868.233	20674
868.364	20644
868.495	20682
868.625	20849
868.756	20956
868.886	20777
869.017	20933
869.147	20880
869.278	20952
869.408	20826
869.539	20815
869.669	20979
869.799	20906
869.929	20982
870.06	20979
870.19	21165
870.32	21161
870.45	21214
870.58	21279
870.71	21370
870.84	21393
870.97	21245
871.1	21306
871.23	21507
871.36	21504
871.489	21298
871.619	21405
871.749	21507
871.879	21492
872.008	21450
872.138	21435
872.267	21534
872.397	21279
872.526	21393
872.656	21348
872.785	21367
872.915	21549
873.044	21564
873.173	21485
873.303	21500
873.432	21542
873.561	21694
873.69	21500
873.819	21488
873.948	21504
874.077	21580
874.206	21462
874.335	21526
874.464	21713
874.593	21701
874.722	21648
874.851	21671
874.979	21854
875.108	21831
875.237	21720
875.365	21595
875.494	21618
875.623	21751
875.751	21660
875.88	21694
876.008	21781
876.136	21926
876.265	22063
876.393	22211
876.521	22128
876.65	22207
876.778	22200
876.906	22010
877.034	22074
877.162	21953
877.29	22082
877.418	21983
877.546	22143
877.674	21945
877.802	22048
877.93	22070
878.058	22051
878.185	21983
878.313	22021
878.441	22067
878.568	21968
878.696	21823
878.824	22097
878.951	22120
879.079	22234
879.206	22375
879.333	22257
879.461	22158
879.588	22249
879.715	22272
879.842	22306
879.97	22162
880.097	21907
880.224	21865
880.351	21953
880.478	21915
880.605	21831
880.732	21892
880.859	22044
880.986	21911
881.112	21736
881.239	21789
881.366	21644
881.493	21576
881.619	21428
881.746	21401
881.872	21477
881.999	21412
882.125	21374
882.252	21580
882.378	21466
882.505	21583
882.631	21332
882.757	21306
882.883	21283
883.01	21173
883.136	21146
883.262	21055
883.388	20948
883.514	21218
883.64	21112
883.766	21108
883.892	20914
884.018	20876
884.143	21192
884.269	21321
884.395	20933
884.52	20788
884.646	20842
884.772	20750
884.897	20705
885.023	20868
885.148	20986
885.274	20853
885.399	20785
885.524	20750
885.65	20868
885.775	20842
885.9	20838
886.025	20937
886.15	20834
886.275	20678
886.4	20670
886.525	20678
886.65	20739
886.775	20804
886.9	20826
887.025	21047
887.149	20845
887.274	20636
887.399	20659
887.523	20526
887.648	20431
887.773	20480
887.897	20659
888.021	20522
888.146	20465
888.27	20678
888.395	20579
888.519	20560
888.643	20594
888.767	20632
888.891	20526
889.015	20389
889.139	20434
889.263	20374
889.387	20549
889.511	20549
889.635	20530
889.759	20358
889.883	20324
890.006	20324
890.13	20457
890.254	20286
890.377	20336
890.501	20164
890.624	20145
890.748	20221
890.871	20092
890.995	19871
891.118	19890
891.241	19894
891.364	19932
891.488	20153
891.611	19871
891.734	19841
891.857	19974
891.98	20077
892.103	19898
892.226	20024
892.349	20012
892.471	19723
892.594	19772
892.717	19944
892.839	19917
892.962	19959
893.085	19940
893.207	19894
893.33	19769
893.452	19909
893.575	19784
893.697	19928
893.819	19940
893.941	20077
894.064	19940
894.186	19864
894.308	19772
894.43	19913
894.552	20001
894.674	19898
894.796	19856
894.918	19879
895.04	19818
895.161	19940
895.283	19932
895.405	19594
895.526	19845
895.648	19860
895.769	19750
895.891	19894
896.012	20001
896.134	19913
896.255	19784
896.376	19689
896.498	19936
896.619	19883
896.74	19887
896.861	19837
896.982	20111
897.103	20332
897.224	20096
897.345	20096
897.466	20031
897.587	20122
897.708	20278
897.828	20157
897.949	20081
898.07	19951
898.19	20164
898.311	20077
898.431	20130
898.552	20119
898.672	20077
898.792	20149
898.913	20119
899.033	19993
899.153	20016
899.273	19822
899.393	19883
899.513	19814
899.633	19791
899.753	19868
899.873	19807
899.993	19849
900.113	19860
900.232	19883
900.352	19807
900.472	19658
900.591	19647
900.711	19567
900.83	19689
900.95	19811
901.069	19647
901.189	19529
901.308	19327
901.427	19244
901.546	19156
901.665	19198
901.784	19179
901.904	19103
902.023	18958
902.141	18730
902.26	18787
902.379	18696
902.498	18844
902.617	18658
902.735	18798
902.854	18574
902.973	18696
903.091	18448
903.21	18334
903.328	18441
903.446	18258
903.565	18228
903.683	18239
903.801	18117
903.919	18045
904.038	18144
904.156	18068
904.274	18015
904.392	17908
904.51	17939
904.627	17923
904.745	17958
904.863	18076
904.981	17805
905.098	17775
905.216	17657
905.334	17615
905.451	17710
905.569	17699
905.686	17699
905.803	17703
905.921	17501
906.038	17566
906.155	17497
906.272	17341
906.389	17417
906.506	17280
906.623	17193
906.74	17174
906.857	17075
906.974	17086
907.091	17242
907.208	17277
907.324	17326
907.441	17083
907.557	16972
907.674	16930
907.79	16820
907.907	16881
908.023	17025
908.139	16885
908.256	16778
908.372	16904
908.488	16793
908.604	16645
908.72	16702
908.836	16721
908.952	16687
909.068	16565
909.184	16710
909.3	16668
909.415	16634
909.531	16611
909.647	16424
909.762	16272
909.878	16337
909.993	16348
910.108	16337
910.224	16398
910.339	16390
910.454	16325
910.57	16169
910.685	16059
910.8	16379
910.915	16318
911.03	16196
911.145	15941
911.259	15911
911.374	15926
911.489	15915
911.604	15762
911.718	15751
911.833	15705
911.947	15553
912.062	15386
912.176	15705
912.291	15652
912.405	15682
912.519	15972
912.633	15838
912.748	15728
912.862	15656
912.976	15549
913.09	15420
913.204	15382
913.318	15557
913.431	15618
913.545	15599
913.659	15591
913.772	15466
913.886	15348
914	15233
914.113	15310
914.226	15412
914.34	15321
914.453	15268
914.566	15351
914.68	15142
914.793	15150
914.906	15085
915.019	14918
915.132	14872
915.245	14918
915.358	14864
915.47	14899
915.583	14891
915.696	14956
915.809	15013
915.921	15055
916.034	14914
916.146	14792
916.259	14739
916.371	14883
916.483	14819
916.595	14758
916.708	14800
916.82	14800
916.932	14686
917.044	14708
917.156	14663
917.268	14575
917.38	14590
917.491	14530
917.603	14663
917.715	14705
917.826	14667
917.938	14587
918.049	14476
918.161	14663
918.272	14613
918.384	14701
918.495	14549
918.606	14389
918.717	14305
918.828	14320
918.939	14389
919.05	14271
919.161	14301
919.272	14103
919.383	14248
919.494	14412
919.604	14579
919.715	14309
919.826	14294
919.936	14256
920.047	14320
920.157	14389
920.267	14598
920.378	14362
920.488	14305
920.598	14514
920.708	14590
920.818	14370
920.928	14549
921.038	14522
921.148	14518
921.258	14298
921.368	14092
921.477	14073
921.587	14046
921.697	13932
921.806	14126
921.916	13906
922.025	13852
922.134	13712
922.244	13742
922.353	13761
922.462	13537
922.571	13480
922.68	13392
922.789	13350
922.898	13343
923.007	13270
923.116	13316
923.224	13240
923.333	13354
923.442	13190
923.55	13225
923.659	13244
923.767	13179
923.876	13149
923.984	13152
924.092	13042
924.201	13164
924.309	13145
924.417	13122
924.525	12977
924.633	13069
924.741	13765
924.849	12833
924.956	12924
925.064	12745
925.172	12726
925.279	12741
925.387	12745
925.494	12802
925.602	12814
925.709	12787
925.816	12753
925.924	12719
926.031	12859
926.138	12791
926.245	12749
926.352	12589
926.459	12711
926.566	12806
926.673	12703
926.779	12532
926.886	12464
926.993	12429
927.099	12338
927.206	12296
927.312	12232
927.419	12407
927.525	12403
927.631	12346
927.737	12235
927.843	12194
927.95	11988
928.056	12224
928.162	12163
928.267	12182
928.373	12806
928.479	12239
928.585	12045
928.69	12163
928.796	12098
928.901	12015
929.007	11897
929.112	12045
929.218	11942
929.323	11954
929.428	11984
929.533	12068
929.638	11821
929.743	11893
929.848	11935
929.953	11798
930.058	11737
930.163	11581
930.267	11688
930.372	11794
930.477	11539
930.581	11748
930.685	11573
930.79	11410
930.894	11505
930.998	11455
931.103	11539
931.207	11231
931.311	11136
931.415	11025
931.519	10949
931.623	10843
