Data from test_V78500241_2935.txt Node
Date: Fri Mar 25 15:30:17 CST 2022
User: usil
Spectrometer: V785-0024
Trigger mode: 0
Integration Time (sec): 4.000000E-1
Scans to average: 1
Nonlinearity correction enabled: false
Boxcar width: 0
Storing dark spectrum: false
XAxis mode: Wavelengths
Number of Pixels in Spectrum: 1024
>>>>>Begin Spectral Data<<<<<
801.071	27306
801.214	27268
801.356	27077
801.499	26963
801.641	26883
801.783	26807
801.926	26902
802.068	26861
802.211	26857
802.353	26720
802.496	26499
802.638	26465
802.78	26450
802.923	26339
803.065	26446
803.208	26358
803.35	26442
803.492	26583
803.635	26636
803.777	26499
803.919	26625
804.061	27074
804.204	26621
804.346	26659
804.488	26537
804.63	26701
804.773	26587
804.915	26613
805.057	26632
805.199	26625
805.341	26693
805.483	26838
805.626	26712
805.768	26644
805.91	26716
806.052	26632
806.194	26568
806.336	26914
806.478	26697
806.62	26857
806.762	26739
806.904	26937
807.046	27138
807.188	27180
807.33	27252
807.472	27176
807.614	27036
807.756	27039
807.898	27017
808.04	27020
808.182	27001
808.324	27024
808.465	27112
808.607	27127
808.749	27389
808.891	27393
809.033	27511
809.174	27523
809.316	27469
809.458	27230
809.6	27226
809.741	27477
809.883	27397
810.025	27625
810.166	27637
810.308	27568
810.45	27530
810.591	27507
810.733	27298
810.875	27268
811.016	27283
811.158	27389
811.299	27500
811.441	27481
811.582	27332
811.724	27450
811.865	27298
812.007	27260
812.148	27363
812.29	27359
812.431	27504
812.573	27652
812.714	27751
812.855	27907
812.997	27998
813.138	27918
813.279	27846
813.421	27861
813.562	27766
813.703	27595
813.845	27462
813.986	27226
814.127	27104
814.268	26918
814.41	27036
814.551	26880
814.692	27096
814.833	26918
814.974	26990
815.115	27066
815.256	26880
815.397	26880
815.539	26849
815.68	26887
815.821	26811
815.962	26735
816.103	26807
816.244	26663
816.385	26461
816.526	26514
816.666	26453
816.807	26164
816.948	26183
817.089	26389
817.23	26256
817.371	26294
817.512	26282
817.653	26305
817.793	26138
817.934	26100
818.075	26290
818.216	26298
818.356	26301
818.497	26138
818.638	26031
818.778	26126
818.919	26134
819.06	25997
819.2	26126
819.341	26278
819.481	26286
819.622	26450
819.762	26648
819.903	26522
820.043	26545
820.184	26351
820.324	26320
820.465	26438
820.605	26438
820.746	26366
820.886	26221
821.026	26275
821.167	26282
821.307	26404
821.447	26206
821.588	26088
821.728	25951
821.868	25913
822.008	25620
822.149	25674
822.289	25753
822.429	25377
822.569	25339
822.709	25422
822.849	25179
822.99	25255
823.13	25076
823.27	25175
823.41	25065
823.55	24878
823.69	25076
823.83	25012
823.97	24989
824.11	24859
824.25	24741
824.389	24779
824.529	24932
824.669	24882
824.809	24951
824.949	25023
825.089	24848
825.228	24745
825.368	24711
825.508	24604
825.648	24604
825.787	24726
825.927	24741
826.067	24741
826.206	24772
826.346	24669
826.485	24764
826.625	24760
826.765	24825
826.904	24696
827.044	24559
827.183	24536
827.323	24445
827.462	24525
827.601	24456
827.741	24418
827.88	24460
828.02	24289
828.159	24342
828.298	24342
828.437	24311
828.577	24429
828.716	24456
828.855	24353
828.994	24110
829.134	24133
829.273	24239
829.412	24167
829.551	24083
829.69	24125
829.829	24239
829.968	24209
830.107	24182
830.246	24083
830.385	23988
830.524	24053
830.663	23904
830.802	23733
830.941	23855
831.08	23665
831.219	23745
831.357	23672
831.496	23847
831.635	23703
831.774	23558
831.913	23638
832.051	23509
832.19	23577
832.329	23509
832.467	23406
832.606	23334
832.744	23269
832.883	23376
833.022	23311
833.16	23353
833.299	23455
833.437	23258
833.576	23410
833.714	23433
833.852	23402
833.991	23482
834.129	23573
834.267	23410
834.406	23395
834.544	23379
834.682	23231
834.821	23440
834.959	23554
835.097	23356
835.235	23490
835.373	23372
835.511	23436
835.65	23307
835.788	23360
835.926	23113
836.064	23159
836.202	23086
836.34	23227
836.478	23353
836.615	23235
836.753	23345
836.891	23311
837.029	23216
837.167	23280
837.305	23181
837.443	23181
837.58	23140
837.718	23056
837.856	23178
837.993	23010
838.131	23132
838.269	23044
838.406	23136
838.544	22957
838.681	22900
838.819	22660
838.956	22569
839.094	22596
839.231	22691
839.369	22862
839.506	23033
839.643	22824
839.781	22554
839.918	22557
840.055	22596
840.193	22443
840.33	22508
840.467	22523
840.604	22519
840.742	22831
840.879	22527
841.016	22493
841.153	22451
841.29	22637
841.427	22451
841.564	22622
841.701	22485
841.838	22485
841.975	22337
842.112	22466
842.249	22360
842.385	22291
842.522	22504
842.659	22314
842.796	22253
842.933	22261
843.069	22268
843.206	22276
843.343	22291
843.479	22185
843.616	22150
843.752	22082
843.889	22036
844.025	22112
844.162	22029
844.298	22120
844.435	22070
844.571	22010
844.708	22017
844.844	22139
844.98	22158
845.117	22036
845.253	21998
845.389	21895
845.525	21994
845.661	22112
845.798	21838
845.934	21816
846.07	21873
846.206	21823
846.342	21789
846.478	21690
846.614	21515
846.75	21526
846.886	21431
847.022	21504
847.158	21447
847.294	21648
847.429	21587
847.565	21504
847.701	21785
847.837	21298
847.972	21237
848.108	21294
848.244	21310
848.379	21252
848.515	21043
848.65	21074
848.786	21150
848.921	21093
849.057	21252
849.192	21169
849.328	21074
849.463	21070
849.598	21032
849.734	21036
849.869	20994
850.004	20804
850.14	20849
850.275	20998
850.41	20807
850.545	20762
850.68	20857
850.815	20830
850.95	20948
851.085	21146
851.22	20868
851.355	20842
851.49	20811
851.625	20921
851.76	20883
851.895	20735
852.03	20731
852.165	20819
852.299	20956
852.434	20956
852.569	20952
852.703	20921
852.838	20998
852.973	20979
853.107	20990
853.242	20864
853.376	20777
853.511	20621
853.645	20659
853.78	20823
853.914	20705
854.048	20617
854.183	20667
854.317	20804
854.451	20826
854.585	20674
854.72	20602
854.854	20845
854.988	20571
855.122	20640
855.256	20621
855.39	20655
855.524	20823
855.658	20830
855.792	20682
855.926	20762
856.06	20750
856.194	20792
856.327	20659
856.461	20686
856.595	20499
856.729	20762
856.862	20765
856.996	20762
857.13	20765
857.263	20861
857.397	20819
857.53	20853
857.664	20731
857.797	20754
857.931	20727
858.064	20606
858.197	20811
858.331	20670
858.464	20598
858.597	20552
858.731	20651
858.864	20758
858.997	20689
859.13	20636
859.263	20609
859.396	20678
859.529	20712
859.662	20590
859.795	20606
859.928	20678
860.061	20826
860.194	20937
860.327	20823
860.46	20659
860.592	20838
860.725	20815
860.858	20857
860.99	20674
861.123	20621
861.256	20693
861.388	20659
861.521	21317
861.653	20530
861.786	20339
861.918	20495
862.05	20594
862.183	20625
862.315	20621
862.447	20678
862.58	20648
862.712	20457
862.844	20450
862.976	20484
863.108	20488
863.24	21001
863.372	20324
863.504	20423
863.636	20370
863.768	20412
863.9	20358
864.032	20244
864.164	20415
864.296	20358
864.428	20579
864.559	20552
864.691	20385
864.823	20396
864.954	20358
865.086	20355
865.217	20180
865.349	20282
865.48	20374
865.612	20385
865.743	20370
865.875	20305
866.006	20233
866.137	20225
866.269	20221
866.4	20290
866.531	20278
866.662	20172
866.793	20237
866.924	20256
867.055	20244
867.186	20229
867.317	20256
867.448	20195
867.579	20172
867.71	20164
867.841	20180
867.972	20320
868.103	20244
868.233	20168
868.364	20286
868.495	20370
868.625	20488
868.756	20526
868.886	20366
869.017	20484
869.147	20571
869.278	20530
869.408	20541
869.539	20507
869.669	20659
869.799	20537
869.929	20568
870.06	20625
870.19	20853
870.32	20861
870.45	20819
870.58	20982
870.71	20842
870.84	21032
870.97	20902
871.1	20762
871.23	21043
871.36	21081
871.489	20925
871.619	20944
871.749	21066
871.879	21077
872.008	21287
872.138	21036
872.267	20998
872.397	21028
872.526	20834
872.656	20838
872.785	20880
872.915	21108
873.044	21214
873.173	21108
873.303	21173
873.432	21150
873.561	21374
873.69	21184
873.819	21173
873.948	21203
874.077	21161
874.206	21104
874.335	21119
874.464	21226
874.593	21428
874.722	21332
874.851	21401
874.979	21416
875.108	21439
875.237	21184
875.365	21241
875.494	21355
875.623	21420
875.751	21256
875.88	21405
876.008	21515
876.136	21564
876.265	21781
876.393	21956
876.521	21892
876.65	21903
876.778	21732
876.906	21739
877.034	21709
877.162	21671
877.29	21549
877.418	21614
877.546	21739
877.674	21660
877.802	21717
877.93	21652
878.058	21663
878.185	21660
878.313	21682
878.441	21694
878.568	21557
878.696	21519
878.824	21637
878.951	21705
879.079	21895
879.206	21987
879.333	21945
879.461	21778
879.588	21789
879.715	21728
879.842	22086
879.97	21724
880.097	21526
880.224	21568
880.351	21553
880.478	21561
880.605	21538
880.732	21485
880.859	21755
880.986	21534
881.112	21428
881.239	21496
881.366	21272
881.493	21089
881.619	21173
881.746	21214
881.872	21112
881.999	21112
882.125	20967
882.252	21157
882.378	21157
882.505	21058
882.631	20960
882.757	20845
882.883	20792
883.01	20910
883.136	20758
883.262	20800
883.388	20682
883.514	20800
883.64	20937
883.766	20648
883.892	20556
884.018	20625
884.143	20724
884.269	20823
884.395	20560
884.52	20492
884.646	20488
884.772	20427
884.897	20412
885.023	20495
885.148	20594
885.274	20587
885.399	20651
885.524	20587
885.65	20461
885.775	20556
885.9	20438
886.025	20598
886.15	20541
886.275	20374
886.4	20404
886.525	20305
886.65	20298
886.775	20400
886.9	20507
887.025	20609
887.149	20442
887.274	20324
887.399	20199
887.523	20119
887.648	20248
887.773	20233
887.897	20286
888.021	20259
888.146	20103
888.27	20404
888.395	20290
888.519	20172
888.643	20366
888.767	20298
888.891	20024
889.015	20145
889.139	20092
889.263	20008
889.387	20240
889.511	20225
889.635	20107
889.759	19974
889.883	20058
890.006	20092
890.13	20081
890.254	19947
890.377	19925
890.501	19856
890.624	19727
890.748	19917
890.871	19765
890.995	19556
891.118	19624
891.241	19601
891.364	19647
891.488	19727
891.611	19639
891.734	19624
891.857	19655
891.98	19655
892.103	19605
892.226	19628
892.349	19521
892.471	19460
892.594	19559
892.717	19647
892.839	19521
892.962	19548
893.085	19635
893.207	19537
893.33	19388
893.452	19537
893.575	19620
893.697	19430
893.819	19742
893.941	19860
894.064	19632
894.186	19537
894.308	19506
894.43	19651
894.552	19685
894.674	19483
894.796	19396
894.918	19670
895.04	19434
895.161	19578
895.283	19601
895.405	19491
895.526	19552
895.648	19567
895.769	19483
895.891	19712
896.012	19658
896.134	19632
896.255	19556
896.376	19480
896.498	19556
896.619	19601
896.74	19582
896.861	19578
896.982	19890
897.103	20039
897.224	19940
897.345	19818
897.466	19753
897.587	19772
897.708	19936
897.828	19822
897.949	19791
898.07	19518
898.19	19677
898.311	19970
898.431	19814
898.552	19731
898.672	19856
898.792	20012
898.913	19757
899.033	19666
899.153	19590
899.273	19548
899.393	19708
899.513	19548
899.633	19521
899.753	19605
899.873	19487
899.993	19590
900.113	19438
900.232	19499
900.352	19415
900.472	19457
900.591	19282
900.711	19331
900.83	19263
900.95	19354
901.069	19472
901.189	19240
901.308	19050
901.427	18985
901.546	18920
901.665	19000
901.784	19023
901.904	18920
902.023	18578
902.141	18547
902.26	18521
902.379	18646
902.498	18460
902.617	18357
902.735	18445
902.854	18330
902.973	18315
903.091	18235
903.21	18243
903.328	18182
903.446	18038
903.565	17969
903.683	17954
903.801	17729
903.919	17916
904.038	17813
904.156	17718
904.274	17741
904.392	17642
904.51	17623
904.627	17737
904.745	17733
904.863	17741
904.981	17501
905.098	17337
905.216	17345
905.334	17398
905.451	17493
905.569	17334
905.686	17417
905.803	17398
905.921	17166
906.038	17322
906.155	17250
906.272	17025
906.389	17048
906.506	16942
906.623	16927
906.74	16949
906.857	16805
906.974	16797
907.091	16934
907.208	16980
907.324	16984
907.441	16881
907.557	16630
907.674	16622
907.79	16584
907.907	16535
908.023	16618
908.139	16767
908.256	16554
908.372	16542
908.488	16599
908.604	16379
908.72	16333
908.836	16440
908.952	16291
909.068	16409
909.184	16440
909.3	16325
909.415	16329
909.531	16352
909.647	16154
909.762	16059
909.878	16006
909.993	16105
910.108	15983
910.224	15987
910.339	15979
910.454	15960
910.57	15937
910.685	15785
910.8	16071
910.915	16017
911.03	15888
911.145	15713
911.259	15587
911.374	15694
911.489	15637
911.604	15561
911.718	15424
911.833	15530
911.947	15405
912.062	15279
912.176	15469
912.291	15473
912.405	15435
912.519	15682
912.633	15504
912.748	15462
912.862	15332
912.976	15233
913.09	15108
913.204	15165
913.318	15279
913.431	15321
913.545	15370
913.659	15340
913.772	15264
913.886	15127
914	14990
914.113	15123
914.226	15138
914.34	15097
914.453	14956
914.566	15074
914.68	14960
914.793	14906
914.906	14857
915.019	14651
915.132	14617
915.245	14602
915.358	14594
915.47	14579
915.583	14697
915.696	14598
915.809	14735
915.921	14864
916.034	14587
916.146	14541
916.259	14571
916.371	14617
916.483	14575
916.595	14530
916.708	14495
916.82	14507
916.932	14366
917.044	14484
917.156	14499
917.268	14294
917.38	14389
917.491	14294
917.603	14347
917.715	14423
917.826	14317
917.938	14294
918.049	14214
918.161	14256
918.272	14488
918.384	14438
918.495	14278
918.606	14172
918.717	13993
918.828	14172
918.939	14142
919.05	14020
919.161	14161
919.272	13883
919.383	13963
919.494	14138
919.604	14271
919.715	14043
919.826	13997
919.936	14031
920.047	14115
920.157	14031
920.267	14244
920.378	14149
920.488	14065
920.598	14210
920.708	14408
920.818	14214
920.928	14229
921.038	14396
921.148	14317
921.258	14008
921.368	13909
921.477	13860
921.587	13807
921.697	13712
921.806	13799
921.916	13708
922.025	13521
922.134	13468
922.244	13472
922.353	13491
922.462	13255
922.571	13251
922.68	13225
922.789	13129
922.898	13118
923.007	13053
923.116	13160
923.224	13175
923.333	13126
923.442	12951
923.55	12977
923.659	12989
923.767	13126
923.876	12894
923.984	13034
924.092	12939
924.201	12859
924.309	12943
924.417	12890
924.525	12745
924.633	12848
924.741	13632
924.849	12536
924.956	12722
925.064	12620
925.172	12494
925.279	12544
925.387	12536
925.494	12601
925.602	12707
925.709	12589
925.816	12521
925.924	12410
926.031	12544
926.138	12467
926.245	12517
926.352	12410
926.459	12616
926.566	12547
926.673	12441
926.779	12296
926.886	12353
926.993	12171
927.099	12235
927.206	12030
927.312	12110
927.419	12216
927.525	12144
927.631	12216
927.737	11996
927.843	12003
927.95	11893
928.056	11999
928.162	12015
928.267	11992
928.373	12566
928.479	12053
928.585	11752
928.69	11836
928.796	11980
928.901	11824
929.007	11764
929.112	11767
929.218	11821
929.323	11691
929.428	11764
929.533	11790
929.638	11695
929.743	11657
929.848	11729
929.953	11630
930.058	11551
930.163	11391
930.267	11406
930.372	11562
930.477	11383
930.581	11623
930.685	11455
930.79	11288
930.894	11292
930.998	11242
931.103	11440
931.207	10938
931.311	11041
931.415	10949
931.519	10717
931.623	10637
