Data from test_V78500241_2560.txt Node
Date: Fri Mar 25 15:27:41 CST 2022
User: usil
Spectrometer: V785-0024
Trigger mode: 0
Integration Time (sec): 4.000000E-1
Scans to average: 1
Nonlinearity correction enabled: false
Boxcar width: 0
Storing dark spectrum: false
XAxis mode: Wavelengths
Number of Pixels in Spectrum: 1024
>>>>>Begin Spectral Data<<<<<
801.071	27283
801.214	27214
801.356	27020
801.499	26883
801.641	26952
801.783	26883
801.926	26823
802.068	26693
802.211	26632
802.353	26632
802.496	26587
802.638	26530
802.78	26488
802.923	26389
803.065	26317
803.208	26457
803.35	26442
803.492	26636
803.635	26659
803.777	26537
803.919	26549
804.061	26891
804.204	26708
804.346	26450
804.488	26594
804.63	26667
804.773	26541
804.915	26667
805.057	26545
805.199	26602
805.341	26594
805.483	26872
805.626	26659
805.768	26678
805.91	26697
806.052	26598
806.194	26583
806.336	27051
806.478	26693
806.62	26720
806.762	26807
806.904	27028
807.046	27157
807.188	27146
807.33	27146
807.472	27089
807.614	27100
807.756	27222
807.898	26952
808.04	26918
808.182	26971
808.324	26883
808.465	26971
808.607	27150
808.749	27393
808.891	27496
809.033	27500
809.174	27397
809.316	27321
809.458	27329
809.6	27207
809.741	27439
809.883	27496
810.025	27656
810.166	27599
810.308	27625
810.45	27466
810.591	27523
810.733	27351
810.875	27367
811.016	27218
811.158	27329
811.299	27325
811.441	27576
811.582	27443
811.724	27382
811.865	27344
812.007	27184
812.148	27279
812.29	27431
812.431	27439
812.573	27614
812.714	27728
812.855	27747
812.997	27831
813.138	27899
813.279	27934
813.421	27846
813.562	27785
813.703	27622
813.845	27469
813.986	27264
814.127	27055
814.268	27039
814.41	26986
814.551	26864
814.692	27089
814.833	26940
814.974	27020
815.115	26887
815.256	26785
815.397	26785
815.539	26921
815.68	26754
815.821	26598
815.962	26686
816.103	26716
816.244	26583
816.385	26476
816.526	26431
816.666	26191
816.807	26153
816.948	26351
817.089	26343
817.23	26191
817.371	26142
817.512	26164
817.653	26122
817.793	26012
817.934	26122
818.075	26294
818.216	26180
818.356	26149
818.497	26035
818.638	26096
818.778	25902
818.919	25978
819.06	26069
819.2	26065
819.341	26271
819.481	26259
819.622	26480
819.762	26419
819.903	26431
820.043	26434
820.184	26278
820.324	26328
820.465	26473
820.605	26221
820.746	26240
820.886	26199
821.026	26138
821.167	26301
821.307	26336
821.447	26237
821.588	26081
821.728	26073
821.868	25913
822.008	25849
822.149	25708
822.289	25582
822.429	25529
822.569	25350
822.709	25358
822.849	25274
822.99	25194
823.13	25213
823.27	25171
823.41	25012
823.55	24958
823.69	24905
823.83	25027
823.97	25015
824.11	24810
824.25	24745
824.389	24787
824.529	24878
824.669	24779
824.809	24871
824.949	24886
825.089	24928
825.228	24939
825.368	24757
825.508	24700
825.648	24700
825.787	24650
825.927	24768
826.067	24665
826.206	24658
826.346	24741
826.485	24840
826.625	24688
826.765	24711
826.904	24779
827.044	24441
827.183	24471
827.323	24437
827.462	24616
827.601	24384
827.741	24513
827.88	24433
828.02	24289
828.159	24342
828.298	24471
828.437	24490
828.577	24384
828.716	24494
828.855	24254
828.994	24121
829.134	24190
829.273	24232
829.412	24186
829.551	23999
829.69	24148
829.829	24174
829.968	24060
830.107	24407
830.246	24228
830.385	24102
830.524	24053
830.663	23885
830.802	23931
830.941	23733
831.08	23718
831.219	23950
831.357	23878
831.496	24026
831.635	23729
831.774	23668
831.913	23615
832.051	23547
832.19	23520
832.329	23478
832.467	23589
832.606	23353
832.744	23353
832.883	23421
833.022	23486
833.16	23368
833.299	23448
833.437	23535
833.576	23436
833.714	23421
833.852	23520
833.991	23505
834.129	23672
834.267	23687
834.406	23608
834.544	23554
834.682	23486
834.821	23611
834.959	23676
835.097	23471
835.235	23467
835.373	23497
835.511	23482
835.65	23433
835.788	23398
835.926	23326
836.064	23200
836.202	23239
836.34	23322
836.478	23330
836.615	23364
836.753	23364
836.891	23524
837.029	23353
837.167	23379
837.305	23368
837.443	23193
837.58	23079
837.718	23239
837.856	23254
837.993	23102
838.131	23166
838.269	23090
838.406	23159
838.544	22889
838.681	22843
838.819	22976
838.956	22615
839.094	22664
839.231	22702
839.369	22858
839.506	23212
839.643	22965
839.781	22675
839.918	22611
840.055	22782
840.193	22675
840.33	22603
840.467	22679
840.604	22763
840.742	22911
840.879	22470
841.016	22611
841.153	22577
841.29	22630
841.427	22630
841.564	22615
841.701	22584
841.838	22584
841.975	22493
842.112	22649
842.249	22440
842.385	22417
842.522	22622
842.659	22394
842.796	22432
842.933	22421
843.069	22337
843.206	22485
843.343	22348
843.479	22413
843.616	22500
843.752	22128
843.889	22238
844.025	22360
844.162	22120
844.298	22192
844.435	22128
844.571	22162
844.708	22242
844.844	22261
844.98	22440
845.117	22363
845.253	22204
845.389	22021
845.525	22074
845.661	22032
845.798	21846
845.934	21953
846.07	21816
846.206	21915
846.342	22017
846.478	21880
846.614	21641
846.75	21557
846.886	21679
847.022	21743
847.158	21701
847.294	21576
847.429	21606
847.565	21648
847.701	21823
847.837	21382
847.972	21401
848.108	21450
848.244	21462
848.379	21218
848.515	21275
848.65	21252
848.786	21264
848.921	21256
849.057	21291
849.192	21363
849.328	21165
849.463	21256
849.598	21150
849.734	21066
849.869	21085
850.004	21062
850.14	21093
850.275	21055
850.41	21020
850.545	21127
850.68	20998
850.815	20963
850.95	20998
851.085	21142
851.22	21146
851.355	20979
851.49	20982
851.625	21009
851.76	21058
851.895	20902
852.03	20948
852.165	20933
852.299	21032
852.434	21051
852.569	20994
852.703	21013
852.838	21009
852.973	21123
853.107	21138
853.242	20998
853.376	20876
853.511	20670
853.645	20705
853.78	20849
853.914	20758
854.048	20746
854.183	20804
854.317	20853
854.451	20918
854.585	20925
854.72	20689
854.854	20952
854.988	20773
855.122	20815
855.256	20765
855.39	20754
855.524	20880
855.658	20807
855.792	20845
855.926	20762
856.06	20804
856.194	20960
856.327	20807
856.461	20758
856.595	20682
856.729	20765
856.862	20815
856.996	20826
857.13	20971
857.263	20899
857.397	20861
857.53	20796
857.664	20899
857.797	20921
857.931	20952
858.064	20864
858.197	20979
858.331	20804
858.464	20708
858.597	20720
858.731	20804
858.864	20788
858.997	20864
859.13	20826
859.263	20842
859.396	20864
859.529	20739
859.662	20785
859.795	20678
859.928	20864
860.061	20845
860.194	21104
860.327	20956
860.46	20864
860.592	21013
860.725	20990
860.858	20914
860.99	20918
861.123	20830
861.256	20754
861.388	20769
861.521	21462
861.653	20750
861.786	20636
861.918	20686
862.05	20655
862.183	20807
862.315	20845
862.447	20937
862.58	20773
862.712	20568
862.844	20457
862.976	20640
863.108	20697
863.24	21066
863.372	20370
863.504	20617
863.636	20575
863.768	20518
863.9	20427
864.032	20476
864.164	20377
864.296	20594
864.428	20587
864.559	20590
864.691	20568
864.823	20480
864.954	20465
865.086	20549
865.217	20492
865.349	20412
865.48	20446
865.612	20358
865.743	20625
865.875	20396
866.006	20442
866.137	20381
866.269	20381
866.4	20404
866.531	20339
866.662	20431
866.793	20301
866.924	20393
867.055	20549
867.186	20492
867.317	20374
867.448	20355
867.579	20309
867.71	20324
867.841	20313
867.972	20393
868.103	20328
868.233	20431
868.364	20374
868.495	20530
868.625	20511
868.756	20606
868.886	20533
869.017	20640
869.147	20716
869.278	20800
869.408	20708
869.539	20686
869.669	20796
869.799	20545
869.929	20838
870.06	20758
870.19	20979
870.32	20937
870.45	20960
870.58	21036
870.71	21169
870.84	21077
870.97	21089
871.1	20944
871.23	21165
871.36	21245
871.489	21093
871.619	21192
871.749	21245
871.879	21329
872.008	21363
872.138	21291
872.267	21302
872.397	21135
872.526	21032
872.656	20998
872.785	20979
872.915	21138
873.044	21252
873.173	21199
873.303	21317
873.432	21397
873.561	21279
873.69	21252
873.819	21192
873.948	21218
874.077	21142
874.206	21207
874.335	21207
874.464	21405
874.593	21515
874.722	21424
874.851	21633
874.979	21504
875.108	21515
875.237	21416
875.365	21359
875.494	21439
875.623	21614
875.751	21405
875.88	21549
876.008	21667
876.136	21580
876.265	21903
876.393	22044
876.521	21949
876.65	21869
876.778	22070
876.906	21724
877.034	21793
877.162	21888
877.29	21774
877.418	21835
877.546	21850
877.674	21823
877.802	21671
877.93	21873
878.058	21835
878.185	21823
878.313	21759
878.441	21793
878.568	21603
878.696	21739
878.824	21762
878.951	21930
879.079	21861
879.206	22188
879.333	21960
879.461	21895
879.588	21960
879.715	21968
879.842	22173
879.97	21964
880.097	21618
880.224	21633
880.351	21660
880.478	21823
880.605	21652
880.732	21667
880.859	21831
880.986	21724
881.112	21637
881.239	21595
881.366	21454
881.493	21363
881.619	21176
881.746	21199
881.872	21291
881.999	21294
882.125	21241
882.252	21310
882.378	21241
882.505	21386
882.631	21135
882.757	21055
882.883	21096
883.01	20990
883.136	20918
883.262	20868
883.388	20861
883.514	20979
883.64	20937
883.766	20895
883.892	20788
884.018	20785
884.143	20952
884.269	21028
884.395	20815
884.52	20541
884.646	20712
884.772	20708
884.897	20473
885.023	20640
885.148	20697
885.274	20788
885.399	20739
885.524	20606
885.65	20667
885.775	20651
885.9	20613
886.025	20811
886.15	20625
886.275	20602
886.4	20518
886.525	20495
886.65	20556
886.775	20590
886.9	20804
887.025	20880
887.149	20632
887.274	20404
887.399	20396
887.523	20488
887.648	20419
887.773	20298
887.897	20450
888.021	20347
888.146	20423
888.27	20469
888.395	20518
888.519	20431
888.643	20419
888.767	20347
888.891	20347
889.015	20221
889.139	20248
889.263	20107
889.387	20244
889.511	20488
889.635	20294
889.759	20237
889.883	20218
890.006	20256
890.13	20313
890.254	20046
890.377	20256
890.501	19917
890.624	19967
890.748	20069
890.871	19841
890.995	19734
891.118	19765
891.241	19814
891.364	19708
891.488	19795
891.611	19871
891.734	19818
891.857	19849
891.98	19803
892.103	19875
892.226	19826
892.349	19719
892.471	19533
892.594	19700
892.717	19674
892.839	19658
892.962	19693
893.085	19807
893.207	19651
893.33	19651
893.452	19590
893.575	19807
893.697	19731
893.819	19860
893.941	19864
894.064	19784
894.186	19674
894.308	19605
894.43	19761
894.552	19795
894.674	19696
894.796	19556
894.918	19715
895.04	19628
895.161	19723
895.283	19765
895.405	19670
895.526	19761
895.648	19753
895.769	19799
895.891	19662
896.012	19769
896.134	19769
896.255	19609
896.376	19556
896.498	19757
896.619	19746
896.74	19594
896.861	19655
896.982	20126
897.103	20107
897.224	19913
897.345	19978
897.466	19784
897.587	19921
897.708	19982
897.828	20046
897.949	19856
898.07	19811
898.19	19826
898.311	19986
898.431	19875
898.552	19986
898.672	20005
898.792	19928
898.913	19898
899.033	19864
899.153	19708
899.273	19731
899.393	19715
899.513	19757
899.633	19807
899.753	19784
899.873	19788
899.993	19693
900.113	19594
900.232	19575
900.352	19563
900.472	19476
900.591	19430
900.711	19537
900.83	19312
900.95	19521
901.069	19445
901.189	19411
901.308	19160
901.427	19110
901.546	19072
901.665	19103
901.784	19019
901.904	18916
902.023	18787
902.141	18532
902.26	18608
902.379	18665
902.498	18513
902.617	18513
902.735	18623
902.854	18525
902.973	18357
903.091	18296
903.21	18330
903.328	18232
903.446	18190
903.565	18060
903.683	18049
903.801	17942
903.919	17893
904.038	17992
904.156	17832
904.274	17923
904.392	17665
904.51	17699
904.627	17859
904.745	17824
904.863	17897
904.981	17657
905.098	17520
905.216	17505
905.334	17547
905.451	17467
905.569	17512
905.686	17425
905.803	17482
905.921	17258
906.038	17402
906.155	17349
906.272	17140
906.389	17223
906.506	16942
906.623	17045
906.74	17048
906.857	16900
906.974	17003
907.091	17166
907.208	17159
907.324	17098
907.441	16869
907.557	16801
907.674	16713
907.79	16664
907.907	16881
908.023	16835
908.139	16679
908.256	16702
908.372	16641
908.488	16588
908.604	16500
908.72	16363
908.836	16512
908.952	16478
909.068	16466
909.184	16523
909.3	16538
909.415	16504
909.531	16447
909.647	16238
909.762	16207
909.878	16173
909.993	16181
910.108	16090
910.224	16135
910.339	16192
910.454	16071
910.57	16021
910.685	15949
910.8	16318
910.915	16143
911.03	16055
911.145	15934
911.259	15739
911.374	15865
911.489	15785
911.604	15656
911.718	15591
911.833	15481
911.947	15660
912.062	15488
912.176	15564
912.291	15698
912.405	15549
912.519	15762
912.633	15724
912.748	15622
912.862	15576
912.976	15382
913.09	15287
913.204	15321
913.318	15283
913.431	15412
913.545	15439
913.659	15428
913.772	15313
913.886	15192
914	15138
914.113	15268
914.226	15306
914.34	15146
914.453	15028
914.566	15291
914.68	15017
914.793	15119
914.906	14883
915.019	14811
915.132	14724
915.245	14765
915.358	14872
915.47	14792
915.583	14842
915.696	14785
915.809	14857
915.921	14902
916.034	14697
916.146	14686
916.259	14701
916.371	14731
916.483	14762
916.595	14579
916.708	14716
916.82	14625
916.932	14659
917.044	14575
917.156	14533
917.268	14465
917.38	14511
917.491	14503
917.603	14438
917.715	14518
917.826	14526
917.938	14434
918.049	14275
918.161	14393
918.272	14560
918.384	14484
918.495	14393
918.606	14225
918.717	14161
918.828	14214
918.939	14290
919.05	14100
919.161	14248
919.272	13974
919.383	14073
919.494	14218
919.604	14381
919.715	14180
919.826	14164
919.936	14062
920.047	14385
920.157	14180
920.267	14328
920.378	14191
920.488	14119
920.598	14252
920.708	14454
920.818	14366
920.928	14324
921.038	14495
921.148	14446
921.258	14157
921.368	14100
921.477	13928
921.587	13955
921.697	13791
921.806	13849
921.916	13761
922.025	13655
922.134	13620
922.244	13628
922.353	13689
922.462	13453
922.571	13415
922.68	13270
922.789	13312
922.898	13308
923.007	13198
923.116	13225
923.224	13213
923.333	13160
923.442	13099
923.55	13129
923.659	13084
923.767	13194
923.876	13072
923.984	13110
924.092	12966
924.201	13008
924.309	13015
924.417	13000
924.525	12913
924.633	12882
924.741	13742
924.849	12688
924.956	12875
925.064	12700
925.172	12627
925.279	12711
925.387	12688
925.494	12719
925.602	12745
925.709	12623
925.816	12566
925.924	12631
926.031	12681
926.138	12585
926.245	12681
926.352	12452
926.459	12627
926.566	12669
926.673	12456
926.779	12395
926.886	12433
926.993	12319
927.099	12243
927.206	12201
927.312	12163
927.419	12372
927.525	12254
927.631	12235
927.737	12125
927.843	12049
927.95	12011
928.056	12049
928.162	12117
928.267	12110
928.373	12623
928.479	12121
928.585	11836
928.69	12091
928.796	12064
928.901	11904
929.007	11866
929.112	11912
929.218	11874
929.323	11809
929.428	11760
929.533	11912
929.638	11619
929.743	11764
929.848	11832
929.953	11836
930.058	11707
930.163	11391
930.267	11532
930.372	11661
930.477	11509
930.581	11695
930.685	11528
930.79	11455
930.894	11429
930.998	11360
931.103	11505
931.207	11098
931.311	11075
931.415	10961
931.519	10782
931.623	10843
