Data from test_V78500241_1295.txt Node
Date: Fri Mar 25 15:18:52 CST 2022
User: usil
Spectrometer: V785-0024
Trigger mode: 0
Integration Time (sec): 4.000000E-1
Scans to average: 1
Nonlinearity correction enabled: false
Boxcar width: 0
Storing dark spectrum: false
XAxis mode: Wavelengths
Number of Pixels in Spectrum: 1024
>>>>>Begin Spectral Data<<<<<
801.071	28246
801.214	28215
801.356	28021
801.499	27766
801.641	27667
801.783	27747
801.926	27766
802.068	27747
802.211	27603
802.353	27614
802.496	27557
802.638	27542
802.78	27378
802.923	27408
803.065	27348
803.208	27397
803.35	27340
803.492	27557
803.635	27610
803.777	27485
803.919	27717
804.061	27888
804.204	27625
804.346	27686
804.488	27481
804.63	27614
804.773	27469
804.915	27591
805.057	27743
805.199	27572
805.341	27812
805.483	27785
805.626	27739
805.768	27625
805.91	27838
806.052	27641
806.194	27629
806.336	27994
806.478	27854
806.62	27835
806.762	27884
806.904	28051
807.046	28287
807.188	28207
807.33	28211
807.472	28367
807.614	28188
807.756	28257
807.898	28097
808.04	27956
808.182	28112
808.324	27911
808.465	28082
808.607	28337
808.749	28401
808.891	28485
809.033	28634
809.174	28398
809.316	28314
809.458	28436
809.6	28371
809.741	28557
809.883	28569
810.025	28801
810.166	28805
810.308	28740
810.45	28580
810.591	28679
810.733	28538
810.875	28443
811.016	28405
811.158	28329
811.299	28519
811.441	28542
811.582	28538
811.724	28398
811.865	28432
812.007	28508
812.148	28382
812.29	28504
812.431	28645
812.573	28828
812.714	28968
812.855	28972
812.997	29033
813.138	29231
813.279	29090
813.421	29033
813.562	28949
813.703	28831
813.845	28694
813.986	28466
814.127	28253
814.268	28284
814.41	28131
814.551	28154
814.692	28162
814.833	28131
814.974	28116
815.115	28109
815.256	28070
815.397	27922
815.539	28135
815.68	28006
815.821	27903
815.962	28021
816.103	27922
816.244	27804
816.385	27838
816.526	27736
816.666	27641
816.807	27473
816.948	27454
817.089	27549
817.23	27545
817.371	27427
817.512	27447
817.653	27389
817.793	27351
817.934	27443
818.075	27408
818.216	27530
818.356	27427
818.497	27291
818.638	27119
818.778	27294
818.919	27176
819.06	27363
819.2	27344
819.341	27485
819.481	27427
819.622	27431
819.762	27698
819.903	27663
820.043	27675
820.184	27599
820.324	27572
820.465	27572
820.605	27515
820.746	27561
820.886	27367
821.026	27481
821.167	27458
821.307	27526
821.447	27435
821.588	27291
821.728	27176
821.868	27135
822.008	26956
822.149	26876
822.289	26910
822.429	26727
822.569	26568
822.709	26682
822.849	26450
822.99	26446
823.13	26408
823.27	26408
823.41	26320
823.55	26107
823.69	26229
823.83	26263
823.97	26332
824.11	26103
824.25	26122
824.389	26008
824.529	26210
824.669	26096
824.809	26161
824.949	26157
825.089	26172
825.228	26172
825.368	25963
825.508	25947
825.648	25944
825.787	26062
825.927	25917
826.067	25833
826.206	25947
826.346	26008
826.485	26092
826.625	25947
826.765	26016
826.904	25982
827.044	25666
827.183	25818
827.323	25723
827.462	25696
827.601	25628
827.741	25620
827.88	25681
828.02	25601
828.159	25647
828.298	25628
828.437	25738
828.577	25479
828.716	25761
828.855	25609
828.994	25362
829.134	25346
829.273	25567
829.412	25324
829.551	25339
829.69	25407
829.829	25316
829.968	25529
830.107	25460
830.246	25426
830.385	25206
830.524	25270
830.663	25122
830.802	25099
830.941	24951
831.08	25012
831.219	24924
831.357	25122
831.496	25110
831.635	25095
831.774	24977
831.913	25015
832.051	24772
832.19	24776
832.329	24909
832.467	24749
832.606	24703
832.744	24601
832.883	24646
833.022	24665
833.16	24521
833.299	24711
833.437	24711
833.576	24566
833.714	24681
833.852	24779
833.991	24684
834.129	24787
834.267	24817
834.406	24612
834.544	24741
834.682	24734
834.821	24688
834.959	24913
835.097	24639
835.235	24886
835.373	24604
835.511	24779
835.65	24585
835.788	24505
835.926	24429
836.064	24334
836.202	24414
836.34	24623
836.478	24696
836.615	24646
836.753	24445
836.891	24639
837.029	24502
837.167	24559
837.305	24669
837.443	24517
837.58	24350
837.718	24498
837.856	24357
837.993	24365
838.131	24388
838.269	24213
838.406	24289
838.544	24258
838.681	24167
838.819	23984
838.956	23889
839.094	23931
839.231	23764
839.369	24030
839.506	24262
839.643	24057
839.781	23980
839.918	23821
840.055	23863
840.193	23760
840.33	23748
840.467	23805
840.604	23847
840.742	23946
840.879	23691
841.016	23600
841.153	23676
841.29	23878
841.427	23714
841.564	23790
841.701	23687
841.838	23649
841.975	23718
842.112	23615
842.249	23577
842.385	23433
842.522	23646
842.659	23695
842.796	23566
842.933	23512
843.069	23429
843.206	23528
843.343	23589
843.479	23547
843.616	23459
843.752	23398
843.889	23334
844.025	23543
844.162	23136
844.298	23353
844.435	23315
844.571	23288
844.708	23410
844.844	23585
844.98	23493
845.117	23440
845.253	23303
845.389	23124
845.525	23212
845.661	23147
845.798	23006
845.934	22972
846.07	22987
846.206	23242
846.342	23227
846.478	23029
846.614	22881
846.75	22721
846.886	22702
847.022	22805
847.158	22729
847.294	22748
847.429	22752
847.565	22675
847.701	22980
847.837	22527
847.972	22531
848.108	22557
848.244	22508
848.379	22402
848.515	22508
848.65	22360
848.786	22481
848.921	22421
849.057	22523
849.192	22447
849.328	22451
849.463	22329
849.598	22352
849.734	22154
849.869	22276
850.004	22158
850.14	22101
850.275	22177
850.41	22051
850.545	22013
850.68	22032
850.815	22105
850.95	22051
851.085	22390
851.22	22211
851.355	22044
851.49	22166
851.625	22177
851.76	22051
851.895	21937
852.03	22090
852.165	22040
852.299	22177
852.434	22371
852.569	22223
852.703	22105
852.838	22181
852.973	22322
853.107	22265
853.242	22070
853.376	22055
853.511	21884
853.645	21915
853.78	21991
853.914	21930
854.048	21945
854.183	21903
854.317	21949
854.451	22135
854.585	21998
854.72	21873
854.854	22124
854.988	21880
855.122	21968
855.256	21915
855.39	21880
855.524	22002
855.658	21884
855.792	21953
855.926	21956
856.06	21998
856.194	22067
856.327	21941
856.461	21884
856.595	21880
856.729	21827
856.862	22006
856.996	21983
857.13	21960
857.263	22006
857.397	22036
857.53	21827
857.664	21915
857.797	21987
857.931	22078
858.064	21907
858.197	22025
858.331	21861
858.464	21915
858.597	21781
858.731	21895
858.864	21838
858.997	21823
859.13	21907
859.263	21998
859.396	21979
859.529	21956
859.662	21812
859.795	21937
859.928	21968
860.061	22051
860.194	22086
860.327	22040
860.46	21991
860.592	22013
860.725	22101
860.858	22215
860.99	21915
861.123	21865
861.256	21892
861.388	21937
861.521	22535
861.653	21774
861.786	21800
861.918	21732
862.05	21873
862.183	21880
862.315	21949
862.447	21899
862.58	21785
862.712	21610
862.844	21618
862.976	21580
863.108	21724
863.24	21964
863.372	21603
863.504	21629
863.636	21606
863.768	21652
863.9	21606
864.032	21568
864.164	21682
864.296	21759
864.428	21705
864.559	21747
864.691	21736
864.823	21549
864.954	21648
865.086	21595
865.217	21614
865.349	21515
865.48	21564
865.612	21477
865.743	21557
865.875	21603
866.006	21485
866.137	21523
866.269	21614
866.4	21485
866.531	21454
866.662	21454
866.793	21424
866.924	21477
867.055	21454
867.186	21603
867.317	21374
867.448	21355
867.579	21466
867.71	21393
867.841	21389
867.972	21500
868.103	21355
868.233	21439
868.364	21538
868.495	21561
868.625	21633
868.756	21701
868.886	21500
869.017	21652
869.147	21816
869.278	21808
869.408	21663
869.539	21720
869.669	21793
869.799	21652
869.929	21854
870.06	21869
870.19	21968
870.32	21895
870.45	22150
870.58	22120
870.71	22173
870.84	22105
870.97	22162
871.1	22055
871.23	22242
871.36	22299
871.489	22230
871.619	22265
871.749	22363
871.879	22295
872.008	22367
872.138	22226
872.267	22291
872.397	22185
872.526	21998
872.656	22173
872.785	22029
872.915	22333
873.044	22367
873.173	22192
873.303	22268
873.432	22196
873.561	22424
873.69	22356
873.819	22367
873.948	22367
874.077	22276
874.206	22295
874.335	22276
874.464	22413
874.593	22516
874.722	22573
874.851	22569
874.979	22596
875.108	22584
875.237	22508
875.365	22500
875.494	22542
875.623	22531
875.751	22584
875.88	22474
876.008	22565
876.136	22607
876.265	23029
876.393	23052
876.521	23067
876.65	22930
876.778	22946
876.906	22869
877.034	22809
877.162	22949
877.29	22904
877.418	22805
877.546	22831
877.674	22904
877.802	22938
877.93	22904
878.058	22725
878.185	22847
878.313	22805
878.441	22869
878.568	22611
878.696	22816
878.824	22847
878.951	22778
879.079	23121
879.206	23178
879.333	23025
879.461	22854
879.588	23006
879.715	23079
879.842	23067
879.97	22999
880.097	22725
880.224	22618
880.351	22710
880.478	22717
880.605	22557
880.732	22649
880.859	22900
880.986	22645
881.112	22702
881.239	22459
881.366	22516
881.493	22329
881.619	22333
881.746	22246
881.872	22261
881.999	22314
882.125	22150
882.252	22371
882.378	22200
882.505	22246
882.631	21956
882.757	22044
882.883	22021
883.01	21915
883.136	21869
883.262	21816
883.388	21709
883.514	21907
883.64	21812
883.766	21854
883.892	21682
884.018	21728
884.143	21846
884.269	22017
884.395	21644
884.52	21564
884.646	21614
884.772	21515
884.897	21393
885.023	21561
885.148	21675
885.274	21663
885.399	21663
885.524	21557
885.65	21545
885.775	21591
885.9	21690
886.025	21618
886.15	21641
886.275	21515
886.4	21439
886.525	21454
886.65	21473
886.775	21458
886.9	21781
887.025	21682
887.149	21656
887.274	21485
887.399	21294
887.523	21386
887.648	21382
887.773	21367
887.897	21526
888.021	21332
888.146	21233
888.27	21420
888.395	21405
888.519	21538
888.643	21317
888.767	21477
888.891	21207
889.015	21108
889.139	21184
889.263	21127
889.387	21211
889.511	21332
889.635	21207
889.759	21047
889.883	21093
890.006	21169
890.13	21256
890.254	21017
890.377	21100
890.501	20781
890.624	20880
890.748	20872
890.871	20781
890.995	20663
891.118	20522
891.241	20731
891.364	20632
891.488	20823
891.611	20758
891.734	20777
891.857	20720
891.98	20590
892.103	20769
892.226	20754
892.349	20674
892.471	20518
892.594	20682
892.717	20640
892.839	20522
892.962	20625
893.085	20670
893.207	20571
893.33	20457
893.452	20492
893.575	20697
893.697	20579
893.819	20731
893.941	20834
894.064	20735
894.186	20552
894.308	20492
894.43	20507
894.552	20800
894.674	20708
894.796	20564
894.918	20530
895.04	20568
895.161	20617
895.283	20545
895.405	20533
895.526	20644
895.648	20545
895.769	20594
895.891	20678
896.012	20617
896.134	20804
896.255	20541
896.376	20511
896.498	20560
896.619	20590
896.74	20583
896.861	20488
896.982	20906
897.103	21142
897.224	20937
897.345	20807
897.466	20659
897.587	20746
897.708	20849
897.828	20800
897.949	20678
898.07	20590
898.19	20625
898.311	20929
898.431	20655
898.552	20651
898.672	20876
898.792	20883
898.913	20724
899.033	20708
899.153	20533
899.273	20442
899.393	20473
899.513	20598
899.633	20431
899.753	20526
899.873	20571
899.993	20568
900.113	20545
900.232	20556
900.352	20396
900.472	20366
900.591	20199
900.711	20320
900.83	20263
900.95	20389
901.069	20385
901.189	20252
901.308	19944
901.427	19860
901.546	19818
901.665	19947
901.784	19921
901.904	19719
902.023	19586
902.141	19411
902.26	19419
902.379	19449
902.498	19419
902.617	19278
902.735	19434
902.854	19320
902.973	19266
903.091	19053
903.21	19069
903.328	19015
903.446	18989
903.565	18913
903.683	18833
903.801	18620
903.919	18886
904.038	18753
904.156	18646
904.274	18620
904.392	18688
904.51	18589
904.627	18582
904.745	18631
904.863	18650
904.981	18342
905.098	18232
905.216	18327
905.334	18220
905.451	18232
905.569	18247
905.686	18289
905.803	18258
905.921	18060
906.038	18155
906.155	18022
906.272	17935
906.389	17992
906.506	17901
906.623	17889
906.74	17722
906.857	17722
906.974	17589
907.091	17745
907.208	18045
907.324	17935
907.441	17634
907.557	17562
907.674	17482
907.79	17421
907.907	17490
908.023	17558
908.139	17512
908.256	17410
908.372	17334
908.488	17330
908.604	17315
908.72	17200
908.836	17239
908.952	17227
909.068	17284
909.184	17284
909.3	17254
909.415	17254
909.531	17124
909.647	16980
909.762	16953
909.878	16843
909.993	17060
910.108	16968
910.224	16850
910.339	16885
910.454	16835
910.57	16683
910.685	16653
910.8	16968
910.915	16877
911.03	16752
911.145	16622
911.259	16493
911.374	16516
911.489	16478
911.604	16352
911.718	16276
911.833	16306
911.947	16067
912.062	16071
912.176	16143
912.291	16291
912.405	16215
912.519	16512
912.633	16398
912.748	16314
912.862	16147
912.976	16032
913.09	16029
913.204	16002
913.318	16067
913.431	16048
913.545	16204
913.659	16226
913.772	16010
913.886	15968
914	15880
914.113	15987
914.226	15941
914.34	15865
914.453	15819
914.566	15918
914.68	15644
914.793	15728
914.906	15618
915.019	15485
915.132	15462
915.245	15584
915.358	15526
915.47	15462
915.583	15477
915.696	15485
915.809	15538
915.921	15641
916.034	15389
916.146	15542
916.259	15386
916.371	15416
916.483	15401
916.595	15165
916.708	15378
916.82	15252
916.932	15340
917.044	15241
917.156	15256
917.268	15093
917.38	15119
917.491	15047
917.603	15081
917.715	15154
917.826	15176
917.938	14944
918.049	14921
918.161	15077
918.272	15165
918.384	15135
918.495	14986
918.606	14887
918.717	14746
918.828	14883
918.939	14929
919.05	14823
919.161	14758
919.272	14735
919.383	14670
919.494	14887
919.604	15036
919.715	14804
919.826	14796
919.936	14773
920.047	14880
920.157	14762
920.267	14975
920.378	14724
920.488	14769
920.598	14880
920.708	15116
920.818	14899
920.928	14876
921.038	15085
921.148	14990
921.258	14773
921.368	14659
921.477	14476
921.587	14590
921.697	14370
921.806	14575
921.916	14339
922.025	14187
922.134	14218
922.244	14214
922.353	14176
922.462	14012
922.571	13993
922.68	13959
922.789	13807
922.898	13734
923.007	13875
923.116	13879
923.224	13845
923.333	13704
923.442	13662
923.55	13609
923.659	13647
923.767	13742
923.876	13597
923.984	13765
924.092	13563
924.201	13601
924.309	13521
924.417	13533
924.525	13445
924.633	13559
924.741	14434
924.849	13285
924.956	13434
925.064	13270
925.172	13240
925.279	13190
925.387	13278
925.494	13183
925.602	13278
925.709	13282
925.816	13061
925.924	13228
926.031	13225
926.138	13156
926.245	13274
926.352	13099
926.459	13183
926.566	13213
926.673	13057
926.779	12932
926.886	13027
926.993	12833
927.099	12810
927.206	12738
927.312	12719
927.419	12802
927.525	12715
927.631	12768
927.737	12696
927.843	12623
927.95	12471
928.056	12635
928.162	12578
928.267	12593
928.373	13278
928.479	12654
928.585	12441
928.69	12574
928.796	12601
928.901	12407
929.007	12327
929.112	12494
929.218	12422
929.323	12369
929.428	12277
929.533	12388
929.638	12205
929.743	12232
929.848	12369
929.953	12194
930.058	12087
930.163	11942
930.267	11984
930.372	12148
930.477	11977
930.581	12254
930.685	11996
930.79	11866
930.894	11912
930.998	11901
931.103	11992
931.207	11630
931.311	11554
931.415	11429
931.519	11220
931.623	11284
