Data from test_V78500241_1380.txt Node
Date: Fri Mar 25 15:19:27 CST 2022
User: usil
Spectrometer: V785-0024
Trigger mode: 0
Integration Time (sec): 4.000000E-1
Scans to average: 1
Nonlinearity correction enabled: false
Boxcar width: 0
Storing dark spectrum: false
XAxis mode: Wavelengths
Number of Pixels in Spectrum: 1024
>>>>>Begin Spectral Data<<<<<
801.071	28234
801.214	28139
801.356	27846
801.499	27838
801.641	27633
801.783	27679
801.926	27819
802.068	27861
802.211	27610
802.353	27542
802.496	27523
802.638	27447
802.78	27348
802.923	27439
803.065	27249
803.208	27348
803.35	27454
803.492	27549
803.635	27515
803.777	27443
803.919	27450
804.061	27869
804.204	27690
804.346	27504
804.488	27644
804.63	27599
804.773	27424
804.915	27686
805.057	27709
805.199	27717
805.341	27724
805.483	27720
805.626	27660
805.768	27751
805.91	27652
806.052	27766
806.194	27625
806.336	27903
806.478	27675
806.62	27698
806.762	27797
806.904	27846
807.046	28185
807.188	28344
807.33	28154
807.472	28192
807.614	28219
807.756	28105
807.898	28048
808.04	28112
808.182	28036
808.324	28116
808.465	28032
808.607	28299
808.749	28386
808.891	28535
809.033	28637
809.174	28325
809.316	28242
809.458	28394
809.6	28314
809.741	28436
809.883	28504
810.025	28694
810.166	28717
810.308	28702
810.45	28569
810.591	28596
810.733	28462
810.875	28230
811.016	28303
811.158	28352
811.299	28428
811.441	28470
811.582	28485
811.724	28386
811.865	28428
812.007	28314
812.148	28451
812.29	28436
812.431	28531
812.573	28740
812.714	28866
812.855	29006
812.997	28980
813.138	29067
813.279	29041
813.421	28949
813.562	28888
813.703	28763
813.845	28675
813.986	28226
814.127	28211
814.268	28261
814.41	28169
814.551	28006
814.692	28154
814.833	28128
814.974	28093
815.115	28101
815.256	28021
815.397	27918
815.539	27949
815.68	27823
815.821	27865
815.962	27979
816.103	27854
816.244	27911
816.385	27682
816.526	27587
816.666	27557
816.807	27332
816.948	27283
817.089	27530
817.23	27279
817.371	27359
817.512	27393
817.653	27336
817.793	27310
817.934	27378
818.075	27443
818.216	27504
818.356	27317
818.497	27207
818.638	27096
818.778	27036
818.919	27055
819.06	27150
819.2	27268
819.341	27363
819.481	27401
819.622	27545
819.762	27682
819.903	27599
820.043	27625
820.184	27511
820.324	27466
820.465	27435
820.605	27504
820.746	27603
820.886	27408
821.026	27622
821.167	27526
821.307	27595
821.447	27264
821.588	27408
821.728	27146
821.868	27028
822.008	26868
822.149	26861
822.289	26880
822.429	26590
822.569	26457
822.709	26686
822.849	26339
822.99	26415
823.13	26256
823.27	26374
823.41	26233
823.55	26122
823.69	26206
823.83	26305
823.97	26176
824.11	25890
824.25	25799
824.389	25974
824.529	26103
824.669	26031
824.809	26191
824.949	26164
825.089	25974
825.228	26065
825.368	25864
825.508	25947
825.648	25849
825.787	25947
825.927	26008
826.067	25731
826.206	25925
826.346	25951
826.485	25883
826.625	25978
826.765	25951
826.904	26016
827.044	25715
827.183	25784
827.323	25563
827.462	25632
827.601	25662
827.741	25677
827.88	25613
828.02	25529
828.159	25639
828.298	25582
828.437	25822
828.577	25544
828.716	25795
828.855	25605
828.994	25358
829.134	25335
829.273	25468
829.412	25270
829.551	25175
829.69	25335
829.829	25343
829.968	25392
830.107	25354
830.246	25343
830.385	25331
830.524	25255
830.663	25069
830.802	24985
830.941	25004
831.08	24882
831.219	25053
831.357	25034
831.496	25240
831.635	24890
831.774	24943
831.913	24871
832.051	24814
832.19	24757
832.329	24760
832.467	24471
832.606	24460
832.744	24509
832.883	24650
833.022	24528
833.16	24608
833.299	24692
833.437	24593
833.576	24715
833.714	24547
833.852	24703
833.991	24661
834.129	24764
834.267	24776
834.406	24677
834.544	24589
834.682	24665
834.821	24654
834.959	24745
835.097	24627
835.235	24764
835.373	24757
835.511	24555
835.65	24509
835.788	24566
835.926	24308
836.064	24376
836.202	24475
836.34	24464
836.478	24578
836.615	24479
836.753	24460
836.891	24566
837.029	24540
837.167	24281
837.305	24338
837.443	24448
837.58	24311
837.718	24281
837.856	24399
837.993	24262
838.131	24327
838.269	24167
838.406	24281
838.544	24114
838.681	24167
838.819	23790
838.956	23855
839.094	23707
839.231	23824
839.369	23828
839.506	24167
839.643	24026
839.781	23813
839.918	23608
840.055	23756
840.193	23741
840.33	23741
840.467	23695
840.604	23752
840.742	23912
840.879	23585
841.016	23684
841.153	23600
841.29	23847
841.427	23699
841.564	23676
841.701	23691
841.838	23577
841.975	23604
842.112	23608
842.249	23627
842.385	23543
842.522	23649
842.659	23551
842.796	23471
842.933	23452
843.069	23356
843.206	23547
843.343	23535
843.479	23391
843.616	23345
843.752	23197
843.889	23261
844.025	23417
844.162	23162
844.298	23406
844.435	23170
844.571	23208
844.708	23178
844.844	23387
844.98	23337
845.117	23326
845.253	23216
845.389	22984
845.525	23159
845.661	23029
845.798	23003
845.934	23018
846.07	22900
846.206	22877
846.342	22987
846.478	22885
846.614	22706
846.75	22588
846.886	22603
847.022	22824
847.158	22683
847.294	22573
847.429	22733
847.565	22641
847.701	22797
847.837	22462
847.972	22413
848.108	22599
848.244	22489
848.379	22352
848.515	22207
848.65	22291
848.786	22272
848.921	22363
849.057	22272
849.192	22329
849.328	22367
849.463	22268
849.598	22261
849.734	22063
849.869	22177
850.004	22162
850.14	22059
850.275	22124
850.41	21945
850.545	22017
850.68	22055
850.815	21968
850.95	22120
851.085	22169
851.22	22124
851.355	22093
851.49	22055
851.625	22002
851.76	22154
851.895	21865
852.03	21941
852.165	21979
852.299	22135
852.434	21937
852.569	22010
852.703	22086
852.838	22158
852.973	22143
853.107	22169
853.242	22120
853.376	21831
853.511	21797
853.645	21857
853.78	21956
853.914	21797
854.048	21800
854.183	21865
854.317	21911
854.451	21994
854.585	21857
854.72	21804
854.854	21854
854.988	21690
855.122	21884
855.256	21724
855.39	21854
855.524	21892
855.658	21880
855.792	21838
855.926	21960
856.06	21808
856.194	21911
856.327	21953
856.461	21778
856.595	21724
856.729	21903
856.862	21972
856.996	21857
857.13	21930
857.263	21945
857.397	21930
857.53	21846
857.664	21873
857.797	21907
857.931	21953
858.064	21793
858.197	21869
858.331	21831
858.464	21778
858.597	21732
858.731	21835
858.864	21778
858.997	21800
859.13	21884
859.263	21903
859.396	21895
859.529	21713
859.662	21720
859.795	21861
859.928	21804
860.061	21960
860.194	22063
860.327	21876
860.46	21895
860.592	22032
860.725	22010
860.858	22006
860.99	21804
861.123	21842
861.256	21682
861.388	21736
861.521	22390
861.653	21698
861.786	21671
861.918	21652
862.05	21701
862.183	21724
862.315	21789
862.447	21854
862.58	21778
862.712	21652
862.844	21416
862.976	21622
863.108	21682
863.24	21945
863.372	21443
863.504	21485
863.636	21610
863.768	21507
863.9	21633
864.032	21389
864.164	21572
864.296	21603
864.428	21709
864.559	21618
864.691	21629
864.823	21610
864.954	21443
865.086	21473
865.217	21370
865.349	21393
865.48	21348
865.612	21416
865.743	21667
865.875	21416
866.006	21397
866.137	21367
866.269	21397
866.4	21519
866.531	21298
866.662	21336
866.793	21386
866.924	21519
867.055	21389
867.186	21416
867.317	21435
867.448	21336
867.579	21237
867.71	21245
867.841	21173
867.972	21378
868.103	21283
868.233	21294
868.364	21332
868.495	21416
868.625	21515
868.756	21823
868.886	21545
869.017	21507
869.147	21648
869.278	21728
869.408	21682
869.539	21469
869.669	21599
869.799	21633
869.929	21686
870.06	21732
870.19	21895
870.32	21857
870.45	21884
870.58	21964
870.71	22048
870.84	22097
870.97	21884
871.1	22063
871.23	22230
871.36	22139
871.489	21945
871.619	22188
871.749	22109
871.879	22166
872.008	22375
872.138	22303
872.267	22181
872.397	22055
872.526	21941
872.656	21922
872.785	22021
872.915	22215
873.044	22215
873.173	22147
873.303	22322
873.432	22234
873.561	22322
873.69	22284
873.819	22280
873.948	22211
874.077	22211
874.206	22143
874.335	22276
874.464	22417
874.593	22440
874.722	22360
874.851	22310
874.979	22451
875.108	22500
875.237	22443
875.365	22246
875.494	22394
875.623	22550
875.751	22329
875.88	22497
876.008	22573
876.136	22584
876.265	22896
876.393	22862
876.521	22904
876.65	22923
876.778	22854
876.906	22828
877.034	22660
877.162	22721
877.29	22721
877.418	22797
877.546	22774
877.674	22793
877.802	22691
877.93	22717
878.058	22653
878.185	22778
878.313	22752
878.441	22702
878.568	22565
878.696	22782
878.824	22755
878.951	22672
879.079	22805
879.206	23048
879.333	22881
879.461	22793
879.588	22987
879.715	22976
879.842	22953
879.97	22889
880.097	22481
880.224	22550
880.351	22584
880.478	22622
880.605	22447
880.732	22478
880.859	22809
880.986	22630
881.112	22611
881.239	22535
881.366	22394
881.493	22211
881.619	22204
881.746	22223
881.872	22177
881.999	22101
882.125	22070
882.252	22173
882.378	22074
882.505	22238
882.631	21968
882.757	21915
882.883	21915
883.01	21941
883.136	21865
883.262	21774
883.388	21679
883.514	21812
883.64	21835
883.766	21656
883.892	21545
884.018	21618
884.143	21812
884.269	21789
884.395	21568
884.52	21447
884.646	21496
884.772	21469
884.897	21500
885.023	21534
885.148	21583
885.274	21663
885.399	21591
885.524	21507
885.65	21481
885.775	21545
885.9	21447
886.025	21530
886.15	21447
886.275	21485
886.4	21386
886.525	21492
886.65	21405
886.775	21416
886.9	21656
887.025	21690
887.149	21447
887.274	21291
887.399	21382
887.523	21268
887.648	21214
887.773	21203
887.897	21233
888.021	21363
888.146	21169
888.27	21222
888.395	21214
888.519	21279
888.643	21138
888.767	21340
888.891	21116
889.015	21104
889.139	21150
889.263	21020
889.387	21112
889.511	21291
889.635	21207
889.759	20925
889.883	21013
890.006	21123
890.13	21093
890.254	20899
890.377	20952
890.501	20792
890.624	20765
890.748	20815
890.871	20651
890.995	20598
891.118	20556
891.241	20621
891.364	20716
891.488	20697
891.611	20507
891.734	20651
891.857	20648
891.98	20613
892.103	20583
892.226	20518
892.349	20545
892.471	20374
892.594	20473
892.717	20503
892.839	20522
892.962	20484
893.085	20575
893.207	20541
893.33	20305
893.452	20412
893.575	20507
893.697	20393
893.819	20636
893.941	20640
894.064	20629
894.186	20332
894.308	20465
894.43	20594
894.552	20575
894.674	20434
894.796	20408
894.918	20518
895.04	20419
895.161	20511
895.283	20438
895.405	20438
895.526	20537
895.648	20461
895.769	20571
895.891	20511
896.012	20480
896.134	20583
896.255	20419
896.376	20412
896.498	20499
896.619	20408
896.74	20438
896.861	20560
896.982	20765
897.103	20948
897.224	20689
897.345	20651
897.466	20560
897.587	20655
897.708	20876
897.828	20758
897.949	20598
898.07	20533
898.19	20594
898.311	20762
898.431	20579
898.552	20640
898.672	20754
898.792	20830
898.913	20807
899.033	20541
899.153	20450
899.273	20389
899.393	20370
899.513	20530
899.633	20389
899.753	20545
899.873	20503
899.993	20507
900.113	20343
900.232	20278
900.352	20195
900.472	20267
900.591	20142
900.711	20259
900.83	20161
900.95	20233
901.069	20305
901.189	20115
901.308	19871
901.427	19765
901.546	19902
901.665	19856
901.784	19830
901.904	19700
902.023	19563
902.141	19403
902.26	19316
902.379	19343
902.498	19278
902.617	19274
902.735	19346
902.854	19251
902.973	19187
903.091	18996
903.21	19012
903.328	18951
903.446	18844
903.565	18817
903.683	18768
903.801	18612
903.919	18738
904.038	18684
904.156	18532
904.274	18532
904.392	18441
904.51	18513
904.627	18566
904.745	18612
904.863	18544
904.981	18445
905.098	18110
905.216	18148
905.334	18216
905.451	18209
905.569	18186
905.686	18068
905.803	18133
905.921	17969
906.038	18125
906.155	17939
906.272	17863
906.389	17897
906.506	17821
906.623	17699
906.74	17714
906.857	17661
906.974	17649
907.091	17832
907.208	17817
907.324	17687
907.441	17520
907.557	17452
907.674	17417
907.79	17360
907.907	17398
908.023	17455
908.139	17337
908.256	17440
908.372	17398
908.488	17326
908.604	17151
908.72	17124
908.836	17189
908.952	17018
909.068	17159
909.184	17208
909.3	17128
909.415	17079
909.531	17060
909.647	16877
909.762	16850
909.878	16831
909.993	16892
910.108	16877
910.224	16847
910.339	16733
910.454	16763
910.57	16767
910.685	16538
910.8	16854
910.915	16820
911.03	16706
911.145	16580
911.259	16417
911.374	16386
911.489	16379
911.604	16325
911.718	16219
911.833	16173
911.947	16158
912.062	16032
912.176	16177
912.291	16188
912.405	16158
912.519	16432
912.633	16398
912.748	16166
912.862	16166
912.976	16055
913.09	15915
913.204	16002
913.318	16025
913.431	16040
913.545	16097
913.659	16090
913.772	15934
913.886	15785
914	15823
914.113	15861
914.226	15884
914.34	15850
914.453	15762
914.566	15831
914.68	15644
914.793	15622
914.906	15500
915.019	15313
915.132	15389
915.245	15454
915.358	15363
915.47	15504
915.583	15450
915.696	15386
915.809	15458
915.921	15405
916.034	15310
916.146	15249
916.259	15268
916.371	15401
916.483	15332
916.595	15211
916.708	15245
916.82	15237
916.932	15135
917.044	15195
917.156	15131
917.268	15032
917.38	15070
917.491	15074
917.603	15009
917.715	15039
917.826	15112
917.938	14990
918.049	14861
918.161	15009
918.272	15066
918.384	15028
918.495	14925
918.606	14792
918.717	14716
918.828	14800
918.939	14781
919.05	14785
919.161	14792
919.272	14575
919.383	14632
919.494	14838
919.604	14986
919.715	14769
919.826	14602
919.936	14686
920.047	14834
920.157	14735
920.267	15013
920.378	14785
920.488	14655
920.598	14910
920.708	15077
920.818	14979
920.928	14960
921.038	15039
921.148	14998
921.258	14651
921.368	14632
921.477	14484
921.587	14476
921.697	14313
921.806	14564
921.916	14328
922.025	14092
922.134	14138
922.244	14081
922.353	14035
922.462	13982
922.571	13909
922.68	13727
922.789	13761
922.898	13807
923.007	13765
923.116	13765
923.224	13822
923.333	13689
923.442	13567
923.55	13559
923.659	13681
923.767	13704
923.876	13559
923.984	13616
924.092	13453
924.201	13491
924.309	13578
924.417	13460
924.525	13510
924.633	13350
924.741	14168
924.849	13263
924.956	13377
925.064	13278
925.172	13095
925.279	13194
925.387	13137
925.494	13145
925.602	13297
925.709	13282
925.816	13107
925.924	13137
926.031	13209
926.138	13122
926.245	13152
926.352	13069
926.459	13198
926.566	13168
926.673	13057
926.779	12973
926.886	12829
926.993	12772
927.099	12787
927.206	12696
927.312	12681
927.419	12745
927.525	12631
927.631	12734
927.737	12623
927.843	12623
927.95	12490
928.056	12540
928.162	12563
928.267	12589
928.373	13141
928.479	12566
928.585	12376
928.69	12464
928.796	12532
928.901	12403
929.007	12315
929.112	12441
929.218	12426
929.323	12308
929.428	12205
929.533	12395
929.638	12254
929.743	12190
929.848	12209
929.953	12159
930.058	12114
930.163	11904
930.267	11889
930.372	12026
930.477	11866
930.581	12098
930.685	11927
930.79	11950
930.894	11813
930.998	11733
931.103	11980
931.207	11615
931.311	11532
931.415	11398
931.519	11197
931.623	11216
