Data from test_V78500241_599.txt Node
Date: Fri Mar 25 15:14:01 CST 2022
User: usil
Spectrometer: V785-0024
Trigger mode: 0
Integration Time (sec): 4.000000E-1
Scans to average: 1
Nonlinearity correction enabled: false
Boxcar width: 0
Storing dark spectrum: false
XAxis mode: Wavelengths
Number of Pixels in Spectrum: 1024
>>>>>Begin Spectral Data<<<<<
801.071	27492
801.214	27195
801.356	27195
801.499	27089
801.641	27001
801.783	26948
801.926	26944
802.068	27017
802.211	26743
802.353	26758
802.496	26712
802.638	26602
802.78	26545
802.923	26522
803.065	26453
803.208	26377
803.35	26640
803.492	26545
803.635	26655
803.777	26587
803.919	26716
804.061	26952
804.204	26697
804.346	26609
804.488	26590
804.63	26716
804.773	26594
804.915	26720
805.057	26998
805.199	26644
805.341	26887
805.483	26998
805.626	26845
805.768	26743
805.91	26701
806.052	26906
806.194	26796
806.336	27100
806.478	27047
806.62	26910
806.762	27032
806.904	27142
807.046	27348
807.188	27245
807.33	27359
807.472	27355
807.614	27256
807.756	27306
807.898	27192
808.04	27138
808.182	27233
808.324	27169
808.465	27085
808.607	27260
808.749	27367
808.891	27515
809.033	27663
809.174	27564
809.316	27542
809.458	27515
809.6	27450
809.741	27637
809.883	27610
810.025	27500
810.166	27698
810.308	27739
810.45	27766
810.591	27690
810.733	27466
810.875	27477
811.016	27355
811.158	27287
811.299	27450
811.441	27519
811.582	27610
811.724	27458
811.865	27405
812.007	27515
812.148	27370
812.29	27564
812.431	27713
812.573	27800
812.714	27907
812.855	28116
812.997	28063
813.138	28188
813.279	28086
813.421	27975
813.562	28101
813.703	27816
813.845	27720
813.986	27439
814.127	27378
814.268	27169
814.41	27184
814.551	27169
814.692	27302
814.833	27070
814.974	27116
815.115	27123
815.256	27047
815.397	27058
815.539	27043
815.68	27081
815.821	26876
815.962	26899
816.103	26834
816.244	26807
816.385	26720
816.526	26701
816.666	26541
816.807	26457
816.948	26457
817.089	26598
817.23	26434
817.371	26564
817.512	26396
817.653	26488
817.793	26431
817.934	26415
818.075	26317
818.216	26469
818.356	26408
818.497	26343
818.638	26183
818.778	26233
818.919	26278
819.06	26168
819.2	26134
819.341	26514
819.481	26423
819.622	26613
819.762	26834
819.903	26746
820.043	26552
820.184	26621
820.324	26724
820.465	26754
820.605	26594
820.746	26507
820.886	26442
821.026	26434
821.167	26457
821.307	26518
821.447	26552
821.588	26290
821.728	26157
821.868	26031
822.008	25997
822.149	26012
822.289	25841
822.429	25677
822.569	25605
822.709	25582
822.849	25369
822.99	25575
823.13	25426
823.27	25415
823.41	25278
823.55	25072
823.69	25259
823.83	25251
823.97	25343
824.11	25084
824.25	25065
824.389	25107
824.529	25198
824.669	25160
824.809	25308
824.949	25236
825.089	25221
825.228	25137
825.368	24973
825.508	24939
825.648	24962
825.787	24996
825.927	24989
826.067	25050
826.206	24954
826.346	25012
826.485	25031
826.625	24837
826.765	25061
826.904	24947
827.044	24814
827.183	24833
827.323	24681
827.462	24696
827.601	24658
827.741	24661
827.88	24540
828.02	24627
828.159	24646
828.298	24715
828.437	24749
828.577	24684
828.716	24802
828.855	24574
828.994	24338
829.134	24410
829.273	24410
829.412	24369
829.551	24338
829.69	24296
829.829	24395
829.968	24372
830.107	24460
830.246	24437
830.385	24346
830.524	24201
830.663	24194
830.802	24045
830.941	23999
831.08	23893
831.219	24182
831.357	24049
831.496	24213
831.635	23946
831.774	23988
831.913	23779
832.051	23676
832.19	23668
832.329	23851
832.467	23733
832.606	23646
832.744	23615
832.883	23649
833.022	23585
833.16	23726
833.299	23543
833.437	23695
833.576	23813
833.714	23752
833.852	23874
833.991	23798
834.129	23855
834.267	23813
834.406	23748
834.544	23794
834.682	23668
834.821	23737
834.959	23912
835.097	23748
835.235	23722
835.373	23855
835.511	23653
835.65	23627
835.788	23581
835.926	23440
836.064	23486
836.202	23414
836.34	23680
836.478	23531
836.615	23543
836.753	23539
836.891	23729
837.029	23627
837.167	23501
837.305	23482
837.443	23448
837.58	23421
837.718	23642
837.856	23406
837.993	23444
838.131	23478
838.269	23231
838.406	23288
838.544	23208
838.681	23086
838.819	23075
838.956	22847
839.094	22934
839.231	22911
839.369	23147
839.506	23296
839.643	23029
839.781	22923
839.918	22896
840.055	22949
840.193	22869
840.33	22748
840.467	22774
840.604	22869
840.742	23094
840.879	22656
841.016	22740
841.153	22641
841.29	22862
841.427	22892
841.564	22854
841.701	22778
841.838	22668
841.975	22687
842.112	22637
842.249	22622
842.385	22554
842.522	22713
842.659	22755
842.796	22645
842.933	22721
843.069	22352
843.206	22554
843.343	22550
843.479	22527
843.616	22626
843.752	22436
843.889	22447
844.025	22531
844.162	22299
844.298	22367
844.435	22287
844.571	22257
844.708	22367
844.844	22398
844.98	22599
845.117	22447
845.253	22230
845.389	22181
845.525	22211
845.661	22242
845.798	22139
845.934	22234
846.07	22002
846.206	22090
846.342	22223
846.478	22048
846.614	21953
846.75	21759
846.886	21793
847.022	21842
847.158	21827
847.294	21831
847.429	21907
847.565	21819
847.701	22086
847.837	21496
847.972	21583
848.108	21576
848.244	21625
848.379	21526
848.515	21576
848.65	21340
848.786	21416
848.921	21408
849.057	21488
849.192	21397
849.328	21397
849.463	21515
849.598	21424
849.734	21230
849.869	21207
850.004	21112
850.14	21272
850.275	21256
850.41	21165
850.545	21116
850.68	21093
850.815	21169
850.95	21180
851.085	21272
851.22	21256
851.355	21154
851.49	21108
851.625	21226
851.76	20986
851.895	21127
852.03	20982
852.165	21131
852.299	21207
852.434	21077
852.569	21294
852.703	21222
852.838	21184
852.973	21233
853.107	21321
853.242	20982
853.376	20990
853.511	21005
853.645	21074
853.78	21123
853.914	21009
854.048	20952
854.183	21036
854.317	21077
854.451	21089
854.585	21043
854.72	21062
854.854	20948
854.988	20979
855.122	20994
855.256	20891
855.39	20944
855.524	21051
855.658	21017
855.792	20963
855.926	21085
856.06	21043
856.194	21005
856.327	21013
856.461	21013
856.595	20990
856.729	20986
856.862	20998
856.996	20933
857.13	21032
857.263	21146
857.397	21028
857.53	21032
857.664	21047
857.797	20971
857.931	21062
858.064	20986
858.197	21055
858.331	20948
858.464	20876
858.597	20929
858.731	20933
858.864	20861
858.997	20952
859.13	21043
859.263	20948
859.396	20998
859.529	20925
859.662	20998
859.795	20807
859.928	21020
860.061	21176
860.194	21150
860.327	21017
860.46	21020
860.592	21020
860.725	21169
860.858	21207
860.99	21039
861.123	20967
861.256	20986
861.388	20960
861.521	21747
861.653	20921
861.786	20746
861.918	20739
862.05	20967
862.183	20982
862.315	20937
862.447	20998
862.58	20811
862.712	20705
862.844	20682
862.976	20712
863.108	20769
863.24	21157
863.372	20670
863.504	20701
863.636	20781
863.768	20785
863.9	20678
864.032	20659
864.164	20701
864.296	20625
864.428	20906
864.559	20815
864.691	20712
864.823	20613
864.954	20746
865.086	20792
865.217	20636
865.349	20549
865.48	20583
865.612	20583
865.743	20781
865.875	20724
866.006	20484
866.137	20651
866.269	20667
866.4	20594
866.531	20461
866.662	20549
866.793	20613
866.924	20522
867.055	20625
867.186	20549
867.317	20457
867.448	20438
867.579	20526
867.71	20537
867.841	20366
867.972	20457
868.103	20454
868.233	20518
868.364	20533
868.495	20663
868.625	20765
868.756	20944
868.886	20788
869.017	20788
869.147	20872
869.278	20941
869.408	20864
869.539	20743
869.669	20975
869.799	20708
869.929	20739
870.06	20994
870.19	21089
870.32	21180
870.45	21104
870.58	21195
870.71	21298
870.84	21230
870.97	21100
871.1	21184
871.23	21401
871.36	21405
871.489	21302
871.619	21397
871.749	21374
871.879	21431
872.008	21431
872.138	21348
872.267	21378
872.397	21192
872.526	21207
872.656	21294
872.785	21256
872.915	21336
873.044	21389
873.173	21393
873.303	21507
873.432	21534
873.561	21473
873.69	21443
873.819	21321
873.948	21553
874.077	21462
874.206	21310
874.335	21336
874.464	21401
874.593	21591
874.722	21526
874.851	21690
874.979	21553
875.108	21549
875.237	21618
875.365	21637
875.494	21488
875.623	21679
875.751	21583
875.88	21732
876.008	21751
876.136	21762
876.265	21972
876.393	22192
876.521	22124
876.65	22025
876.778	22051
876.906	21953
877.034	21911
877.162	22078
877.29	21975
877.418	21941
877.546	22090
877.674	22017
877.802	22021
877.93	22021
878.058	21956
878.185	21789
878.313	22051
878.441	22013
878.568	21785
878.696	21968
878.824	22010
878.951	22017
879.079	22173
879.206	22337
879.333	22143
879.461	21991
879.588	22078
879.715	22158
879.842	22318
879.97	22070
880.097	21743
880.224	21663
880.351	21823
880.478	21747
880.605	21667
880.732	21728
880.859	22036
880.986	21865
881.112	21899
881.239	21633
881.366	21477
881.493	21481
881.619	21454
881.746	21500
881.872	21313
881.999	21336
882.125	21279
882.252	21450
882.378	21332
882.505	21500
882.631	21203
882.757	21104
882.883	21207
883.01	21131
883.136	21005
883.262	21074
883.388	20925
883.514	21116
883.64	21074
883.766	20960
883.892	20849
884.018	20830
884.143	21001
884.269	21214
884.395	20796
884.52	20716
884.646	20845
884.772	20724
884.897	20663
885.023	20739
885.148	20845
885.274	20864
885.399	20826
885.524	20758
885.65	20777
885.775	20781
885.9	20746
886.025	20872
886.15	20750
886.275	20716
886.4	20613
886.525	20746
886.65	20609
886.775	20552
886.9	20811
887.025	20815
887.149	20762
887.274	20396
887.399	20549
887.523	20598
887.648	20530
887.773	20419
887.897	20545
888.021	20640
888.146	20442
888.27	20552
888.395	20568
888.519	20488
888.643	20511
888.767	20583
888.891	20366
889.015	20298
889.139	20404
889.263	20271
889.387	20484
889.511	20617
889.635	20423
889.759	20077
889.883	20332
890.006	20309
890.13	20351
890.254	20164
890.377	20111
890.501	20046
890.624	19978
890.748	20058
890.871	19928
890.995	19944
891.118	19875
891.241	19837
891.364	19818
891.488	19989
891.611	19845
891.734	19841
891.857	20001
891.98	19944
892.103	20012
892.226	19898
892.349	19830
892.471	19575
892.594	19685
892.717	19799
892.839	19765
892.962	19875
893.085	19833
893.207	19803
893.33	19674
893.452	19616
893.575	19772
893.697	19738
893.819	19925
893.941	19993
894.064	19849
894.186	19628
894.308	19693
894.43	19841
894.552	19845
894.674	19837
894.796	19799
894.918	19784
895.04	19700
895.161	19947
895.283	19856
895.405	19845
895.526	19883
895.648	19708
895.769	19852
895.891	19712
896.012	19860
896.134	19807
896.255	19761
896.376	19822
896.498	19738
896.619	19818
896.74	19803
896.861	19791
896.982	20195
897.103	20275
897.224	20020
897.345	20077
897.466	19947
897.587	19902
897.708	20138
897.828	19963
897.949	20046
898.07	19818
898.19	19879
898.311	20107
898.431	19913
898.552	19898
898.672	20077
898.792	20115
898.913	20073
899.033	19993
899.153	19875
899.273	19693
899.393	19772
899.513	19837
899.633	19826
899.753	19742
899.873	19765
899.993	19746
900.113	19791
900.232	19738
900.352	19655
900.472	19590
900.591	19506
900.711	19632
900.83	19586
900.95	19712
901.069	19567
901.189	19552
901.308	19270
901.427	19031
901.546	19110
901.665	19263
901.784	19076
901.904	19008
902.023	18802
902.141	18722
902.26	18654
902.379	18681
902.498	18654
902.617	18711
902.735	18696
902.854	18639
902.973	18635
903.091	18357
903.21	18273
903.328	18391
903.446	18338
903.565	18197
903.683	18038
903.801	18003
903.919	18045
904.038	17988
904.156	17961
904.274	18003
904.392	17863
904.51	17859
904.627	17893
904.745	17897
904.863	17931
904.981	17748
905.098	17600
905.216	17638
905.334	17573
905.451	17455
905.569	17501
905.686	17520
905.803	17604
905.921	17425
906.038	17501
906.155	17421
906.272	17318
906.389	17311
906.506	17140
906.623	17216
906.74	17128
906.857	17018
906.974	17090
907.091	17132
907.208	17307
907.324	17189
907.441	17060
907.557	16816
907.674	16885
907.79	16755
907.907	16839
908.023	16942
908.139	16850
908.256	16881
908.372	16763
908.488	16626
908.604	16630
908.72	16470
908.836	16645
908.952	16584
909.068	16565
909.184	16698
909.3	16538
909.415	16599
909.531	16519
909.647	16421
909.762	16352
909.878	16261
909.993	16390
910.108	16188
910.224	16223
910.339	16154
910.454	16128
910.57	16162
910.685	15979
910.8	16344
910.915	16211
911.03	16063
911.145	15945
911.259	15945
911.374	15960
911.489	15743
911.604	15785
911.718	15644
911.833	15648
911.947	15485
912.062	15538
912.176	15644
912.291	15576
912.405	15679
912.519	15804
912.633	15854
912.748	15682
912.862	15625
912.976	15485
913.09	15317
913.204	15397
913.318	15416
913.431	15564
913.545	15454
913.659	15488
913.772	15431
913.886	15313
914	15180
914.113	15256
914.226	15363
914.34	15340
914.453	15157
914.566	15199
914.68	15058
914.793	15192
914.906	14914
915.019	14849
915.132	14746
915.245	14804
915.358	14929
915.47	14785
915.583	14880
915.696	14868
915.809	14956
915.921	14933
916.034	14815
916.146	14804
916.259	14796
916.371	14830
916.483	14773
916.595	14769
916.708	14777
916.82	14739
916.932	14617
917.044	14651
917.156	14610
917.268	14499
917.38	14545
917.491	14564
917.603	14571
917.715	14571
917.826	14545
917.938	14434
918.049	14324
918.161	14476
918.272	14598
918.384	14621
918.495	14431
918.606	14381
918.717	14267
918.828	14305
918.939	14336
919.05	14252
919.161	14256
919.272	14107
919.383	14161
919.494	14328
919.604	14499
919.715	14263
919.826	14183
919.936	14256
920.047	14320
920.157	14176
920.267	14526
920.378	14347
920.488	14183
920.598	14450
920.708	14648
920.818	14396
920.928	14358
921.038	14492
921.148	14488
921.258	14252
921.368	14161
921.477	14065
921.587	14046
921.697	13860
921.806	13993
921.916	13864
922.025	13693
922.134	13609
922.244	13571
922.353	13616
922.462	13445
922.571	13434
922.68	13320
922.789	13285
922.898	13312
923.007	13282
923.116	13236
923.224	13301
923.333	13282
923.442	13145
923.55	13099
923.659	13099
923.767	13270
923.876	13149
923.984	13095
924.092	13099
924.201	13061
924.309	13110
924.417	12973
924.525	12962
924.633	12878
924.741	13769
924.849	12783
924.956	12871
925.064	12787
925.172	12608
925.279	12642
925.387	12787
925.494	12764
925.602	12795
925.709	12776
925.816	12688
925.924	12696
926.031	12791
926.138	12604
926.245	12707
926.352	12578
926.459	12745
926.566	12730
926.673	12585
926.779	12460
926.886	12540
926.993	12281
927.099	12338
927.206	12220
927.312	12201
927.419	12273
927.525	12289
927.631	12327
927.737	12254
927.843	12076
927.95	12053
928.056	12049
928.162	12136
928.267	12178
928.373	12821
928.479	12144
928.585	11923
928.69	12083
928.796	12110
928.901	11950
929.007	11748
929.112	11874
929.218	11939
929.323	11942
929.428	11817
929.533	12030
929.638	11748
929.743	11783
929.848	11798
929.953	11859
930.058	11707
930.163	11524
930.267	11600
930.372	11627
930.477	11539
930.581	11710
930.685	11528
930.79	11398
930.894	11478
930.998	11433
931.103	11516
931.207	11220
931.311	11098
931.415	10968
931.519	10828
931.623	10778
