Data from test_V78500241_2735.txt Node
Date: Fri Mar 25 15:28:54 CST 2022
User: usil
Spectrometer: V785-0024
Trigger mode: 0
Integration Time (sec): 4.000000E-1
Scans to average: 1
Nonlinearity correction enabled: false
Boxcar width: 0
Storing dark spectrum: false
XAxis mode: Wavelengths
Number of Pixels in Spectrum: 1024
>>>>>Begin Spectral Data<<<<<
801.071	27070
801.214	27093
801.356	26746
801.499	26773
801.641	26564
801.783	26636
801.926	26830
802.068	26552
802.211	26598
802.353	26457
802.496	26328
802.638	26214
802.78	26309
802.923	26199
803.065	26218
803.208	26172
803.35	26313
803.492	26298
803.635	26305
803.777	26271
803.919	26434
804.061	26735
804.204	26446
804.346	26267
804.488	26278
804.63	26434
804.773	26351
804.915	26507
805.057	26465
805.199	26385
805.341	26419
805.483	26374
805.626	26495
805.768	26374
805.91	26507
806.052	26473
806.194	26571
806.336	26602
806.478	26518
806.62	26503
806.762	26682
806.904	26853
807.046	27077
807.188	26963
807.33	27009
807.472	26960
807.614	26826
807.756	26853
807.898	26762
808.04	26674
808.182	26667
808.324	26944
808.465	26746
808.607	26967
808.749	27077
808.891	27211
809.033	27313
809.174	27150
809.316	26963
809.458	27032
809.6	27100
809.741	27150
809.883	27283
810.025	27450
810.166	27393
810.308	27545
810.45	27291
810.591	27302
810.733	27077
810.875	27112
811.016	27005
811.158	27013
811.299	27161
811.441	27336
811.582	27420
811.724	27146
811.865	26982
812.007	26982
812.148	27013
812.29	27096
812.431	27165
812.573	27310
812.714	27542
812.855	27606
812.997	27660
813.138	27827
813.279	27854
813.421	27717
813.562	27534
813.703	27424
813.845	27195
813.986	27055
814.127	26940
814.268	26887
814.41	26838
814.551	26762
814.692	26811
814.833	26739
814.974	26785
815.115	26777
815.256	26686
815.397	26602
815.539	26598
815.68	26503
815.821	26461
815.962	26571
816.103	26453
816.244	26461
816.385	26301
816.526	26362
816.666	26244
816.807	25966
816.948	26062
817.089	26073
817.23	25993
817.371	26111
817.512	26122
817.653	26130
817.793	25803
817.934	25940
818.075	26126
818.216	25978
818.356	26001
818.497	25803
818.638	25826
818.778	25731
818.919	25833
819.06	25871
819.2	25864
819.341	25982
819.481	25890
819.622	26180
819.762	26343
819.903	26305
820.043	26142
820.184	26210
820.324	26043
820.465	26050
820.605	26031
820.746	26062
820.886	25890
821.026	26062
821.167	26012
821.307	26050
821.447	26001
821.588	25856
821.728	25807
821.868	25784
822.008	25518
822.149	25552
822.289	25525
822.429	25168
822.569	25217
822.709	25255
822.849	24909
822.99	24886
823.13	24859
823.27	24863
823.41	24760
823.55	24658
823.69	24829
823.83	24817
823.97	24734
824.11	24559
824.25	24578
824.389	24540
824.529	24795
824.669	24627
824.809	24722
824.949	24654
825.089	24703
825.228	24582
825.368	24532
825.508	24437
825.648	24513
825.787	24464
825.927	24559
826.067	24441
826.206	24505
826.346	24616
826.485	24658
826.625	24498
826.765	24646
826.904	24635
827.044	24311
827.183	24273
827.323	24213
827.462	24239
827.601	24247
827.741	24224
827.88	24262
828.02	24152
828.159	24315
828.298	24102
828.437	24201
828.577	24117
828.716	24182
828.855	24102
828.994	23920
829.134	23916
829.273	23878
829.412	23836
829.551	23779
829.69	23882
829.829	23927
829.968	24095
830.107	23874
830.246	23969
830.385	23843
830.524	23874
830.663	23821
830.802	23657
830.941	23501
831.08	23566
831.219	23604
831.357	23505
831.496	23760
831.635	23493
831.774	23471
831.913	23383
832.051	23341
832.19	23349
832.329	23372
832.467	23124
832.606	23364
832.744	23277
832.883	23090
833.022	23162
833.16	23208
833.299	23136
833.437	23181
833.576	23356
833.714	23242
833.852	23140
833.991	23307
834.129	23288
834.267	23364
834.406	23322
834.544	23330
834.682	23273
834.821	23322
834.959	23539
835.097	23227
835.235	23261
835.373	23273
835.511	23094
835.65	23143
835.788	23147
835.926	23117
836.064	22915
836.202	22778
836.34	23037
836.478	23185
836.615	23086
836.753	23109
836.891	23231
837.029	23124
837.167	23037
837.305	22995
837.443	22957
837.58	23048
837.718	22991
837.856	22946
837.993	22942
838.131	22938
838.269	22725
838.406	22820
838.544	22805
838.681	22577
838.819	22584
838.956	22402
839.094	22478
839.231	22478
839.369	22683
839.506	22759
839.643	22637
839.781	22523
839.918	22508
840.055	22546
840.193	22409
840.33	22394
840.467	22394
840.604	22462
840.742	22542
840.879	22318
841.016	22356
841.153	22257
841.29	22329
841.427	22413
841.564	22348
841.701	22249
841.838	22352
841.975	22265
842.112	22322
842.249	22173
842.385	22139
842.522	22314
842.659	22265
842.796	22010
842.933	22158
843.069	22036
843.206	22013
843.343	22154
843.479	22120
843.616	22105
843.752	21835
843.889	21934
844.025	21861
844.162	21895
844.298	22059
844.435	21797
844.571	21804
844.708	21911
844.844	22086
844.98	22002
845.117	22017
845.253	21907
845.389	21785
845.525	21797
845.661	21751
845.798	21724
845.934	21641
846.07	21606
846.206	21618
846.342	21736
846.478	21633
846.614	21378
846.75	21355
846.886	21424
847.022	21526
847.158	21355
847.294	21431
847.429	21389
847.565	21424
847.701	21599
847.837	21005
847.972	21207
848.108	21157
848.244	21089
848.379	20925
848.515	20956
848.65	20918
848.786	20941
848.921	20933
849.057	21001
849.192	20994
849.328	20979
849.463	20960
849.598	20823
849.734	20899
849.869	20883
850.004	20682
850.14	20830
850.275	20632
850.41	20735
850.545	20811
850.68	20659
850.815	20697
850.95	20667
851.085	20887
851.22	20868
851.355	20853
851.49	20743
851.625	20613
851.76	20800
851.895	20682
852.03	20602
852.165	20746
852.299	20735
852.434	20765
852.569	20815
852.703	20667
852.838	20807
852.973	20864
853.107	20773
853.242	20602
853.376	20587
853.511	20469
853.645	20454
853.78	20552
853.914	20594
854.048	20613
854.183	20606
854.317	20609
854.451	20792
854.585	20568
854.72	20461
854.854	20606
854.988	20522
855.122	20670
855.256	20423
855.39	20526
855.524	20625
855.658	20590
855.792	20648
855.926	20606
856.06	20590
856.194	20625
856.327	20450
856.461	20564
856.595	20423
856.729	20655
856.862	20644
856.996	20545
857.13	20636
857.263	20686
857.397	20678
857.53	20503
857.664	20579
857.797	20594
857.931	20655
858.064	20571
858.197	20689
858.331	20575
858.464	20564
858.597	20473
858.731	20484
858.864	20457
858.997	20461
859.13	20537
859.263	20503
859.396	20590
859.529	20427
859.662	20495
859.795	20526
859.928	20564
860.061	20739
860.194	20701
860.327	20629
860.46	20609
860.592	20655
860.725	20682
860.858	20655
860.99	20454
861.123	20438
861.256	20457
861.388	20476
861.521	21055
861.653	20385
861.786	20282
861.918	20457
862.05	20492
862.183	20480
862.315	20412
862.447	20503
862.58	20446
862.712	20278
862.844	20221
862.976	20381
863.108	20362
863.24	20579
863.372	20271
863.504	20305
863.636	20210
863.768	20271
863.9	20240
864.032	20180
864.164	20225
864.296	20271
864.428	20298
864.559	20252
864.691	20294
864.823	20225
864.954	20214
865.086	20267
865.217	20153
865.349	20157
865.48	20271
865.612	20267
865.743	20324
865.875	20229
866.006	20130
866.137	20168
866.269	20183
866.4	20199
866.531	20168
866.662	20001
866.793	20062
866.924	20077
867.055	20153
867.186	20153
867.317	20100
867.448	20050
867.579	20111
867.71	20096
867.841	20100
867.972	20149
868.103	20092
868.233	20077
868.364	20111
868.495	20092
868.625	20229
868.756	20385
868.886	20339
869.017	20275
869.147	20473
869.278	20450
869.408	20374
869.539	20370
869.669	20336
869.799	20358
869.929	20484
870.06	20423
870.19	20720
870.32	20522
870.45	20731
870.58	20796
870.71	20937
870.84	20845
870.97	20727
871.1	20655
871.23	20815
871.36	20925
871.489	20853
871.619	20849
871.749	20906
871.879	20910
872.008	21051
872.138	20986
872.267	20842
872.397	20834
872.526	20708
872.656	20735
872.785	20750
872.915	20979
873.044	21096
873.173	20902
873.303	21077
873.432	21001
873.561	20975
873.69	20887
873.819	20986
873.948	21032
874.077	20868
874.206	20895
874.335	20956
874.464	21142
874.593	21207
874.722	21096
874.851	21256
874.979	21188
875.108	21192
875.237	21279
875.365	21150
875.494	21123
875.623	21370
875.751	21272
875.88	21226
876.008	21336
876.136	21435
876.265	21633
876.393	21759
876.521	21804
876.65	21660
876.778	21568
876.906	21473
877.034	21526
877.162	21671
877.29	21511
877.418	21515
877.546	21618
877.674	21447
877.802	21603
877.93	21576
878.058	21542
878.185	21408
878.313	21583
878.441	21507
878.568	21412
878.696	21443
878.824	21660
878.951	21743
879.079	21709
879.206	21934
879.333	21709
879.461	21591
879.588	21797
879.715	21755
879.842	21800
879.97	21629
880.097	21363
880.224	21325
880.351	21462
880.478	21393
880.605	21428
880.732	21386
880.859	21523
880.986	21397
881.112	21454
881.239	21245
881.366	21085
881.493	20941
881.619	21020
881.746	21112
881.872	21028
881.999	20910
882.125	20845
882.252	21104
882.378	21013
882.505	21081
882.631	20933
882.757	20708
882.883	20777
883.01	20769
883.136	20564
883.262	20499
883.388	20575
883.514	20609
883.64	20712
883.766	20632
883.892	20446
884.018	20438
884.143	20518
884.269	20773
884.395	20336
884.52	20301
884.646	20267
884.772	20320
884.897	20187
885.023	20278
885.148	20313
885.274	20514
885.399	20446
885.524	20374
885.65	20343
885.775	20408
885.9	20256
886.025	20484
886.15	20362
886.275	20275
886.4	20301
886.525	20374
886.65	20244
886.775	20294
886.9	20358
887.025	20598
887.149	20381
887.274	20278
887.399	20001
887.523	20122
887.648	20126
887.773	20043
887.897	20050
888.021	20233
888.146	20012
888.27	20195
888.395	20214
888.519	20092
888.643	20092
888.767	20077
888.891	20016
889.015	19932
889.139	19993
889.263	19928
889.387	19978
889.511	20138
889.635	20073
889.759	19818
889.883	19947
890.006	19864
890.13	19982
890.254	19765
890.377	19746
890.501	19719
890.624	19597
890.748	19597
890.871	19533
890.995	19605
891.118	19441
891.241	19616
891.364	19540
891.488	19552
891.611	19487
891.734	19548
891.857	19464
891.98	19320
892.103	19605
892.226	19453
892.349	19468
892.471	19403
892.594	19407
892.717	19483
892.839	19445
892.962	19396
893.085	19480
893.207	19377
893.33	19255
893.452	19327
893.575	19457
893.697	19373
893.819	19639
893.941	19556
894.064	19540
894.186	19430
894.308	19411
894.43	19491
894.552	19586
894.674	19453
894.796	19301
894.918	19384
895.04	19403
895.161	19525
895.283	19445
895.405	19358
895.526	19365
895.648	19362
895.769	19396
895.891	19373
896.012	19430
896.134	19407
896.255	19426
896.376	19335
896.498	19556
896.619	19422
896.74	19415
896.861	19559
896.982	19811
897.103	19852
897.224	19753
897.345	19655
897.466	19670
897.587	19708
897.708	19811
897.828	19639
897.949	19616
898.07	19453
898.19	19632
898.311	19738
898.431	19635
898.552	19696
898.672	19704
898.792	19674
898.913	19784
899.033	19635
899.153	19559
899.273	19392
899.393	19453
899.513	19449
899.633	19468
899.753	19407
899.873	19316
899.993	19415
900.113	19301
900.232	19457
900.352	19266
900.472	19270
900.591	19114
900.711	19187
900.83	19232
900.95	19350
901.069	19202
901.189	19114
901.308	18939
901.427	18749
901.546	18829
901.665	18833
901.784	18810
901.904	18639
902.023	18639
902.141	18502
902.26	18372
902.379	18448
902.498	18235
902.617	18258
902.735	18319
902.854	18296
902.973	18270
903.091	18144
903.21	18041
903.328	18057
903.446	17878
903.565	17931
903.683	17809
903.801	17707
903.919	17726
904.038	17798
904.156	17535
904.274	17611
904.392	17573
904.51	17573
904.627	17535
904.745	17539
904.863	17535
904.981	17395
905.098	17258
905.216	17296
905.334	17261
905.451	17227
905.569	17159
905.686	17170
905.803	17208
905.921	17033
906.038	17166
906.155	17132
906.272	17037
906.389	16835
906.506	16759
906.623	16835
906.74	16774
906.857	16771
906.974	16565
907.091	16782
907.208	16835
907.324	16847
907.441	16672
907.557	16519
907.674	16558
907.79	16394
907.907	16523
908.023	16432
908.139	16504
908.256	16542
908.372	16402
908.488	16390
908.604	16249
908.72	16268
908.836	16246
908.952	16181
909.068	16284
909.184	16314
909.3	16249
909.415	16280
909.531	16204
909.647	15964
909.762	15956
909.878	15949
909.993	16071
910.108	15915
910.224	15865
910.339	15934
910.454	15778
910.57	15732
910.685	15709
910.8	16032
910.915	15892
911.03	15762
911.145	15629
911.259	15576
911.374	15622
911.489	15530
911.604	15458
911.718	15325
911.833	15279
911.947	15237
912.062	15207
912.176	15367
912.291	15405
912.405	15344
912.519	15584
912.633	15382
912.748	15260
912.862	15226
912.976	15222
913.09	15055
913.204	15131
913.318	15154
913.431	15218
913.545	15188
913.659	15131
913.772	15169
913.886	14986
914	14857
914.113	15005
914.226	14979
914.34	15020
914.453	14861
914.566	15047
914.68	14804
914.793	14811
914.906	14644
915.019	14575
915.132	14537
915.245	14556
915.358	14556
915.47	14583
915.583	14598
915.696	14556
915.809	14739
915.921	14731
916.034	14465
916.146	14423
916.259	14434
916.371	14651
916.483	14469
916.595	14320
916.708	14305
916.82	14427
916.932	14431
917.044	14385
917.156	14320
917.268	14233
917.38	14404
917.491	14187
917.603	14252
917.715	14240
917.826	14252
917.938	14256
918.049	14191
918.161	14168
918.272	14229
918.384	14328
918.495	14233
918.606	14035
918.717	13932
918.828	14103
918.939	14005
919.05	13913
919.161	13955
919.272	13826
919.383	13822
919.494	14016
919.604	14199
919.715	13982
919.826	13932
919.936	13993
920.047	14058
920.157	13963
920.267	14084
920.378	13989
920.488	13875
920.598	14119
920.708	14313
920.818	14123
920.928	14153
921.038	14294
921.148	14229
921.258	13936
921.368	13864
921.477	13727
921.587	13704
921.697	13658
921.806	13776
921.916	13533
922.025	13438
922.134	13434
922.244	13304
922.353	13388
922.462	13221
922.571	13221
922.68	13072
922.789	13061
922.898	13000
923.007	13008
923.116	13080
923.224	12939
923.333	13042
923.442	12867
923.55	12856
923.659	12837
923.767	12951
923.876	12776
923.984	12951
924.092	12749
924.201	12863
924.309	12856
924.417	12776
924.525	12627
924.633	12757
924.741	13677
924.849	12509
924.956	12726
925.064	12509
925.172	12410
925.279	12475
925.387	12555
925.494	12490
925.602	12620
925.709	12479
925.816	12437
925.924	12338
926.031	12486
926.138	12357
926.245	12452
926.352	12353
926.459	12502
926.566	12536
926.673	12296
926.779	12232
926.886	12270
926.993	12098
927.099	12159
927.206	11992
927.312	11942
927.419	12110
927.525	12045
927.631	12083
927.737	12030
927.843	11931
927.95	11786
928.056	11859
928.162	11866
928.267	11969
928.373	12456
928.479	11992
928.585	11703
928.69	11828
928.796	11901
928.901	11764
929.007	11623
929.112	11817
929.218	11688
929.323	11649
929.428	11714
929.533	11726
929.638	11497
929.743	11596
929.848	11657
929.953	11573
930.058	11471
930.163	11337
930.267	11303
930.372	11402
930.477	11242
930.581	11528
930.685	11372
930.79	11307
930.894	11242
930.998	11284
931.103	11284
931.207	11086
931.311	10949
931.415	10854
931.519	10637
931.623	10611
