Data from test_V78500241_2331.txt Node
Date: Fri Mar 25 15:26:05 CST 2022
User: usil
Spectrometer: V785-0024
Trigger mode: 0
Integration Time (sec): 4.000000E-1
Scans to average: 1
Nonlinearity correction enabled: false
Boxcar width: 0
Storing dark spectrum: false
XAxis mode: Wavelengths
Number of Pixels in Spectrum: 1024
>>>>>Begin Spectral Data<<<<<
801.071	27135
801.214	27287
801.356	27192
801.499	27055
801.641	26842
801.783	26861
801.926	26929
802.068	26857
802.211	26823
802.353	26762
802.496	26526
802.638	26552
802.78	26514
802.923	26476
803.065	26412
803.208	26453
803.35	26568
803.492	26587
803.635	26552
803.777	26655
803.919	26670
804.061	26914
804.204	26712
804.346	26594
804.488	26457
804.63	26651
804.773	26560
804.915	26750
805.057	26773
805.199	26560
805.341	26815
805.483	26693
805.626	26826
805.768	26621
805.91	26746
806.052	26918
806.194	26720
806.336	26880
806.478	26849
806.62	26880
806.762	26887
806.904	27009
807.046	27329
807.188	27173
807.33	27199
807.472	27173
807.614	27017
807.756	27180
807.898	26967
808.04	27017
808.182	26963
808.324	27085
808.465	27070
808.607	27218
808.749	27397
808.891	27416
809.033	27606
809.174	27344
809.316	27405
809.458	27313
809.6	27332
809.741	27477
809.883	27583
810.025	27583
810.166	27542
810.308	27572
810.45	27587
810.591	27458
810.733	27355
810.875	27332
811.016	27245
811.158	27077
811.299	27439
811.441	27412
811.582	27443
811.724	27283
811.865	27176
812.007	27222
812.148	27275
812.29	27344
812.431	27454
812.573	27720
812.714	27789
812.855	27797
812.997	27892
813.138	27991
813.279	27934
813.421	27880
813.562	27823
813.703	27633
813.845	27572
813.986	27233
814.127	27184
814.268	26921
814.41	27043
814.551	27077
814.692	27085
814.833	26990
814.974	26990
815.115	27096
815.256	26853
815.397	27036
815.539	26792
815.68	26785
815.821	26651
815.962	26769
816.103	26777
816.244	26621
816.385	26594
816.526	26476
816.666	26431
816.807	26282
816.948	26317
817.089	26488
817.23	26412
817.371	26328
817.512	26256
817.653	26214
817.793	26183
817.934	26366
818.075	26286
818.216	26256
818.356	26358
818.497	26161
818.638	26069
818.778	26035
818.919	26031
819.06	26100
819.2	26145
819.341	26229
819.481	26240
819.622	26419
819.762	26613
819.903	26427
820.043	26503
820.184	26446
820.324	26336
820.465	26461
820.605	26404
820.746	26332
820.886	26320
821.026	26442
821.167	26374
821.307	26427
821.447	26267
821.588	26256
821.728	26005
821.868	25947
822.008	25753
822.149	25757
822.289	25818
822.429	25521
822.569	25407
822.709	25479
822.849	25312
822.99	25225
823.13	25202
823.27	25225
823.41	24985
823.55	24996
823.69	25012
823.83	25072
823.97	24992
824.11	24878
824.25	24840
824.389	24875
824.529	24916
824.669	24962
824.809	25057
824.949	24977
825.089	25061
825.228	24920
825.368	24673
825.508	24620
825.648	24715
825.787	24814
825.927	24821
826.067	24810
826.206	24768
826.346	24806
826.485	24840
826.625	24719
826.765	24749
826.904	24703
827.044	24578
827.183	24570
827.323	24426
827.462	24464
827.601	24471
827.741	24353
827.88	24471
828.02	24319
828.159	24361
828.298	24490
828.437	24604
828.577	24350
828.716	24570
828.855	24384
828.994	24117
829.134	24163
829.273	24057
829.412	24068
829.551	24049
829.69	24117
829.829	24182
829.968	24197
830.107	24098
830.246	24106
830.385	24095
830.524	24022
830.663	23980
830.802	23863
830.941	23767
831.08	23790
831.219	23893
831.357	23927
831.496	23996
831.635	23691
831.774	23668
831.913	23596
832.051	23535
832.19	23596
832.329	23486
832.467	23376
832.606	23341
832.744	23440
832.883	23318
833.022	23455
833.16	23402
833.299	23547
833.437	23448
833.576	23535
833.714	23448
833.852	23577
833.991	23505
834.129	23566
834.267	23623
834.406	23596
834.544	23471
834.682	23448
834.821	23421
834.959	23596
835.097	23531
835.235	23573
835.373	23425
835.511	23478
835.65	23299
835.788	23383
835.926	23269
836.064	23090
836.202	23094
836.34	23383
836.478	23288
836.615	23246
836.753	23296
836.891	23353
837.029	23372
837.167	23159
837.305	23269
837.443	23326
837.58	23143
837.718	23258
837.856	23246
837.993	23071
838.131	23143
838.269	23041
838.406	23018
838.544	22873
838.681	22771
838.819	22812
838.956	22713
839.094	22626
839.231	22660
839.369	22900
839.506	22995
839.643	22843
839.781	22637
839.918	22565
840.055	22641
840.193	22569
840.33	22656
840.467	22402
840.604	22588
840.742	22896
840.879	22409
841.016	22478
841.153	22459
841.29	22611
841.427	22542
841.564	22653
841.701	22554
841.838	22512
841.975	22470
842.112	22615
842.249	22440
842.385	22314
842.522	22569
842.659	22314
842.796	22432
842.933	22280
843.069	22360
843.206	22147
843.343	22272
843.479	22428
843.616	22440
843.752	22044
843.889	22124
844.025	22249
844.162	21972
844.298	22116
844.435	22128
844.571	22074
844.708	22143
844.844	22200
844.98	22192
845.117	22223
845.253	21888
845.389	21934
845.525	22002
845.661	21934
845.798	21774
845.934	21854
846.07	21869
846.206	21869
846.342	21876
846.478	21785
846.614	21568
846.75	21614
846.886	21534
847.022	21755
847.158	21542
847.294	21629
847.429	21462
847.565	21500
847.701	21930
847.837	21268
847.972	21287
848.108	21401
848.244	21401
848.379	21279
848.515	21157
848.65	21157
848.786	21161
848.921	21161
849.057	21332
849.192	21176
849.328	21245
849.463	21283
849.598	21100
849.734	21051
849.869	20994
850.004	21051
850.14	21013
850.275	20998
850.41	20902
850.545	20918
850.68	20804
850.815	20979
850.95	20834
851.085	21104
851.22	21062
851.355	20956
851.49	20933
851.625	20864
851.76	20883
851.895	20788
852.03	20830
852.165	20918
852.299	20982
852.434	20929
852.569	20998
852.703	20872
852.838	20933
852.973	20971
853.107	21013
853.242	20918
853.376	20769
853.511	20651
853.645	20655
853.78	20834
853.914	20826
854.048	20705
854.183	20769
854.317	20804
854.451	20982
854.585	20689
854.72	20762
854.854	20754
854.988	20667
855.122	20834
855.256	20625
855.39	20678
855.524	20891
855.658	20720
855.792	20720
855.926	20701
856.06	20876
856.194	20815
856.327	20781
856.461	20609
856.595	20625
856.729	20743
856.862	20975
856.996	20686
857.13	20929
857.263	20933
857.397	20918
857.53	20765
857.664	20773
857.797	20792
857.931	20864
858.064	20773
858.197	20804
858.331	20701
858.464	20678
858.597	20670
858.731	20682
858.864	20800
858.997	20716
859.13	20777
859.263	20712
859.396	20967
859.529	20811
859.662	20739
859.795	20663
859.928	20693
860.061	21005
860.194	20948
860.327	20727
860.46	20823
860.592	20925
860.725	20883
860.858	20853
860.99	20982
861.123	20682
861.256	20629
861.388	20693
861.521	21237
861.653	20663
861.786	20552
861.918	20503
862.05	20609
862.183	20648
862.315	20689
862.447	20746
862.58	20670
862.712	20564
862.844	20389
862.976	20579
863.108	20537
863.24	20998
863.372	20442
863.504	20419
863.636	20473
863.768	20590
863.9	20522
864.032	20438
864.164	20507
864.296	20541
864.428	20457
864.559	20454
864.691	20480
864.823	20514
864.954	20419
865.086	20415
865.217	20362
865.349	20278
865.48	20355
865.612	20423
865.743	20446
865.875	20408
866.006	20336
866.137	20351
866.269	20351
866.4	20366
866.531	20267
866.662	20267
866.793	20248
866.924	20328
867.055	20332
867.186	20393
867.317	20317
867.448	20191
867.579	20305
867.71	20195
867.841	20278
867.972	20286
868.103	20343
868.233	20225
868.364	20412
868.495	20298
868.625	20503
868.756	20629
868.886	20560
869.017	20530
869.147	20602
869.278	20602
869.408	20621
869.539	20495
869.669	20537
869.799	20655
869.929	20621
870.06	20720
870.19	20796
870.32	20796
870.45	20838
870.58	20891
870.71	21005
870.84	21077
870.97	20952
871.1	20914
871.23	21062
871.36	21180
871.489	20990
871.619	21165
871.749	21161
871.879	21241
872.008	21416
872.138	21104
872.267	21249
872.397	21005
872.526	21032
872.656	21058
872.785	20979
872.915	21180
873.044	21302
873.173	21256
873.303	21173
873.432	21351
873.561	21401
873.69	21237
873.819	21214
873.948	21203
874.077	21279
874.206	21028
874.335	21287
874.464	21374
874.593	21500
874.722	21447
874.851	21454
874.979	21450
875.108	21447
875.237	21370
875.365	21291
875.494	21496
875.623	21511
875.751	21526
875.88	21488
876.008	21568
876.136	21663
876.265	21698
876.393	21956
876.521	21987
876.65	21960
876.778	21823
876.906	21869
877.034	21850
877.162	21747
877.29	21774
877.418	21831
877.546	21831
877.674	21930
877.802	21713
877.93	21865
878.058	21804
878.185	21656
878.313	21614
878.441	21732
878.568	21698
878.696	21709
878.824	21827
878.951	21819
879.079	21975
879.206	21968
879.333	21888
879.461	21755
879.588	21953
879.715	21926
879.842	22021
879.97	21899
880.097	21648
880.224	21610
880.351	21557
880.478	21652
880.605	21614
880.732	21523
880.859	21781
880.986	21606
881.112	21629
881.239	21557
881.366	21481
881.493	21298
881.619	21161
881.746	21237
881.872	21249
881.999	21222
882.125	21119
882.252	21233
882.378	21272
882.505	21351
882.631	21001
882.757	20960
882.883	21024
883.01	21001
883.136	20701
883.262	20739
883.388	20773
883.514	20861
883.64	21070
883.766	20914
883.892	20632
884.018	20724
884.143	20815
884.269	20842
884.395	20537
884.52	20609
884.646	20712
884.772	20427
884.897	20446
885.023	20499
885.148	20636
885.274	20739
885.399	20537
885.524	20518
885.65	20575
885.775	20674
885.9	20549
886.025	20648
886.15	20606
886.275	20503
886.4	20423
886.525	20476
886.65	20408
886.775	20423
886.9	20678
887.025	20743
887.149	20495
887.274	20347
887.399	20313
887.523	20343
887.648	20301
887.773	20183
887.897	20396
888.021	20396
888.146	20278
888.27	20351
888.395	20362
888.519	20396
888.643	20336
888.767	20465
888.891	20218
889.015	20024
889.139	20138
889.263	20172
889.387	20168
889.511	20393
889.635	20267
889.759	20039
889.883	20069
890.006	20164
890.13	20256
890.254	20058
890.377	19986
890.501	19875
890.624	19887
890.748	20005
890.871	19860
890.995	19715
891.118	19514
891.241	19738
891.364	19693
891.488	19761
891.611	19643
891.734	19734
891.857	19822
891.98	19685
892.103	19830
892.226	19715
892.349	19719
892.471	19468
892.594	19666
892.717	19693
892.839	19670
892.962	19620
893.085	19746
893.207	19723
893.33	19499
893.452	19594
893.575	19731
893.697	19575
893.819	19818
893.941	19913
894.064	19719
894.186	19499
894.308	19480
894.43	19731
894.552	19727
894.674	19643
894.796	19552
894.918	19601
895.04	19563
895.161	19601
895.283	19632
895.405	19563
895.526	19518
895.648	19651
895.769	19575
895.891	19769
896.012	19605
896.134	19723
896.255	19624
896.376	19590
896.498	19624
896.619	19613
896.74	19674
896.861	19765
896.982	19894
897.103	20134
897.224	19890
897.345	19883
897.466	19742
897.587	19894
897.708	19986
897.828	19940
897.949	19795
898.07	19712
898.19	19940
898.311	19974
898.431	19734
898.552	19898
898.672	19963
898.792	19951
898.913	19845
899.033	19795
899.153	19575
899.273	19537
899.393	19643
899.513	19556
899.633	19639
899.753	19769
899.873	19597
899.993	19590
900.113	19674
900.232	19624
900.352	19586
900.472	19468
900.591	19384
900.711	19426
900.83	19270
900.95	19502
901.069	19460
901.189	19263
901.308	19091
901.427	18985
901.546	19053
901.665	18886
901.784	18989
901.904	18760
902.023	18726
902.141	18578
902.26	18631
902.379	18547
902.498	18559
902.617	18429
902.735	18506
902.854	18578
902.973	18346
903.091	18216
903.21	18182
903.328	18213
903.446	18220
903.565	18121
903.683	18057
903.801	17958
903.919	17954
904.038	17923
904.156	17748
904.274	17828
904.392	17783
904.51	17687
904.627	17779
904.745	17821
904.863	17824
904.981	17657
905.098	17402
905.216	17497
905.334	17467
905.451	17379
905.569	17429
905.686	17414
905.803	17497
905.921	17303
906.038	17239
906.155	17208
906.272	17235
906.389	17113
906.506	16949
906.623	16987
906.74	17018
906.857	16828
906.974	16976
907.091	17025
907.208	17124
907.324	17018
907.441	16957
907.557	16672
907.674	16729
907.79	16622
907.907	16698
908.023	16710
908.139	16702
908.256	16596
908.372	16485
908.488	16611
908.604	16436
908.72	16451
908.836	16337
908.952	16329
909.068	16367
909.184	16459
909.3	16405
909.415	16402
909.531	16238
909.647	16185
909.762	16162
909.878	16131
909.993	16116
910.108	16055
910.224	16010
910.339	16078
910.454	15972
910.57	15987
910.685	16017
910.8	16105
910.915	16124
911.03	15903
911.145	15869
911.259	15720
911.374	15743
911.489	15591
911.604	15629
911.718	15443
911.833	15530
911.947	15321
912.062	15237
912.176	15416
912.291	15477
912.405	15462
912.519	15584
912.633	15747
912.748	15462
912.862	15428
912.976	15321
913.09	15291
913.204	15287
913.318	15268
913.431	15233
913.545	15466
913.659	15393
913.772	15135
913.886	15108
914	15081
914.113	15226
914.226	15180
914.34	15119
914.453	14998
914.566	15058
914.68	15036
914.793	14998
914.906	14758
915.019	14777
915.132	14758
915.245	14720
915.358	14762
915.47	14682
915.583	14735
915.696	14788
915.809	14724
915.921	14815
916.034	14613
916.146	14697
916.259	14606
916.371	14811
916.483	14632
916.595	14598
916.708	14629
916.82	14450
916.932	14507
917.044	14484
917.156	14579
917.268	14415
917.38	14374
917.491	14385
917.603	14370
917.715	14522
917.826	14492
917.938	14282
918.049	14263
918.161	14423
918.272	14415
918.384	14488
918.495	14290
918.606	14115
918.717	14046
918.828	14168
918.939	14172
919.05	14138
919.161	14157
919.272	13986
919.383	14035
919.494	14157
919.604	14351
919.715	14206
919.826	14119
919.936	14145
920.047	14218
920.157	14176
920.267	14233
920.378	14111
920.488	14046
920.598	14233
920.708	14374
920.818	14267
920.928	14195
921.038	14412
921.148	14324
921.258	14145
921.368	14062
921.477	13868
921.587	13856
921.697	13700
921.806	13925
921.916	13757
922.025	13514
922.134	13502
922.244	13476
922.353	13556
922.462	13392
922.571	13400
922.68	13209
922.789	13183
922.898	13069
923.007	13137
923.116	13160
923.224	13175
923.333	13122
923.442	13099
923.55	13027
923.659	12996
923.767	13095
923.876	12973
923.984	12939
924.092	12913
924.201	12939
924.309	13008
924.417	12951
924.525	12806
924.633	12875
924.741	13788
924.849	12646
924.956	12810
925.064	12574
925.172	12540
925.279	12654
925.387	12597
925.494	12570
925.602	12707
925.709	12677
925.816	12445
925.924	12517
926.031	12654
926.138	12528
926.245	12547
926.352	12532
926.459	12604
926.566	12639
926.673	12479
926.779	12338
926.886	12372
926.993	12220
927.099	12140
927.206	12144
927.312	12133
927.419	12175
927.525	12247
927.631	12133
927.737	12007
927.843	12022
927.95	11931
928.056	12019
928.162	12068
928.267	11988
928.373	12688
928.479	12201
928.585	11859
928.69	11908
928.796	12049
928.901	11824
929.007	11779
929.112	11817
929.218	11836
929.323	11775
929.428	11756
929.533	11870
929.638	11638
929.743	11592
929.848	11729
929.953	11554
930.058	11634
930.163	11429
930.267	11467
930.372	11516
930.477	11414
930.581	11668
930.685	11501
930.79	11288
930.894	11368
930.998	11349
931.103	11440
931.207	11037
931.311	10976
931.415	10965
931.519	10759
931.623	10672
