Data from test_V78500241_1713.txt Node
Date: Fri Mar 25 15:21:47 CST 2022
User: usil
Spectrometer: V785-0024
Trigger mode: 0
Integration Time (sec): 4.000000E-1
Scans to average: 1
Nonlinearity correction enabled: false
Boxcar width: 0
Storing dark spectrum: false
XAxis mode: Wavelengths
Number of Pixels in Spectrum: 1024
>>>>>Begin Spectral Data<<<<<
801.071	27618
801.214	27774
801.356	27591
801.499	27519
801.641	27382
801.783	27287
801.926	27382
802.068	27260
802.211	27332
802.353	27154
802.496	27112
802.638	27051
802.78	27005
802.923	26967
803.065	26785
803.208	26944
803.35	26994
803.492	27066
803.635	27058
803.777	27104
803.919	27104
804.061	27580
804.204	27199
804.346	27176
804.488	27169
804.63	27195
804.773	27089
804.915	27195
805.057	27256
805.199	27146
805.341	27237
805.483	27272
805.626	27458
805.768	27260
805.91	27336
806.052	27306
806.194	27207
806.336	27526
806.478	27294
806.62	27325
806.762	27249
806.904	27511
807.046	27857
807.188	27755
807.33	27686
807.472	27724
807.614	27732
807.756	27679
807.898	27515
808.04	27542
808.182	27542
808.324	27614
808.465	27679
808.607	27873
808.749	27918
808.891	27994
809.033	28078
809.174	27865
809.316	27949
809.458	27793
809.6	27850
809.741	28070
809.883	28131
810.025	28215
810.166	28276
810.308	28135
810.45	28196
810.591	27975
810.733	27831
810.875	27991
811.016	27698
811.158	27618
811.299	27937
811.441	28017
811.582	28226
811.724	27812
811.865	27888
812.007	27880
812.148	27842
812.29	27941
812.431	28128
812.573	28299
812.714	28310
812.855	28428
812.997	28440
813.138	28603
813.279	28455
813.421	28508
813.562	28386
813.703	28215
813.845	28040
813.986	27846
814.127	27682
814.268	27637
814.41	27595
814.551	27504
814.692	27663
814.833	27523
814.974	27545
815.115	27629
815.256	27481
815.397	27363
815.539	27435
815.68	27515
815.821	27310
815.962	27382
816.103	27386
816.244	27260
816.385	27062
816.526	27207
816.666	26982
816.807	26788
816.948	26925
817.089	26929
817.23	26861
817.371	26792
817.512	26929
817.653	26933
817.793	26762
817.934	26845
818.075	26883
818.216	26937
818.356	26823
818.497	26746
818.638	26564
818.778	26621
818.919	26689
819.06	26530
819.2	26815
819.341	26948
819.481	26937
819.622	26918
819.762	27173
819.903	27199
820.043	27066
820.184	27085
820.324	26826
820.465	27077
820.605	26960
820.746	27043
820.886	26826
821.026	27013
821.167	27009
821.307	27051
821.447	26963
821.588	26830
821.728	26625
821.868	26575
822.008	26309
822.149	26408
822.289	26317
822.429	26157
822.569	26088
822.709	26054
822.849	25879
822.99	25951
823.13	25864
823.27	25753
823.41	25795
823.55	25620
823.69	25616
823.83	25693
823.97	25635
824.11	25567
824.25	25476
824.389	25544
824.529	25426
824.669	25582
824.809	25693
824.949	25525
825.089	25499
825.228	25662
825.368	25434
825.508	25434
825.648	25270
825.787	25381
825.927	25407
826.067	25396
826.206	25430
826.346	25449
826.485	25533
826.625	25491
826.765	25624
826.904	25518
827.044	25171
827.183	25141
827.323	25050
827.462	25320
827.601	25164
827.741	25061
827.88	25004
828.02	25156
828.159	25160
828.298	25069
828.437	25118
828.577	25088
828.716	25129
828.855	25012
828.994	24856
829.134	24768
829.273	24837
829.412	24776
829.551	24829
829.69	24833
829.829	24802
829.968	24962
830.107	24776
830.246	24817
830.385	24837
830.524	24700
830.663	24593
830.802	24623
830.941	24361
831.08	24429
831.219	24532
831.357	24532
831.496	24707
831.635	24414
831.774	24311
831.913	24285
832.051	24262
832.19	24251
832.329	24334
832.467	24133
832.606	24098
832.744	24053
832.883	24121
833.022	24007
833.16	24251
833.299	24015
833.437	24072
833.576	24289
833.714	24148
833.852	24243
833.991	24266
834.129	24346
834.267	24205
834.406	24159
834.544	24152
834.682	24235
834.821	24114
834.959	24308
835.097	24098
835.235	24262
835.373	24205
835.511	24205
835.65	23939
835.788	24038
835.926	23851
836.064	23805
836.202	23923
836.34	24045
836.478	24011
836.615	24057
836.753	24095
836.891	24114
837.029	24049
837.167	24011
837.305	24060
837.443	23859
837.58	23874
837.718	23901
837.856	23786
837.993	23840
838.131	23908
838.269	23817
838.406	23756
838.544	23665
838.681	23570
838.819	23524
838.956	23318
839.094	23223
839.231	23307
839.369	23505
839.506	23737
839.643	23547
839.781	23258
839.918	23341
840.055	23322
840.193	23280
840.33	23292
840.467	23273
840.604	23265
840.742	23493
840.879	23105
841.016	23174
841.153	23132
841.29	23417
841.427	23242
841.564	23318
841.701	23322
841.838	23121
841.975	23079
842.112	23220
842.249	23075
842.385	23003
842.522	23349
842.659	23006
842.796	22965
842.933	23018
843.069	22908
843.206	22877
843.343	23067
843.479	22866
843.616	22927
843.752	22809
843.889	22793
844.025	22968
844.162	22816
844.298	22820
844.435	22805
844.571	22767
844.708	22759
844.844	22919
844.98	23067
845.117	22999
845.253	22675
845.389	22672
845.525	22675
845.661	22592
845.798	22626
845.934	22489
846.07	22481
846.206	22489
846.342	22519
846.478	22470
846.614	22242
846.75	22238
846.886	22143
847.022	22341
847.158	22219
847.294	22295
847.429	22173
847.565	22177
847.701	22447
847.837	21975
847.972	21960
848.108	22116
848.244	22074
848.379	21838
848.515	21720
848.65	21736
848.786	21755
848.921	21861
849.057	21911
849.192	22055
849.328	21854
849.463	21857
849.598	21686
849.734	21682
849.869	21663
850.004	21545
850.14	21633
850.275	21583
850.41	21485
850.545	21553
850.68	21545
850.815	21557
850.95	21595
851.085	21755
851.22	21709
851.355	21610
851.49	21618
851.625	21553
851.76	21633
851.895	21561
852.03	21424
852.165	21515
852.299	21675
852.434	21728
852.569	21625
852.703	21614
852.838	21629
852.973	21755
853.107	21667
853.242	21561
853.376	21275
853.511	21237
853.645	21374
853.78	21587
853.914	21530
854.048	21367
854.183	21386
854.317	21374
854.451	21587
854.585	21469
854.72	21382
854.854	21583
854.988	21230
855.122	21367
855.256	21222
855.39	21447
855.524	21473
855.658	21443
855.792	21435
855.926	21485
856.06	21454
856.194	21477
856.327	21485
856.461	21386
856.595	21408
856.729	21405
856.862	21504
856.996	21340
857.13	21542
857.263	21568
857.397	21466
857.53	21416
857.664	21416
857.797	21545
857.931	21496
858.064	21485
858.197	21526
858.331	21321
858.464	21310
858.597	21325
858.731	21393
858.864	21256
858.997	21408
859.13	21428
859.263	21523
859.396	21530
859.529	21405
859.662	21367
859.795	21374
859.928	21431
860.061	21583
860.194	21599
860.327	21439
860.46	21310
860.592	21610
860.725	21542
860.858	21542
860.99	21405
861.123	21367
861.256	21367
861.388	21401
861.521	22177
861.653	21188
861.786	21173
861.918	21119
862.05	21336
862.183	21260
862.315	21268
862.447	21534
862.58	21184
862.712	21192
862.844	21108
862.976	21142
863.108	21226
863.24	21447
863.372	21020
863.504	21131
863.636	21116
863.768	21195
863.9	21154
864.032	21138
864.164	21116
864.296	21116
864.428	21306
864.559	21260
864.691	21218
864.823	21195
864.954	21119
865.086	21043
865.217	21058
865.349	20994
865.48	21058
865.612	20967
865.743	21024
865.875	21051
866.006	20887
866.137	21028
866.269	20979
866.4	20921
866.531	20960
866.662	20929
866.793	20960
866.924	20986
867.055	21013
867.186	20883
867.317	20994
867.448	20979
867.579	20921
867.71	20944
867.841	20796
867.972	20979
868.103	20982
868.233	20982
868.364	20887
868.495	20975
868.625	21119
868.756	21355
868.886	21203
869.017	21241
869.147	21264
869.278	21298
869.408	21123
869.539	21135
869.669	21245
869.799	21237
869.929	21241
870.06	21336
870.19	21386
870.32	21393
870.45	21583
870.58	21542
870.71	21793
870.84	21663
870.97	21633
871.1	21644
871.23	21698
871.36	21850
871.489	21759
871.619	21766
871.749	21854
871.879	21614
872.008	21903
872.138	21819
872.267	21766
872.397	21568
872.526	21682
872.656	21545
872.785	21599
872.915	21800
873.044	21766
873.173	21804
873.303	21808
873.432	21960
873.561	21918
873.69	21819
873.819	21759
873.948	21793
874.077	21720
874.206	21709
874.335	21785
874.464	21956
874.593	22067
874.722	21926
874.851	21960
874.979	22021
875.108	22059
875.237	21903
875.365	21972
875.494	22097
875.623	22040
875.751	21953
875.88	22101
876.008	22169
876.136	22219
876.265	22489
876.393	22603
876.521	22405
876.65	22466
876.778	22291
876.906	22306
877.034	22367
877.162	22550
877.29	22382
877.418	22344
877.546	22462
877.674	22352
877.802	22379
877.93	22348
878.058	22417
878.185	22322
878.313	22329
878.441	22272
878.568	22070
878.696	22402
878.824	22394
878.951	22466
879.079	22565
879.206	22653
879.333	22538
879.461	22329
879.588	22565
879.715	22519
879.842	22637
879.97	22363
880.097	22249
880.224	22261
880.351	22143
880.478	22147
880.605	22158
880.732	22257
880.859	22432
880.986	22086
881.112	22352
881.239	22169
881.366	21865
881.493	21941
881.619	21694
881.746	21709
881.872	21766
881.999	21705
882.125	21759
882.252	21838
882.378	21720
882.505	21861
882.631	21618
882.757	21469
882.883	21614
883.01	21462
883.136	21435
883.262	21279
883.388	21313
883.514	21367
883.64	21488
883.766	21344
883.892	21306
884.018	21230
884.143	21389
884.269	21534
884.395	21104
884.52	21005
884.646	21176
884.772	21017
884.897	21104
885.023	21142
885.148	21226
885.274	21272
885.399	21157
885.524	21135
885.65	21195
885.775	21074
885.9	21062
886.025	21192
886.15	21245
886.275	21077
886.4	21104
886.525	21032
886.65	21100
886.775	21032
886.9	21119
887.025	21348
887.149	21074
887.274	20883
887.399	20906
887.523	20815
887.648	20746
887.773	20743
887.897	20963
888.021	20838
888.146	20834
888.27	20914
888.395	20929
888.519	20842
888.643	20902
888.767	20845
888.891	20815
889.015	20651
889.139	20667
889.263	20636
889.387	20838
889.511	20925
889.635	20815
889.759	20598
889.883	20636
890.006	20602
890.13	20765
890.254	20590
890.377	20549
890.501	20473
890.624	20499
890.748	20549
890.871	20317
890.995	20225
891.118	20248
891.241	20149
891.364	20256
891.488	20347
891.611	20180
891.734	20218
891.857	20351
891.98	20248
892.103	20271
892.226	20313
892.349	20111
892.471	20005
892.594	20096
892.717	20122
892.839	20199
892.962	20119
893.085	20111
893.207	20130
893.33	20069
893.452	20206
893.575	20122
893.697	20069
893.819	20328
893.941	20400
894.064	20320
894.186	20081
894.308	20073
894.43	20157
894.552	20248
894.674	20199
894.796	20050
894.918	19967
895.04	20126
895.161	20263
895.283	20199
895.405	20073
895.526	20142
895.648	20084
895.769	20077
895.891	20134
896.012	20244
896.134	20126
896.255	20054
896.376	19974
896.498	20126
896.619	20237
896.74	20122
896.861	20172
896.982	20404
897.103	20613
897.224	20404
897.345	20351
897.466	20389
897.587	20442
897.708	20511
897.828	20313
897.949	20168
898.07	20153
898.19	20244
898.311	20503
898.431	20271
898.552	20328
898.672	20366
898.792	20438
898.913	20351
899.033	20164
899.153	20073
899.273	20005
899.393	20161
899.513	20214
899.633	20183
899.753	20096
899.873	20092
899.993	20187
900.113	20020
900.232	19986
900.352	19963
900.472	19871
900.591	19811
900.711	19944
900.83	19887
900.95	19925
901.069	19822
901.189	19765
901.308	19529
901.427	19449
901.546	19499
901.665	19521
901.784	19369
901.904	19297
902.023	19171
902.141	18981
902.26	18970
902.379	18913
902.498	18970
902.617	18829
902.735	18985
902.854	18894
902.973	18943
903.091	18551
903.21	18612
903.328	18623
903.446	18551
903.565	18342
903.683	18460
903.801	18399
903.919	18372
904.038	18399
904.156	18190
904.274	18304
904.392	18239
904.51	18228
904.627	18041
904.745	18262
904.863	18190
904.981	18087
905.098	17916
905.216	17756
905.334	17935
905.451	17965
905.569	17832
905.686	17878
905.803	17790
905.921	17646
906.038	17745
906.155	17722
906.272	17657
906.389	17665
906.506	17417
906.623	17551
906.74	17440
906.857	17383
906.974	17296
907.091	17455
907.208	17497
907.324	17429
907.441	17322
907.557	17090
907.674	17075
907.79	17041
907.907	17109
908.023	17223
908.139	17227
908.256	17064
908.372	17075
908.488	16965
908.604	16915
908.72	16835
908.836	16763
908.952	16850
909.068	16938
909.184	17014
909.3	16873
909.415	16949
909.531	16839
909.647	16542
909.762	16603
909.878	16550
909.993	16618
910.108	16580
910.224	16497
910.339	16550
910.454	16402
910.57	16325
910.685	16295
910.8	16577
910.915	16481
911.03	16337
911.145	16169
911.259	16230
911.374	16192
911.489	16131
911.604	16048
911.718	15861
911.833	15911
911.947	15781
912.062	15694
912.176	15808
912.291	15785
912.405	15934
912.519	16071
912.633	16040
912.748	16082
912.862	15831
912.976	15759
913.09	15625
913.204	15713
913.318	15713
913.431	15766
913.545	15755
913.659	15736
913.772	15667
913.886	15545
914	15523
914.113	15549
914.226	15656
914.34	15587
914.453	15538
914.566	15557
914.68	15488
914.793	15405
914.906	15188
915.019	15097
915.132	15066
915.245	15077
915.358	15127
915.47	15123
915.583	15077
915.696	15180
915.809	15249
915.921	15226
916.034	15028
916.146	14952
916.259	14979
916.371	15157
916.483	15085
916.595	14975
916.708	14914
916.82	15009
916.932	14864
917.044	14979
917.156	14849
917.268	14796
917.38	14750
917.491	14724
917.603	14811
917.715	14800
917.826	14762
917.938	14686
918.049	14503
918.161	14598
918.272	14785
918.384	14823
918.495	14712
918.606	14556
918.717	14522
918.828	14568
918.939	14587
919.05	14404
919.161	14499
919.272	14343
919.383	14389
919.494	14526
919.604	14712
919.715	14560
919.826	14461
919.936	14412
920.047	14610
920.157	14484
920.267	14659
920.378	14457
920.488	14412
920.598	14541
920.708	14781
920.818	14670
920.928	14823
921.038	14834
921.148	14746
921.258	14358
921.368	14339
921.477	14275
921.587	14240
921.697	14046
921.806	14157
921.916	14073
922.025	13902
922.134	13868
922.244	13833
922.353	13837
922.462	13841
922.571	13677
922.68	13590
922.789	13563
922.898	13567
923.007	13422
923.116	13613
923.224	13468
923.333	13464
923.442	13346
923.55	13327
923.659	13324
923.767	13422
923.876	13270
923.984	13324
924.092	13278
924.201	13274
924.309	13221
924.417	13331
924.525	13156
924.633	13080
924.741	14027
924.849	13080
924.956	13160
925.064	13050
925.172	12859
925.279	12852
925.387	12970
925.494	12939
925.602	13023
925.709	12939
925.816	12913
925.924	12825
926.031	12935
926.138	12795
926.245	12966
926.352	12760
926.459	12837
926.566	12894
926.673	12852
926.779	12669
926.886	12688
926.993	12555
927.099	12528
927.206	12403
927.312	12384
927.419	12445
927.525	12521
927.631	12517
927.737	12403
927.843	12407
927.95	12258
928.056	12228
928.162	12350
928.267	12361
928.373	12928
928.479	12437
928.585	12148
928.69	12266
928.796	12334
928.901	12155
929.007	11988
929.112	12194
929.218	12106
929.323	12136
929.428	11980
929.533	12175
929.638	11961
929.743	11999
929.848	12045
929.953	11973
930.058	11866
930.163	11699
930.267	11805
930.372	11866
930.477	11634
930.581	11969
930.685	11752
930.79	11665
930.894	11657
930.998	11623
931.103	11771
931.207	11330
931.311	11239
931.415	11170
931.519	10995
931.623	11041
