Data from test_V78500241_3027.txt Node
Date: Fri Mar 25 15:30:56 CST 2022
User: usil
Spectrometer: V785-0024
Trigger mode: 0
Integration Time (sec): 4.000000E-1
Scans to average: 1
Nonlinearity correction enabled: false
Boxcar width: 0
Storing dark spectrum: false
XAxis mode: Wavelengths
Number of Pixels in Spectrum: 1024
>>>>>Begin Spectral Data<<<<<
801.071	27233
801.214	27093
801.356	26937
801.499	26906
801.641	26819
801.783	26826
801.926	26830
802.068	26796
802.211	26655
802.353	26708
802.496	26419
802.638	26438
802.78	26252
802.923	26370
803.065	26358
803.208	26309
803.35	26358
803.492	26522
803.635	26511
803.777	26332
803.919	26526
804.061	26952
804.204	26655
804.346	26381
804.488	26343
804.63	26465
804.773	26320
804.915	26514
805.057	26705
805.199	26503
805.341	26564
805.483	26842
805.626	26545
805.768	26678
805.91	26670
806.052	26705
806.194	26632
806.336	26693
806.478	26583
806.62	26682
806.762	26701
806.904	26971
807.046	27051
807.188	26982
807.33	27081
807.472	27154
807.614	27104
807.756	27047
807.898	26872
808.04	26883
808.182	26887
808.324	26918
808.465	27043
808.607	27203
808.749	27180
808.891	27317
809.033	27298
809.174	27401
809.316	27116
809.458	27252
809.6	27249
809.741	27389
809.883	27348
810.025	27561
810.166	27549
810.308	27462
810.45	27530
810.591	27386
810.733	27252
810.875	27138
811.016	27093
811.158	27070
811.299	27283
811.441	27382
811.582	27348
811.724	27310
811.865	27291
812.007	27135
812.148	27146
812.29	27310
812.431	27492
812.573	27401
812.714	27618
812.855	27698
812.997	27842
813.138	27865
813.279	27846
813.421	27739
813.562	27717
813.703	27538
813.845	27454
813.986	27165
814.127	27104
814.268	27062
814.41	26906
814.551	26864
814.692	26975
814.833	26834
814.974	26792
815.115	26910
815.256	26743
815.397	26826
815.539	26773
815.68	26689
815.821	26594
815.962	26640
816.103	26625
816.244	26457
816.385	26358
816.526	26495
816.666	26115
816.807	26130
816.948	26218
817.089	26191
817.23	26145
817.371	26225
817.512	26084
817.653	26176
817.793	26001
817.934	26084
818.075	26084
818.216	26252
818.356	26206
818.497	25951
818.638	25898
818.778	25928
818.919	25928
819.06	25852
819.2	25936
819.341	26050
819.481	26138
819.622	26385
819.762	26530
819.903	26419
820.043	26309
820.184	26271
820.324	26282
820.465	26320
820.605	26256
820.746	26256
820.886	25951
821.026	26145
821.167	26275
821.307	26309
821.447	26050
821.588	26005
821.728	26043
821.868	25776
822.008	25689
822.149	25597
822.289	25559
822.429	25483
822.569	25365
822.709	25259
822.849	25141
822.99	25061
823.13	25046
823.27	24924
823.41	24802
823.55	24821
823.69	24894
823.83	24951
823.97	24875
824.11	24779
824.25	24646
824.389	24650
824.529	24939
824.669	24749
824.809	24791
824.949	24719
825.089	24722
825.228	24772
825.368	24627
825.508	24494
825.648	24601
825.787	24540
825.927	24658
826.067	24612
826.206	24631
826.346	24566
826.485	24673
826.625	24566
826.765	24795
826.904	24639
827.044	24357
827.183	24338
827.323	24182
827.462	24319
827.601	24304
827.741	24327
827.88	24384
828.02	24057
828.159	24178
828.298	24270
828.437	24315
828.577	24224
828.716	24289
828.855	24197
828.994	24045
829.134	24049
829.273	24045
829.412	24007
829.551	23836
829.69	23977
829.829	23923
829.968	23882
830.107	24011
830.246	24022
830.385	24015
830.524	23866
830.663	23843
830.802	23707
830.941	23543
831.08	23570
831.219	23596
831.357	23642
831.496	23889
831.635	23649
831.774	23524
831.913	23463
832.051	23463
832.19	23326
832.329	23356
832.467	23231
832.606	23318
832.744	23227
832.883	23098
833.022	23280
833.16	23341
833.299	23292
833.437	23269
833.576	23311
833.714	23345
833.852	23284
833.991	23258
834.129	23417
834.267	23406
834.406	23490
834.544	23288
834.682	23391
834.821	23360
834.959	23562
835.097	23280
835.235	23417
835.373	23307
835.511	23353
835.65	23258
835.788	23315
835.926	23143
836.064	23033
836.202	22999
836.34	23109
836.478	23189
836.615	23307
836.753	23223
836.891	23334
837.029	23254
837.167	23174
837.305	22980
837.443	23128
837.58	22942
837.718	23048
837.856	23041
837.993	22938
838.131	22881
838.269	22801
838.406	23003
838.544	22873
838.681	22615
838.819	22698
838.956	22421
839.094	22394
839.231	22523
839.369	22706
839.506	22991
839.643	22729
839.781	22531
839.918	22390
840.055	22402
840.193	22432
840.33	22421
840.467	22489
840.604	22599
840.742	22694
840.879	22276
841.016	22322
841.153	22409
841.29	22466
841.427	22390
841.564	22447
841.701	22451
841.838	22287
841.975	22356
842.112	22333
842.249	22314
842.385	22173
842.522	22428
842.659	22337
842.796	22097
842.933	22223
843.069	22128
843.206	22166
843.343	22333
843.479	22116
843.616	22188
843.752	21964
843.889	21964
844.025	22070
844.162	21941
844.298	22078
844.435	21915
844.571	21869
844.708	22044
844.844	22112
844.98	22067
845.117	22074
845.253	21972
845.389	21903
845.525	21774
845.661	21835
845.798	21717
845.934	21717
846.07	21629
846.206	21713
846.342	21850
846.478	21808
846.614	21462
846.75	21443
846.886	21287
847.022	21485
847.158	21439
847.294	21435
847.429	21504
847.565	21397
847.701	21610
847.837	21283
847.972	21116
848.108	21294
848.244	21146
848.379	21100
848.515	20868
848.65	21039
848.786	20941
848.921	21070
849.057	21241
849.192	21093
849.328	21020
849.463	20998
849.598	21028
849.734	20906
849.869	20933
850.004	20830
850.14	20872
850.275	20716
850.41	20834
850.545	20750
850.68	20762
850.815	20834
850.95	20697
851.085	20948
851.22	20880
851.355	20853
851.49	20686
851.625	20663
851.76	20864
851.895	20667
852.03	20731
852.165	20819
852.299	20861
852.434	20933
852.569	20788
852.703	20758
852.838	20853
852.973	20864
853.107	20754
853.242	20609
853.376	20640
853.511	20530
853.645	20583
853.78	20609
853.914	20644
854.048	20606
854.183	20549
854.317	20640
854.451	20758
854.585	20606
854.72	20629
854.854	20697
854.988	20450
855.122	20632
855.256	20385
855.39	20419
855.524	20682
855.658	20609
855.792	20648
855.926	20655
856.06	20667
856.194	20438
856.327	20655
856.461	20552
856.595	20476
856.729	20590
856.862	20674
856.996	20705
857.13	20659
857.263	20659
857.397	20674
857.53	20564
857.664	20636
857.797	20644
857.931	20727
858.064	20716
858.197	20663
858.331	20568
858.464	20625
858.597	20495
858.731	20583
858.864	20587
858.997	20511
859.13	20754
859.263	20560
859.396	20705
859.529	20583
859.662	20541
859.795	20476
859.928	20613
860.061	20765
860.194	20800
860.327	20727
860.46	20533
860.592	20705
860.725	20781
860.858	20819
860.99	20503
861.123	20480
861.256	20670
861.388	20617
861.521	21165
861.653	20431
861.786	20366
861.918	20385
862.05	20469
862.183	20503
862.315	20564
862.447	20541
862.58	20492
862.712	20320
862.844	20267
862.976	20328
863.108	20381
863.24	20712
863.372	20286
863.504	20290
863.636	20252
863.768	20267
863.9	20305
864.032	20225
864.164	20271
864.296	20317
864.428	20469
864.559	20400
864.691	20377
864.823	20412
864.954	20218
865.086	20377
865.217	20176
865.349	20195
865.48	20275
865.612	20172
865.743	20317
865.875	20278
866.006	20229
866.137	20206
866.269	20298
866.4	20187
866.531	20020
866.662	20225
866.793	20054
866.924	20229
867.055	20221
867.186	20229
867.317	20046
867.448	20115
867.579	20142
867.71	20012
867.841	20119
867.972	20191
868.103	20195
868.233	20271
868.364	20031
868.495	20271
868.625	20351
868.756	20461
868.886	20301
869.017	20419
869.147	20537
869.278	20522
869.408	20305
869.539	20408
869.669	20450
869.799	20480
869.929	20484
870.06	20499
870.19	20720
870.32	20621
870.45	20651
870.58	20765
870.71	20925
870.84	20891
870.97	20739
871.1	20887
871.23	20902
871.36	21013
871.489	20975
871.619	20899
871.749	20868
871.879	20994
872.008	21123
872.138	21043
872.267	21001
872.397	20937
872.526	20781
872.656	20914
872.785	20834
872.915	21005
873.044	21108
873.173	20944
873.303	21123
873.432	21032
873.561	21184
873.69	21028
873.819	21089
873.948	21074
874.077	21058
874.206	20982
874.335	20921
874.464	21119
874.593	21192
874.722	21226
874.851	21233
874.979	21222
875.108	21241
875.237	21142
875.365	21154
875.494	21222
875.623	21313
875.751	21226
875.88	21195
876.008	21332
876.136	21367
876.265	21534
876.393	21857
876.521	21701
876.65	21743
876.778	21797
876.906	21576
877.034	21557
877.162	21564
877.29	21553
877.418	21663
877.546	21583
877.674	21629
877.802	21648
877.93	21644
878.058	21595
878.185	21549
878.313	21576
878.441	21637
878.568	21477
878.696	21545
878.824	21637
878.951	21682
879.079	21774
879.206	21800
879.333	21857
879.461	21781
879.588	21739
879.715	21709
879.842	21842
879.97	21698
880.097	21504
880.224	21382
880.351	21431
880.478	21367
880.605	21545
880.732	21397
880.859	21663
880.986	21462
881.112	21428
881.239	21424
881.366	21241
881.493	20914
881.619	20956
881.746	21055
881.872	20971
881.999	20910
882.125	20941
882.252	21180
882.378	20956
882.505	21142
882.631	20914
882.757	20933
882.883	20750
883.01	20739
883.136	20754
883.262	20632
883.388	20488
883.514	20667
883.64	20762
883.766	20670
883.892	20541
884.018	20655
884.143	20632
884.269	20826
884.395	20503
884.52	20412
884.646	20400
884.772	20408
884.897	20324
885.023	20415
885.148	20473
885.274	20613
885.399	20484
885.524	20419
885.65	20412
885.775	20434
885.9	20355
886.025	20568
886.15	20423
886.275	20427
886.4	20298
886.525	20385
886.65	20263
886.775	20389
886.9	20499
887.025	20484
887.149	20450
887.274	20164
887.399	20145
887.523	20199
887.648	20138
887.773	20054
887.897	20313
888.021	20298
888.146	20161
888.27	20172
888.395	20206
888.519	20202
888.643	20195
888.767	20218
888.891	20130
889.015	19921
889.139	20020
889.263	19944
889.387	20027
889.511	20157
889.635	20138
889.759	20069
889.883	20020
890.006	19925
890.13	20088
890.254	19978
890.377	19913
890.501	19761
890.624	19742
890.748	19807
890.871	19681
890.995	19483
891.118	19480
891.241	19582
891.364	19666
891.488	19761
891.611	19502
891.734	19616
891.857	19651
891.98	19552
892.103	19616
892.226	19605
892.349	19476
892.471	19430
892.594	19575
892.717	19518
892.839	19537
892.962	19525
893.085	19563
893.207	19529
893.33	19285
893.452	19403
893.575	19567
893.697	19445
893.819	19731
893.941	19556
894.064	19639
894.186	19460
894.308	19422
894.43	19586
894.552	19693
894.674	19635
894.796	19373
894.918	19438
895.04	19483
895.161	19597
895.283	19419
895.405	19438
895.526	19491
895.648	19434
895.769	19563
895.891	19563
896.012	19620
896.134	19582
896.255	19430
896.376	19441
896.498	19525
896.619	19445
896.74	19540
896.861	19635
896.982	19799
897.103	19970
897.224	19963
897.345	19750
897.466	19734
897.587	19761
897.708	19833
897.828	19860
897.949	19700
898.07	19556
898.19	19632
898.311	19765
898.431	19658
898.552	19780
898.672	19818
898.792	19727
898.913	19791
899.033	19521
899.153	19571
899.273	19377
899.393	19666
899.513	19460
899.633	19411
899.753	19567
899.873	19384
899.993	19441
900.113	19422
900.232	19491
900.352	19430
900.472	19362
900.591	19274
900.711	19365
900.83	19244
900.95	19369
901.069	19308
901.189	19274
901.308	18951
901.427	18939
901.546	18844
901.665	18878
901.784	18901
901.904	18772
902.023	18650
902.141	18570
902.26	18521
902.379	18475
902.498	18422
902.617	18281
902.735	18410
902.854	18452
902.973	18346
903.091	18053
903.21	18102
903.328	18159
903.446	18030
903.565	17920
903.683	17882
903.801	17790
903.919	17805
904.038	17874
904.156	17680
904.274	17821
904.392	17661
904.51	17676
904.627	17615
904.745	17672
904.863	17695
904.981	17452
905.098	17376
905.216	17406
905.334	17383
905.451	17406
905.569	17299
905.686	17299
905.803	17280
905.921	17094
906.038	17250
906.155	17098
906.272	16995
906.389	17083
906.506	16938
906.623	16980
906.74	16900
906.857	16755
906.974	16873
907.091	17060
907.208	16987
907.324	16896
907.441	16843
907.557	16679
907.674	16527
907.79	16474
907.907	16561
908.023	16660
908.139	16588
908.256	16554
908.372	16500
908.488	16497
908.604	16333
908.72	16375
908.836	16314
908.952	16272
909.068	16413
909.184	16462
909.3	16318
909.415	16421
909.531	16284
909.647	16010
909.762	16105
909.878	15964
909.993	15994
910.108	15998
910.224	15956
910.339	15953
910.454	15945
910.57	15781
910.685	15701
910.8	16044
910.915	15960
911.03	15842
911.145	15739
911.259	15709
911.374	15694
911.489	15618
911.604	15549
911.718	15401
911.833	15431
911.947	15450
912.062	15169
912.176	15386
912.291	15439
912.405	15332
912.519	15629
912.633	15564
912.748	15450
912.862	15416
912.976	15226
913.09	15066
913.204	15157
913.318	15104
913.431	15252
913.545	15245
913.659	15454
913.772	15138
913.886	15104
914	14895
914.113	15150
914.226	15013
914.34	15093
914.453	14948
914.566	15142
914.68	14986
914.793	14887
914.906	14659
915.019	14602
915.132	14663
915.245	14651
915.358	14693
915.47	14651
915.583	14636
915.696	14610
915.809	14693
915.921	14819
916.034	14602
916.146	14549
916.259	14495
916.371	14598
916.483	14556
916.595	14533
916.708	14495
916.82	14450
916.932	14385
917.044	14495
917.156	14484
917.268	14309
917.38	14263
917.491	14286
917.603	14362
917.715	14431
917.826	14400
917.938	14301
918.049	14153
918.161	14145
918.272	14427
918.384	14332
918.495	14252
918.606	14161
918.717	14008
918.828	14024
918.939	14054
919.05	13940
919.161	14012
919.272	13974
919.383	13875
919.494	14142
919.604	14214
919.715	14043
919.826	13936
919.936	14046
920.047	14062
920.157	14153
920.267	14248
920.378	14096
920.488	14012
920.598	14210
920.708	14267
920.818	14164
920.928	14111
921.038	14358
921.148	14271
921.258	13986
921.368	13909
921.477	13860
921.587	13772
921.697	13681
921.806	13639
921.916	13624
922.025	13476
922.134	13403
922.244	13441
922.353	13426
922.462	13335
922.571	13236
922.68	13202
922.789	13179
922.898	13114
923.007	13050
923.116	13168
923.224	13149
923.333	13050
923.442	12909
923.55	12947
923.659	12981
923.767	12943
923.876	12867
923.984	12954
924.092	12814
924.201	12852
924.309	12791
924.417	12810
924.525	12795
924.633	12757
924.741	13582
924.849	12574
924.956	12696
925.064	12494
925.172	12506
925.279	12525
925.387	12570
925.494	12486
925.602	12639
925.709	12502
925.816	12395
925.924	12486
926.031	12582
926.138	12361
926.245	12456
926.352	12361
926.459	12502
926.566	12464
926.673	12346
926.779	12300
926.886	12376
926.993	12117
927.099	12110
927.206	12152
927.312	12045
927.419	12148
927.525	12098
927.631	12152
927.737	12045
927.843	11980
927.95	11828
928.056	11885
928.162	12022
928.267	11935
928.373	12582
928.479	11999
928.585	11714
928.69	11923
928.796	11988
928.901	11798
929.007	11707
929.112	11821
929.218	11767
929.323	11661
929.428	11703
929.533	11794
929.638	11691
929.743	11554
929.848	11608
929.953	11726
930.058	11497
930.163	11387
930.267	11364
930.372	11463
930.477	11379
930.581	11554
930.685	11436
930.79	11193
930.894	11296
930.998	11277
931.103	11360
931.207	11022
931.311	11037
931.415	10923
931.519	10660
931.623	10615
