Data from test_V78500241_3469.txt Node
Date: Fri Mar 25 15:34:00 CST 2022
User: usil
Spectrometer: V785-0024
Trigger mode: 0
Integration Time (sec): 4.000000E-1
Scans to average: 1
Nonlinearity correction enabled: false
Boxcar width: 0
Storing dark spectrum: false
XAxis mode: Wavelengths
Number of Pixels in Spectrum: 1024
>>>>>Begin Spectral Data<<<<<
801.071	27401
801.214	27180
801.356	27138
801.499	26902
801.641	26834
801.783	26830
801.926	26883
802.068	26804
802.211	26716
802.353	26804
802.496	26503
802.638	26389
802.78	26469
802.923	26339
803.065	26233
803.208	26370
803.35	26419
803.492	26541
803.635	26617
803.777	26537
803.919	26651
804.061	26929
804.204	26663
804.346	26461
804.488	26560
804.63	26621
804.773	26442
804.915	26613
805.057	26648
805.199	26541
805.341	26785
805.483	26807
805.626	26716
805.768	26594
805.91	26674
806.052	26765
806.194	26564
806.336	26857
806.478	26716
806.62	26583
806.762	26868
806.904	27062
807.046	27192
807.188	27135
807.33	27074
807.472	27184
807.614	27081
807.756	27077
807.898	26986
808.04	26948
808.182	26876
808.324	26853
808.465	26971
808.607	27036
808.749	27268
808.891	27412
809.033	27466
809.174	27408
809.316	27237
809.458	27374
809.6	27291
809.741	27272
809.883	27416
810.025	27705
810.166	27549
810.308	27526
810.45	27637
810.591	27507
810.733	27287
810.875	27306
811.016	27188
811.158	27207
811.299	27348
811.441	27660
811.582	27557
811.724	27214
811.865	27233
812.007	27264
812.148	27268
812.29	27439
812.431	27386
812.573	27576
812.714	27622
812.855	27770
812.997	27953
813.138	27968
813.279	27968
813.421	27739
813.562	27759
813.703	27633
813.845	27530
813.986	27226
814.127	27081
814.268	26952
814.41	26990
814.551	26929
814.692	27100
814.833	26849
814.974	26765
815.115	27013
815.256	26739
815.397	26891
815.539	26853
815.68	26743
815.821	26495
815.962	26716
816.103	26796
816.244	26530
816.385	26404
816.526	26469
816.666	26221
816.807	26271
816.948	26294
817.089	26324
817.23	26145
817.371	26168
817.512	26153
817.653	26214
817.793	25974
817.934	26202
818.075	26275
818.216	26309
818.356	26134
818.497	26122
818.638	25978
818.778	25986
818.919	25928
819.06	25951
819.2	26115
819.341	26298
819.481	26278
819.622	26252
819.762	26594
819.903	26396
820.043	26317
820.184	26313
820.324	26366
820.465	26313
820.605	26404
820.746	26298
820.886	26202
821.026	26153
821.167	26282
821.307	26324
821.447	26221
821.588	26065
821.728	26058
821.868	25807
822.008	25712
822.149	25597
822.289	25723
822.429	25388
822.569	25441
822.709	25225
822.849	25213
822.99	25137
823.13	25046
823.27	25095
823.41	24962
823.55	24951
823.69	25175
823.83	25107
823.97	24962
824.11	24871
824.25	24802
824.389	24806
824.529	24909
824.669	24768
824.809	24890
824.949	24802
825.089	25110
825.228	24779
825.368	24688
825.508	24741
825.648	24669
825.787	24730
825.927	24776
826.067	24741
826.206	24639
826.346	24745
826.485	24741
826.625	24696
826.765	24730
826.904	24726
827.044	24551
827.183	24464
827.323	24471
827.462	24517
827.601	24505
827.741	24369
827.88	24437
828.02	24384
828.159	24380
828.298	24570
828.437	24384
828.577	24251
828.716	24475
828.855	24281
828.994	24121
829.134	24095
829.273	24235
829.412	24216
829.551	24026
829.69	24087
829.829	24228
829.968	24167
830.107	24186
830.246	24171
830.385	24140
830.524	24102
830.663	23885
830.802	23836
830.941	23680
831.08	23668
831.219	23809
831.357	23866
831.496	23992
831.635	23764
831.774	23707
831.913	23627
832.051	23387
832.19	23554
832.329	23524
832.467	23551
832.606	23398
832.744	23471
832.883	23364
833.022	23364
833.16	23478
833.299	23440
833.437	23623
833.576	23592
833.714	23471
833.852	23581
833.991	23410
834.129	23604
834.267	23646
834.406	23474
834.544	23509
834.682	23543
834.821	23467
834.959	23524
835.097	23501
835.235	23387
835.373	23543
835.511	23512
835.65	23288
835.788	23448
835.926	23200
836.064	23113
836.202	23204
836.34	23315
836.478	23387
836.615	23326
836.753	23440
836.891	23417
837.029	23292
837.167	23273
837.305	23185
837.443	23258
837.58	23162
837.718	23353
837.856	23025
837.993	23124
838.131	23220
838.269	23113
838.406	23109
838.544	22866
838.681	22858
838.819	22911
838.956	22694
839.094	22603
839.231	22713
839.369	22839
839.506	22968
839.643	22896
839.781	22668
839.918	22554
840.055	22706
840.193	22748
840.33	22500
840.467	22615
840.604	22679
840.742	22835
840.879	22618
841.016	22577
841.153	22428
841.29	22683
841.427	22649
841.564	22694
841.701	22656
841.838	22523
841.975	22561
842.112	22573
842.249	22428
842.385	22386
842.522	22584
842.659	22341
842.796	22242
842.933	22318
843.069	22291
843.206	22314
843.343	22481
843.479	22348
843.616	22348
843.752	22135
843.889	22128
844.025	22314
844.162	22078
844.298	22375
844.435	22147
844.571	22101
844.708	22090
844.844	22253
844.98	22310
845.117	22261
845.253	22188
845.389	21953
845.525	22044
845.661	22070
845.798	21842
845.934	21918
846.07	21789
846.206	21945
846.342	21899
846.478	21835
846.614	21720
846.75	21675
846.886	21614
847.022	21785
847.158	21698
847.294	21591
847.429	21724
847.565	21568
847.701	21770
847.837	21294
847.972	21287
848.108	21477
848.244	21351
848.379	21245
848.515	21146
848.65	21222
848.786	21173
848.921	21268
849.057	21287
849.192	21188
849.328	21344
849.463	21161
849.598	21093
849.734	21013
849.869	21085
850.004	21036
850.14	21062
850.275	21043
850.41	20921
850.545	20773
850.68	21009
850.815	21036
850.95	20998
851.085	21184
851.22	21039
851.355	20998
851.49	20994
851.625	20986
851.76	20876
851.895	20891
852.03	20944
852.165	20944
852.299	21074
852.434	21123
852.569	21036
852.703	20960
852.838	21077
852.973	21142
853.107	21024
853.242	20880
853.376	20777
853.511	20754
853.645	20800
853.78	20960
853.914	20716
854.048	20838
854.183	20769
854.317	20910
854.451	20872
854.585	20883
854.72	20838
854.854	20952
854.988	20758
855.122	20834
855.256	20705
855.39	20762
855.524	20804
855.658	20880
855.792	20750
855.926	20701
856.06	20887
856.194	20830
856.327	20712
856.461	20743
856.595	20765
856.729	20819
856.862	20918
856.996	20800
857.13	20777
857.263	21009
857.397	20853
857.53	20804
857.664	20830
857.797	20849
857.931	20906
858.064	20910
858.197	20868
858.331	20750
858.464	20724
858.597	20667
858.731	20746
858.864	20781
858.997	20746
859.13	20750
859.263	20834
859.396	20857
859.529	20819
859.662	20594
859.795	20724
859.928	20785
860.061	20967
860.194	21013
860.327	20876
860.46	20845
860.592	20982
860.725	20990
860.858	21001
860.99	20796
861.123	20716
861.256	20853
861.388	20758
861.521	21534
861.653	20693
861.786	20507
861.918	20636
862.05	20708
862.183	20792
862.315	20701
862.447	20849
862.58	20739
862.712	20488
862.844	20518
862.976	20644
863.108	20644
863.24	20975
863.372	20438
863.504	20537
863.636	20450
863.768	20655
863.9	20514
864.032	20518
864.164	20434
864.296	20530
864.428	20556
864.559	20693
864.691	20697
864.823	20552
864.954	20545
865.086	20518
865.217	20389
865.349	20343
865.48	20415
865.612	20286
865.743	20602
865.875	20423
866.006	20362
866.137	20366
866.269	20343
866.4	20396
866.531	20366
866.662	20320
866.793	20419
866.924	20362
867.055	20389
867.186	20461
867.317	20305
867.448	20180
867.579	20317
867.71	20324
867.841	20343
867.972	20328
868.103	20275
868.233	20400
868.364	20412
868.495	20457
868.625	20545
868.756	20811
868.886	20590
869.017	20571
869.147	20750
869.278	20731
869.408	20648
869.539	20541
869.669	20674
869.799	20587
869.929	20758
870.06	20579
870.19	20906
870.32	20823
870.45	20971
870.58	21024
870.71	21005
870.84	21112
870.97	20979
871.1	21070
871.23	21138
871.36	21256
871.489	21058
871.619	21112
871.749	21127
871.879	21222
872.008	21336
872.138	21192
872.267	21173
872.397	21001
872.526	21047
872.656	21138
872.785	21096
872.915	21192
873.044	21291
873.173	21306
873.303	21283
873.432	21298
873.561	21428
873.69	21336
873.819	21279
873.948	21332
874.077	21252
874.206	21287
874.335	21195
874.464	21405
874.593	21500
874.722	21382
874.851	21507
874.979	21530
875.108	21466
875.237	21370
875.365	21275
875.494	21412
875.623	21526
875.751	21359
875.88	21481
876.008	21743
876.136	21663
876.265	21861
876.393	21968
876.521	22074
876.65	21979
876.778	21899
876.906	21797
877.034	21918
877.162	21884
877.29	21854
877.418	21850
877.546	21838
877.674	21892
877.802	21819
877.93	21831
878.058	21766
878.185	21656
878.313	21766
878.441	21770
878.568	21652
878.696	21804
878.824	21819
878.951	21953
879.079	21922
879.206	22070
879.333	22002
879.461	21930
879.588	21979
879.715	21937
879.842	22158
879.97	21899
880.097	21698
880.224	21633
880.351	21686
880.478	21774
880.605	21572
880.732	21583
880.859	22010
880.986	21717
881.112	21743
881.239	21526
881.366	21450
881.493	21416
881.619	21218
881.746	21260
881.872	21298
881.999	21218
882.125	21184
882.252	21344
882.378	21093
882.505	21317
882.631	21089
882.757	20941
882.883	21032
883.01	20910
883.136	20937
883.262	20826
883.388	20804
883.514	21009
883.64	20998
883.766	20720
883.892	20667
884.018	20754
884.143	20986
884.269	21028
884.395	20743
884.52	20568
884.646	20670
884.772	20526
884.897	20609
885.023	20552
885.148	20727
885.274	20659
885.399	20609
885.524	20545
885.65	20606
885.775	20594
885.9	20450
886.025	20682
886.15	20606
886.275	20537
886.4	20438
886.525	20446
886.65	20590
886.775	20431
886.9	20693
887.025	20731
887.149	20518
887.274	20419
887.399	20324
887.523	20305
887.648	20385
887.773	20221
887.897	20351
888.021	20328
888.146	20240
888.27	20377
888.395	20507
888.519	20484
888.643	20495
888.767	20381
888.891	20233
889.015	20168
889.139	20237
889.263	20161
889.387	20347
889.511	20454
889.635	20271
889.759	20084
889.883	20214
890.006	20145
890.13	20309
890.254	20130
890.377	20069
890.501	19936
890.624	19963
890.748	19875
890.871	19791
890.995	19693
891.118	19712
891.241	19727
891.364	19753
891.488	19917
891.611	19750
891.734	19814
891.857	19795
891.98	19818
892.103	19883
892.226	19788
892.349	19715
892.471	19476
892.594	19647
892.717	19662
892.839	19601
892.962	19712
893.085	19693
893.207	19704
893.33	19571
893.452	19567
893.575	19731
893.697	19613
893.819	19776
893.941	19875
894.064	19841
894.186	19658
894.308	19468
894.43	19715
894.552	19795
894.674	19708
894.796	19620
894.918	19647
895.04	19628
895.161	19780
895.283	19727
895.405	19620
895.526	19605
895.648	19651
895.769	19643
895.891	19727
896.012	19712
896.134	19681
896.255	19616
896.376	19616
896.498	19643
896.619	19662
896.74	19715
896.861	19715
896.982	19986
897.103	20145
897.224	19906
897.345	19921
897.466	19742
897.587	19902
897.708	20035
897.828	19997
897.949	19883
898.07	19753
898.19	19890
898.311	20035
898.431	19791
898.552	19849
898.672	19940
898.792	19925
898.913	19818
899.033	19822
899.153	19582
899.273	19616
899.393	19723
899.513	19647
899.633	19502
899.753	19563
899.873	19544
899.993	19624
900.113	19616
900.232	19540
900.352	19540
900.472	19499
900.591	19480
900.711	19540
900.83	19324
900.95	19457
901.069	19457
901.189	19346
901.308	19050
901.427	18966
901.546	19019
901.665	19012
901.784	19091
901.904	18734
902.023	18848
902.141	18570
902.26	18486
902.379	18707
902.498	18585
902.617	18369
902.735	18479
902.854	18422
902.973	18388
903.091	18171
903.21	18243
903.328	18213
903.446	18053
903.565	18007
903.683	17977
903.801	17885
903.919	17851
904.038	17954
904.156	17893
904.274	17901
904.392	17764
904.51	17813
904.627	17741
904.745	17821
904.863	17836
904.981	17729
905.098	17417
905.216	17482
905.334	17528
905.451	17467
905.569	17398
905.686	17448
905.803	17486
905.921	17277
906.038	17231
906.155	17208
906.272	17200
906.389	17117
906.506	17041
906.623	17048
906.74	17041
906.857	16797
906.974	16946
907.091	17064
907.208	17075
907.324	17079
907.441	16953
907.557	16725
907.674	16713
907.79	16683
907.907	16672
908.023	16767
908.139	16782
908.256	16550
908.372	16687
908.488	16630
908.604	16531
908.72	16405
908.836	16440
908.952	16367
909.068	16443
909.184	16512
909.3	16382
909.415	16500
909.531	16341
909.647	16162
909.762	16200
909.878	16135
909.993	16177
910.108	16150
910.224	16128
910.339	16082
910.454	16044
910.57	15979
910.685	15945
910.8	16169
910.915	16048
911.03	15983
911.145	15827
911.259	15808
911.374	15743
911.489	15701
911.604	15584
911.718	15614
911.833	15580
911.947	15408
912.062	15435
912.176	15538
912.291	15614
912.405	15648
912.519	15679
912.633	15679
912.748	15568
912.862	15488
912.976	15374
913.09	15138
913.204	15336
913.318	15279
913.431	15477
913.545	15310
913.659	15466
913.772	15336
913.886	15138
914	15058
914.113	15173
914.226	15294
914.34	15294
914.453	15024
914.566	15203
914.68	15051
914.793	14887
914.906	14769
915.019	14739
915.132	14720
915.245	14648
915.358	14739
915.47	14750
915.583	14792
915.696	14834
915.809	14864
915.921	14891
916.034	14674
916.146	14720
916.259	14625
916.371	14754
916.483	14781
916.595	14545
916.708	14583
916.82	14610
916.932	14568
917.044	14541
917.156	14549
917.268	14518
917.38	14400
917.491	14377
917.603	14412
917.715	14457
917.826	14427
917.938	14336
918.049	14343
918.161	14332
918.272	14473
918.384	14492
918.495	14415
918.606	14286
918.717	14214
918.828	14271
918.939	14336
919.05	14054
919.161	14134
919.272	13993
919.383	14069
919.494	14172
919.604	14313
919.715	14233
919.826	14107
919.936	14153
920.047	14233
920.157	14142
920.267	14351
920.378	14259
920.488	14126
920.598	14282
920.708	14488
920.818	14237
920.928	14248
921.038	14415
921.148	14309
921.258	14134
921.368	14119
921.477	13982
921.587	13814
921.697	13791
921.806	13989
921.916	13772
922.025	13586
922.134	13601
922.244	13453
922.353	13567
922.462	13419
922.571	13354
922.68	13225
922.789	13156
922.898	13274
923.007	13122
923.116	13263
923.224	13156
923.333	13179
923.442	13133
923.55	13004
923.659	13015
923.767	13080
923.876	13065
923.984	13008
924.092	12890
924.201	13008
924.309	12954
924.417	12886
924.525	12848
924.633	12897
924.741	13647
924.849	12669
924.956	12829
925.064	12608
925.172	12700
925.279	12570
925.387	12669
925.494	12578
925.602	12700
925.709	12700
925.816	12517
925.924	12582
926.031	12604
926.138	12585
926.245	12578
926.352	12517
926.459	12662
926.566	12555
926.673	12445
926.779	12372
926.886	12365
926.993	12213
927.099	12121
927.206	12163
927.312	12117
927.419	12205
927.525	12167
927.631	12186
927.737	12049
927.843	12106
927.95	11931
928.056	12095
928.162	12011
928.267	12098
928.373	12642
928.479	12136
928.585	11836
928.69	11992
928.796	12079
928.901	11954
929.007	11764
929.112	11897
929.218	11866
929.323	11805
929.428	11843
929.533	11912
929.638	11691
929.743	11722
929.848	11775
929.953	11714
930.058	11634
930.163	11440
930.267	11509
930.372	11611
930.477	11311
930.581	11661
930.685	11490
930.79	11372
930.894	11414
930.998	11364
931.103	11486
931.207	11102
931.311	10995
931.415	11003
931.519	10820
931.623	10702
