Data from test_V78500241_2493.txt Node
Date: Fri Mar 25 15:27:13 CST 2022
User: usil
Spectrometer: V785-0024
Trigger mode: 0
Integration Time (sec): 4.000000E-1
Scans to average: 1
Nonlinearity correction enabled: false
Boxcar width: 0
Storing dark spectrum: false
XAxis mode: Wavelengths
Number of Pixels in Spectrum: 1024
>>>>>Begin Spectral Data<<<<<
801.071	27161
801.214	27119
801.356	26899
801.499	26857
801.641	26781
801.783	26621
801.926	26826
802.068	26659
802.211	26697
802.353	26522
802.496	26514
802.638	26324
802.78	26278
802.923	26221
803.065	26381
803.208	26305
803.35	26377
803.492	26476
803.635	26438
803.777	26301
803.919	26434
804.061	26796
804.204	26537
804.346	26465
804.488	26362
804.63	26674
804.773	26450
804.915	26541
805.057	26488
805.199	26450
805.341	26446
805.483	26670
805.626	26678
805.768	26427
805.91	26617
806.052	26571
806.194	26461
806.336	26727
806.478	26724
806.62	26579
806.762	26678
806.904	26906
807.046	27089
807.188	26982
807.33	26918
807.472	27005
807.614	26883
807.756	26971
807.898	26857
808.04	26853
808.182	26746
808.324	26823
808.465	26819
808.607	27020
808.749	27260
808.891	27252
809.033	27454
809.174	27321
809.316	27169
809.458	27055
809.6	27116
809.741	27275
809.883	27431
810.025	27462
810.166	27530
810.308	27424
810.45	27427
810.591	27302
810.733	27119
810.875	27214
811.016	27051
811.158	27176
811.299	27382
811.441	27389
811.582	27431
811.724	27329
811.865	27066
812.007	27077
812.148	27214
812.29	27161
812.431	27233
812.573	27424
812.714	27610
812.855	27705
812.997	27717
813.138	27846
813.279	27816
813.421	27633
813.562	27553
813.703	27416
813.845	27378
813.986	27051
814.127	26971
814.268	27036
814.41	26906
814.551	26868
814.692	26914
814.833	26796
814.974	26655
815.115	26758
815.256	26724
815.397	26648
815.539	26686
815.68	26667
815.821	26526
815.962	26568
816.103	26609
816.244	26374
816.385	26465
816.526	26282
816.666	26218
816.807	26035
816.948	26119
817.089	26069
817.23	25989
817.371	26065
817.512	26153
817.653	26092
817.793	25864
817.934	26069
818.075	26161
818.216	26168
818.356	26005
818.497	25917
818.638	25921
818.778	25780
818.919	25814
819.06	25989
819.2	26043
819.341	26024
819.481	25928
819.622	26191
819.762	26202
819.903	26351
820.043	26244
820.184	26263
820.324	26142
820.465	26282
820.605	26138
820.746	26058
820.886	25966
821.026	26202
821.167	26081
821.307	26221
821.447	26126
821.588	26046
821.728	25940
821.868	25742
822.008	25624
822.149	25655
822.289	25628
822.429	25240
822.569	25324
822.709	25198
822.849	25225
822.99	25175
823.13	25118
823.27	24886
823.41	24882
823.55	24795
823.69	24875
823.83	24897
823.97	24905
824.11	24589
824.25	24604
824.389	24798
824.529	24681
824.669	24692
824.809	24806
824.949	24829
825.089	24673
825.228	24867
825.368	24604
825.508	24608
825.648	24582
825.787	24627
825.927	24650
826.067	24612
826.206	24608
826.346	24749
826.485	24688
826.625	24639
826.765	24787
826.904	24597
827.044	24315
827.183	24323
827.323	24254
827.462	24346
827.601	24357
827.741	24247
827.88	24243
828.02	24186
828.159	24232
828.298	24266
828.437	24308
828.577	24205
828.716	24391
828.855	24232
828.994	24015
829.134	24022
829.273	24114
829.412	23855
829.551	23828
829.69	24034
829.829	24049
829.968	24087
830.107	23984
830.246	23988
830.385	24091
830.524	24018
830.663	23756
830.802	23840
830.941	23520
831.08	23448
831.219	23695
831.357	23817
831.496	23802
831.635	23440
831.774	23573
831.913	23406
832.051	23387
832.19	23387
832.329	23353
832.467	23391
832.606	23353
832.744	23151
832.883	23299
833.022	23265
833.16	23307
833.299	23292
833.437	23258
833.576	23337
833.714	23383
833.852	23474
833.991	23402
834.129	23554
834.267	23467
834.406	23311
834.544	23353
834.682	23436
834.821	23387
834.959	23471
835.097	23235
835.235	23368
835.373	23356
835.511	23322
835.65	23227
835.788	23235
835.926	23143
836.064	23098
836.202	23121
836.34	23166
836.478	23223
836.615	23159
836.753	23113
836.891	23269
837.029	23330
837.167	23136
837.305	23166
837.443	23102
837.58	23003
837.718	23140
837.856	23029
837.993	22915
838.131	23022
838.269	22782
838.406	22987
838.544	22850
838.681	22820
838.819	22877
838.956	22516
839.094	22523
839.231	22660
839.369	22641
839.506	22850
839.643	22809
839.781	22599
839.918	22550
840.055	22550
840.193	22481
840.33	22402
840.467	22611
840.604	22550
840.742	22828
840.879	22428
841.016	22451
841.153	22333
841.29	22557
841.427	22508
841.564	22527
841.701	22421
841.838	22466
841.975	22417
842.112	22287
842.249	22325
842.385	22375
842.522	22550
842.659	22497
842.796	22348
842.933	22181
843.069	22192
843.206	22166
843.343	22303
843.479	22242
843.616	22173
843.752	21975
843.889	22131
844.025	22093
844.162	21975
844.298	21991
844.435	22055
844.571	21911
844.708	22059
844.844	22177
844.98	22196
845.117	22055
845.253	21945
845.389	21911
845.525	21850
845.661	21827
845.798	21838
845.934	21755
846.07	21732
846.206	21766
846.342	21994
846.478	21739
846.614	21530
846.75	21515
846.886	21458
847.022	21485
847.158	21469
847.294	21408
847.429	21477
847.565	21397
847.701	21660
847.837	21363
847.972	21169
848.108	21207
848.244	21306
848.379	21176
848.515	21062
848.65	21001
848.786	21017
848.921	21119
849.057	21131
849.192	21055
849.328	21211
849.463	21157
849.598	21085
849.734	20849
849.869	20853
850.004	20849
850.14	20956
850.275	20933
850.41	20750
850.545	20819
850.68	20826
850.815	20887
850.95	20849
851.085	21173
851.22	20967
851.355	20864
851.49	20937
851.625	20902
851.76	20918
851.895	20826
852.03	20781
852.165	20967
852.299	20948
852.434	20921
852.569	20765
852.703	20826
852.838	20902
852.973	20963
853.107	20948
853.242	20746
853.376	20678
853.511	20655
853.645	20701
853.78	20777
853.914	20689
854.048	20583
854.183	20625
854.317	20693
854.451	20853
854.585	20724
854.72	20720
854.854	20754
854.988	20621
855.122	20697
855.256	20514
855.39	20670
855.524	20758
855.658	20686
855.792	20712
855.926	20689
856.06	20788
856.194	20701
856.327	20564
856.461	20549
856.595	20564
856.729	20541
856.862	20921
856.996	20762
857.13	20739
857.263	20853
857.397	20830
857.53	20587
857.664	20720
857.797	20800
857.931	20765
858.064	20693
858.197	20891
858.331	20594
858.464	20659
858.597	20617
858.731	20594
858.864	20648
858.997	20545
859.13	20750
859.263	20804
859.396	20807
859.529	20701
859.662	20492
859.795	20674
859.928	20758
860.061	20811
860.194	20845
860.327	20689
860.46	20640
860.592	20849
860.725	20792
860.858	20788
860.99	20625
861.123	20537
861.256	20587
861.388	20686
861.521	21310
861.653	20438
861.786	20381
861.918	20564
862.05	20655
862.183	20587
862.315	20655
862.447	20632
862.58	20571
862.712	20415
862.844	20377
862.976	20511
863.108	20438
863.24	20872
863.372	20408
863.504	20408
863.636	20393
863.768	20389
863.9	20396
864.032	20305
864.164	20275
864.296	20438
864.428	20564
864.559	20533
864.691	20438
864.823	20446
864.954	20328
865.086	20408
865.217	20309
865.349	20294
865.48	20355
865.612	20259
865.743	20328
865.875	20317
866.006	20237
866.137	20278
866.269	20301
866.4	20313
866.531	20187
866.662	20187
866.793	20126
866.924	20259
867.055	20248
867.186	20305
867.317	20210
867.448	20111
867.579	20282
867.71	20221
867.841	20214
867.972	20168
868.103	20176
868.233	20332
868.364	20259
868.495	20317
868.625	20423
868.756	20499
868.886	20339
869.017	20457
869.147	20549
869.278	20609
869.408	20476
869.539	20560
869.669	20625
869.799	20556
869.929	20564
870.06	20545
870.19	20891
870.32	20720
870.45	20796
870.58	20941
870.71	20925
870.84	20910
870.97	20769
871.1	20933
871.23	21020
871.36	21081
871.489	20872
871.619	21100
871.749	21070
871.879	21157
872.008	21218
872.138	21150
872.267	21108
872.397	20990
872.526	20883
872.656	20929
872.785	20937
872.915	21039
873.044	21047
873.173	21104
873.303	21161
873.432	21214
873.561	21211
873.69	21131
873.819	21036
873.948	21230
874.077	21131
874.206	21047
874.335	21024
874.464	21150
874.593	21279
874.722	21268
874.851	21393
874.979	21321
875.108	21340
875.237	21192
875.365	21195
875.494	21317
875.623	21466
875.751	21355
875.88	21332
876.008	21382
876.136	21534
876.265	21778
876.393	21804
876.521	21770
876.65	21888
876.778	21770
876.906	21724
877.034	21682
877.162	21743
877.29	21500
877.418	21701
877.546	21739
877.674	21652
877.802	21755
877.93	21656
878.058	21663
878.185	21644
878.313	21656
878.441	21675
878.568	21523
878.696	21599
878.824	21785
878.951	21709
879.079	21865
879.206	22006
879.333	21899
879.461	21739
879.588	21816
879.715	21823
879.842	21907
879.97	21728
880.097	21439
880.224	21507
880.351	21564
880.478	21576
880.605	21431
880.732	21485
880.859	21705
880.986	21496
881.112	21481
881.239	21401
881.366	21291
881.493	21131
881.619	21157
881.746	21135
881.872	21127
881.999	21100
882.125	21055
882.252	21085
882.378	21096
882.505	21252
882.631	20941
882.757	20800
882.883	20830
883.01	20819
883.136	20773
883.262	20617
883.388	20606
883.514	20693
883.64	20918
883.766	20777
883.892	20556
884.018	20560
884.143	20876
884.269	20792
884.395	20556
884.52	20412
884.646	20499
884.772	20328
884.897	20389
885.023	20313
885.148	20389
885.274	20708
885.399	20507
885.524	20442
885.65	20450
885.775	20488
885.9	20465
886.025	20461
886.15	20549
886.275	20355
886.4	20385
886.525	20438
886.65	20404
886.775	20404
886.9	20552
887.025	20632
887.149	20419
887.274	20355
887.399	20240
887.523	20301
887.648	20195
887.773	20119
887.897	20225
888.021	20248
888.146	20282
888.27	20214
888.395	20267
888.519	20294
888.643	20161
888.767	20290
888.891	20077
889.015	20031
889.139	20005
889.263	19906
889.387	20149
889.511	20237
889.635	20187
889.759	20081
889.883	19978
890.006	20073
890.13	20065
890.254	19940
890.377	19997
890.501	19750
890.624	19849
890.748	19731
890.871	19791
890.995	19712
891.118	19670
891.241	19655
891.364	19647
891.488	19765
891.611	19556
891.734	19700
891.857	19651
891.98	19643
892.103	19681
892.226	19655
892.349	19510
892.471	19400
892.594	19613
892.717	19449
892.839	19487
892.962	19510
893.085	19537
893.207	19502
893.33	19453
893.452	19335
893.575	19601
893.697	19487
893.819	19666
893.941	19704
894.064	19635
894.186	19597
894.308	19426
894.43	19518
894.552	19635
894.674	19575
894.796	19483
894.918	19620
895.04	19415
895.161	19651
895.283	19468
895.405	19369
895.526	19601
895.648	19544
895.769	19533
895.891	19616
896.012	19544
896.134	19540
896.255	19472
896.376	19502
896.498	19605
896.619	19537
896.74	19613
896.861	19647
896.982	19887
897.103	19932
897.224	19940
897.345	19753
897.466	19712
897.587	19772
897.708	19769
897.828	19795
897.949	19681
898.07	19609
898.19	19780
898.311	19898
898.431	19784
898.552	19780
898.672	19871
898.792	19784
898.913	19761
899.033	19575
899.153	19605
899.273	19434
899.393	19460
899.513	19658
899.633	19430
899.753	19521
899.873	19556
899.993	19533
900.113	19422
900.232	19529
900.352	19350
900.472	19324
900.591	19236
900.711	19381
900.83	19339
900.95	19430
901.069	19343
901.189	19107
901.308	19053
901.427	18924
901.546	18821
901.665	18890
901.784	18798
901.904	18688
902.023	18658
902.141	18346
902.26	18445
902.379	18479
902.498	18334
902.617	18403
902.735	18445
902.854	18422
902.973	18334
903.091	18049
903.21	18068
903.328	18133
903.446	17901
903.565	17969
903.683	17904
903.801	17821
903.919	17824
904.038	17767
904.156	17634
904.274	17710
904.392	17748
904.51	17680
904.627	17710
904.745	17630
904.863	17710
904.981	17452
905.098	17395
905.216	17341
905.334	17433
905.451	17296
905.569	17379
905.686	17334
905.803	17387
905.921	17128
906.038	17242
906.155	17250
906.272	17041
906.389	17018
906.506	16850
906.623	16892
906.74	16835
906.857	16771
906.974	16858
907.091	16858
907.208	17018
907.324	16786
907.441	16805
907.557	16611
907.674	16649
907.79	16592
907.907	16641
908.023	16634
908.139	16569
908.256	16535
908.372	16504
908.488	16519
908.604	16325
908.72	16303
908.836	16367
908.952	16375
909.068	16287
909.184	16459
909.3	16280
909.415	16390
909.531	16341
909.647	15991
909.762	16021
909.878	15949
909.993	16067
910.108	16071
910.224	15915
910.339	16029
910.454	15956
910.57	15892
910.685	15846
910.8	16078
910.915	15998
911.03	16044
911.145	15641
911.259	15614
911.374	15644
911.489	15663
911.604	15515
911.718	15378
911.833	15447
911.947	15351
912.062	15367
912.176	15469
912.291	15458
912.405	15557
912.519	15701
912.633	15633
912.748	15443
912.862	15370
912.976	15245
913.09	15154
913.204	15146
913.318	15287
913.431	15363
913.545	15332
913.659	15340
913.772	15154
913.886	15013
914	14948
914.113	15077
914.226	15214
914.34	15009
914.453	14929
914.566	15119
914.68	14918
914.793	14887
914.906	14773
915.019	14636
915.132	14720
915.245	14590
915.358	14678
915.47	14610
915.583	14750
915.696	14655
915.809	14697
915.921	14743
916.034	14545
916.146	14537
916.259	14469
916.371	14556
916.483	14583
916.595	14541
916.708	14564
916.82	14480
916.932	14442
917.044	14396
917.156	14317
917.268	14366
917.38	14355
917.491	14263
917.603	14332
917.715	14476
917.826	14374
917.938	14301
918.049	14202
918.161	14290
918.272	14404
918.384	14347
918.495	14305
918.606	14161
918.717	14065
918.828	14073
918.939	14142
919.05	14008
919.161	14005
919.272	13860
919.383	13879
919.494	14100
919.604	14256
919.715	14024
919.826	13944
919.936	13974
920.047	14172
920.157	14046
920.267	14237
920.378	14123
920.488	14020
920.598	14206
920.708	14305
920.818	14218
920.928	14035
921.038	14415
921.148	14301
921.258	14130
921.368	13974
921.477	13898
921.587	13803
921.697	13734
921.806	13757
921.916	13708
922.025	13491
922.134	13521
922.244	13415
922.353	13502
922.462	13384
922.571	13289
922.68	13122
922.789	13129
922.898	13168
923.007	12996
923.116	13171
923.224	13031
923.333	12989
923.442	12977
923.55	12970
923.659	12829
923.767	12996
923.876	12802
923.984	12989
924.092	12890
924.201	12814
924.309	12810
924.417	12859
924.525	12817
924.633	12779
924.741	13708
924.849	12555
924.956	12814
925.064	12464
925.172	12551
925.279	12589
925.387	12585
925.494	12513
925.602	12646
925.709	12570
925.816	12517
925.924	12525
926.031	12627
926.138	12506
926.245	12536
926.352	12270
926.459	12498
926.566	12612
926.673	12483
926.779	12292
926.886	12346
926.993	12213
927.099	12182
927.206	12121
927.312	12041
927.419	12083
927.525	12022
927.631	12114
927.737	12015
927.843	11977
927.95	11882
928.056	11999
928.162	11961
928.267	12038
928.373	12566
928.479	12076
928.585	11752
928.69	11999
928.796	11942
928.901	11832
929.007	11634
929.112	11821
929.218	11771
929.323	11703
929.428	11722
929.533	11866
929.638	11634
929.743	11573
929.848	11680
929.953	11573
930.058	11554
930.163	11372
930.267	11402
930.372	11490
930.477	11398
930.581	11482
930.685	11391
930.79	11235
930.894	11307
930.998	11250
931.103	11379
931.207	10984
931.311	10968
931.415	10786
931.519	10691
931.623	10653
