Data from test_V78500241_887.txt Node
Date: Fri Mar 25 15:16:02 CST 2022
User: usil
Spectrometer: V785-0024
Trigger mode: 0
Integration Time (sec): 4.000000E-1
Scans to average: 1
Nonlinearity correction enabled: false
Boxcar width: 0
Storing dark spectrum: false
XAxis mode: Wavelengths
Number of Pixels in Spectrum: 1024
>>>>>Begin Spectral Data<<<<<
801.071	28230
801.214	28188
801.356	27846
801.499	27808
801.641	27876
801.783	27759
801.926	27865
802.068	27656
802.211	27656
802.353	27686
802.496	27473
802.638	27393
802.78	27466
802.923	27447
803.065	27526
803.208	27275
803.35	27439
803.492	27458
803.635	27561
803.777	27656
803.919	27743
804.061	28010
804.204	27842
804.346	27526
804.488	27435
804.63	27557
804.773	27507
804.915	27641
805.057	27857
805.199	27530
805.341	27637
805.483	27835
805.626	27781
805.768	27675
805.91	27766
806.052	27724
806.194	27618
806.336	28013
806.478	27797
806.62	27903
806.762	27850
806.904	28063
807.046	28432
807.188	28059
807.33	28010
807.472	28299
807.614	28002
807.756	28253
807.898	27934
808.04	28010
808.182	27979
808.324	28006
808.465	27873
808.607	28219
808.749	28443
808.891	28436
809.033	28508
809.174	28497
809.316	28459
809.458	28538
809.6	28546
809.741	28561
809.883	28573
810.025	28691
810.166	28710
810.308	28698
810.45	28736
810.591	28717
810.733	28341
810.875	28394
811.016	28428
811.158	28413
811.299	28523
811.441	28546
811.582	28474
811.724	28535
811.865	28409
812.007	28459
812.148	28466
812.29	28466
812.431	28729
812.573	28824
812.714	28961
812.855	29006
812.997	29185
813.138	29212
813.279	29090
813.421	29048
813.562	28908
813.703	28752
813.845	28752
813.986	28363
814.127	28207
814.268	28139
814.41	28120
814.551	28219
814.692	28276
814.833	28086
814.974	28131
815.115	28219
815.256	27979
815.397	28067
815.539	28051
815.68	28021
815.821	27831
815.962	27953
816.103	27991
816.244	27819
816.385	27766
816.526	27660
816.666	27538
816.807	27561
816.948	27561
817.089	27553
817.23	27515
817.371	27473
817.512	27473
817.653	27511
817.793	27378
817.934	27507
818.075	27450
818.216	27542
818.356	27469
818.497	27310
818.638	27142
818.778	27112
818.919	27195
819.06	27313
819.2	27374
819.341	27450
819.481	27359
819.622	27580
819.762	27911
819.903	27713
820.043	27629
820.184	27591
820.324	27618
820.465	27610
820.605	27679
820.746	27583
820.886	27439
821.026	27580
821.167	27401
821.307	27606
821.447	27496
821.588	27355
821.728	27135
821.868	27146
822.008	26876
822.149	26906
822.289	26979
822.429	26708
822.569	26621
822.709	26712
822.849	26298
822.99	26332
823.13	26404
823.27	26282
823.41	26290
823.55	26153
823.69	26313
823.83	26294
823.97	26240
824.11	26168
824.25	26046
824.389	26164
824.529	26096
824.669	26126
824.809	26282
824.949	26122
825.089	26202
825.228	26119
825.368	25906
825.508	26100
825.648	26100
825.787	26126
825.927	25997
826.067	25921
826.206	25841
826.346	26111
826.485	26005
826.625	26046
826.765	26092
826.904	25970
827.044	25731
827.183	25772
827.323	25689
827.462	25818
827.601	25788
827.741	25757
827.88	25753
828.02	25510
828.159	25689
828.298	25742
828.437	25700
828.577	25674
828.716	25651
828.855	25647
828.994	25411
829.134	25407
829.273	25430
829.412	25445
829.551	25270
829.69	25407
829.829	25400
829.968	25483
830.107	25457
830.246	25438
830.385	25396
830.524	25343
830.663	25282
830.802	25072
830.941	24981
831.08	24897
831.219	25091
831.357	24966
831.496	25247
831.635	25046
831.774	24901
831.913	25019
832.051	24878
832.19	24722
832.329	24738
832.467	24696
832.606	24684
832.744	24654
832.883	24589
833.022	24627
833.16	24536
833.299	24616
833.437	24833
833.576	24947
833.714	24802
833.852	24772
833.991	24821
834.129	24707
834.267	24814
834.406	24684
834.544	24757
834.682	24700
834.821	24817
834.959	24939
835.097	24806
835.235	24787
835.373	24825
835.511	24684
835.65	24608
835.788	24665
835.926	24486
836.064	24384
836.202	24433
836.34	24544
836.478	24669
836.615	24483
836.753	24616
836.891	24623
837.029	24597
837.167	24532
837.305	24464
837.443	24467
837.58	24585
837.718	24540
837.856	24429
837.993	24220
838.131	24502
838.269	24311
838.406	24319
838.544	24281
838.681	23992
838.819	24167
838.956	23897
839.094	23916
839.231	23984
839.369	24068
839.506	24220
839.643	24216
839.781	23851
839.918	23923
840.055	23832
840.193	23805
840.33	23805
840.467	23794
840.604	23832
840.742	23904
840.879	23604
841.016	23619
841.153	23695
841.29	23851
841.427	23764
841.564	23691
841.701	23718
841.838	23661
841.975	23718
842.112	23619
842.249	23505
842.385	23535
842.522	23756
842.659	23585
842.796	23589
842.933	23528
843.069	23672
843.206	23512
843.343	23630
843.479	23448
843.616	23577
843.752	23372
843.889	23478
844.025	23478
844.162	23402
844.298	23360
844.435	23220
844.571	23360
844.708	23292
844.844	23497
844.98	23474
845.117	23509
845.253	23288
845.389	23280
845.525	23315
845.661	23254
845.798	23102
845.934	23079
846.07	23102
846.206	23071
846.342	23223
846.478	23041
846.614	22778
846.75	22782
846.886	22691
847.022	22885
847.158	22934
847.294	22809
847.429	22919
847.565	22854
847.701	23083
847.837	22546
847.972	22542
848.108	22561
848.244	22672
848.379	22344
848.515	22352
848.65	22413
848.786	22466
848.921	22424
849.057	22493
849.192	22432
849.328	22375
849.463	22474
849.598	22333
849.734	22246
849.869	22287
850.004	22036
850.14	22261
850.275	22112
850.41	22070
850.545	22055
850.68	22067
850.815	22192
850.95	22162
851.085	22344
851.22	22287
851.355	22234
851.49	22169
851.625	22196
851.76	22181
851.895	22150
852.03	22093
852.165	22166
852.299	22143
852.434	22246
852.569	22143
852.703	22150
852.838	22181
852.973	22287
853.107	22303
853.242	22090
853.376	21892
853.511	21835
853.645	21968
853.78	22207
853.914	22025
854.048	21983
854.183	22090
854.317	22055
854.451	22097
854.585	21930
854.72	22025
854.854	21922
854.988	21915
855.122	21968
855.256	21880
855.39	21895
855.524	22021
855.658	21888
855.792	21983
855.926	22021
856.06	22070
856.194	22059
856.327	21911
856.461	21903
856.595	21884
856.729	21987
856.862	22063
856.996	22070
857.13	22086
857.263	22139
857.397	22116
857.53	22109
857.664	22017
857.797	21930
857.931	22112
858.064	21922
858.197	22150
858.331	21994
858.464	21892
858.597	21899
858.731	21895
858.864	21808
858.997	22006
859.13	21960
859.263	21994
859.396	22074
859.529	21922
859.662	21941
859.795	21934
859.928	22120
860.061	22120
860.194	22185
860.327	21960
860.46	21941
860.592	22120
860.725	22200
860.858	22097
860.99	22109
861.123	21762
861.256	21869
861.388	22017
861.521	22752
861.653	21857
861.786	21682
861.918	21892
862.05	21835
862.183	21835
862.315	21903
862.447	22067
862.58	21937
862.712	21709
862.844	21671
862.976	21842
863.108	21701
863.24	22032
863.372	21572
863.504	21667
863.636	21675
863.768	21736
863.9	21701
864.032	21610
864.164	21682
864.296	21709
864.428	21747
864.559	21648
864.691	21724
864.823	21561
864.954	21625
865.086	21663
865.217	21641
865.349	21488
865.48	21492
865.612	21530
865.743	21709
865.875	21530
866.006	21587
866.137	21644
866.269	21595
866.4	21599
866.531	21526
866.662	21420
866.793	21496
866.924	21511
867.055	21519
867.186	21481
867.317	21523
867.448	21393
867.579	21622
867.71	21367
867.841	21519
867.972	21435
868.103	21405
868.233	21511
868.364	21492
868.495	21477
868.625	21641
868.756	21774
868.886	21663
869.017	21671
869.147	21838
869.278	21797
869.408	21648
869.539	21671
869.669	21835
869.799	21739
869.929	21907
870.06	21854
870.19	22040
870.32	21903
870.45	22063
870.58	22188
870.71	22253
870.84	22276
870.97	22135
871.1	22048
871.23	22177
871.36	22341
871.489	22173
871.619	22306
871.749	22356
871.879	22291
872.008	22337
872.138	22219
872.267	22386
872.397	22272
872.526	22158
872.656	22131
872.785	22116
872.915	22432
873.044	22459
873.173	22405
873.303	22329
873.432	22386
873.561	22424
873.69	22348
873.819	22249
873.948	22322
874.077	22382
874.206	22382
874.335	22295
874.464	22478
874.593	22622
874.722	22527
874.851	22626
874.979	22462
875.108	22516
875.237	22660
875.365	22493
875.494	22519
875.623	22565
875.751	22588
875.88	22462
876.008	22672
876.136	22694
876.265	22919
876.393	22938
876.521	22961
876.65	22953
876.778	23056
876.906	22900
877.034	22824
877.162	22919
877.29	22854
877.418	22972
877.546	22930
877.674	22831
877.802	22927
877.93	22812
878.058	22847
878.185	22793
878.313	22736
878.441	22915
878.568	22672
878.696	22736
878.824	22987
878.951	22961
879.079	23124
879.206	23193
879.333	23136
879.461	22809
879.588	22934
879.715	23086
879.842	23277
879.97	23029
880.097	22641
880.224	22672
880.351	22733
880.478	22729
880.605	22675
880.732	22698
880.859	22862
880.986	22702
881.112	22691
881.239	22577
881.366	22413
881.493	22356
881.619	22173
881.746	22299
881.872	22287
881.999	22215
882.125	22226
882.252	22363
882.378	22223
882.505	22325
882.631	22090
882.757	21979
882.883	22128
883.01	21968
883.136	21850
883.262	21739
883.388	21759
883.514	21899
883.64	21861
883.766	22010
883.892	21857
884.018	21720
884.143	21895
884.269	21998
884.395	21648
884.52	21530
884.646	21633
884.772	21614
884.897	21511
885.023	21523
885.148	21694
885.274	21694
885.399	21690
885.524	21462
885.65	21553
885.775	21614
885.9	21610
886.025	21682
886.15	21538
886.275	21637
886.4	21412
886.525	21473
886.65	21481
886.775	21576
886.9	21633
887.025	21808
887.149	21660
887.274	21439
887.399	21367
887.523	21420
887.648	21325
887.773	21237
887.897	21294
888.021	21367
888.146	21359
888.27	21492
888.395	21519
888.519	21492
888.643	21443
888.767	21378
888.891	21370
889.015	21017
889.139	21245
889.263	21184
889.387	21279
889.511	21420
889.635	21374
889.759	21081
889.883	21119
890.006	21112
890.13	21203
890.254	21039
890.377	21036
890.501	20994
890.624	20769
890.748	20963
890.871	20777
890.995	20720
891.118	20716
891.241	20815
891.364	20651
891.488	20758
891.611	20743
891.734	20651
891.857	20735
891.98	20762
892.103	20708
892.226	20621
892.349	20705
892.471	20499
892.594	20609
892.717	20625
892.839	20552
892.962	20655
893.085	20667
893.207	20556
893.33	20473
893.452	20454
893.575	20594
893.697	20575
893.819	20796
893.941	20800
894.064	20682
894.186	20606
894.308	20541
894.43	20693
894.552	20682
894.674	20663
894.796	20530
894.918	20518
895.04	20526
895.161	20678
895.283	20678
895.405	20606
895.526	20693
895.648	20640
895.769	20659
895.891	20682
896.012	20659
896.134	20640
896.255	20545
896.376	20465
896.498	20602
896.619	20594
896.74	20663
896.861	20621
896.982	20937
897.103	21017
897.224	20781
897.345	20807
897.466	20758
897.587	20743
897.708	20941
897.828	20849
897.949	20720
898.07	20613
898.19	20659
898.311	20899
898.431	20629
898.552	20823
898.672	20864
898.792	20811
898.913	20720
899.033	20682
899.153	20476
899.273	20488
899.393	20564
899.513	20564
899.633	20473
899.753	20511
899.873	20442
899.993	20579
900.113	20495
900.232	20522
900.352	20400
900.472	20317
900.591	20347
900.711	20465
900.83	20275
900.95	20503
901.069	20355
901.189	20180
901.308	19955
901.427	19947
901.546	20050
901.665	19879
901.784	19883
901.904	19753
902.023	19639
902.141	19434
902.26	19521
902.379	19506
902.498	19331
902.617	19403
902.735	19392
902.854	19384
902.973	19392
903.091	18989
903.21	18966
903.328	19072
903.446	18920
903.565	19042
903.683	18913
903.801	18700
903.919	18776
904.038	18844
904.156	18738
904.274	18715
904.392	18593
904.51	18616
904.627	18582
904.745	18608
904.863	18665
904.981	18486
905.098	18273
905.216	18365
905.334	18311
905.451	18338
905.569	18292
905.686	18243
905.803	18319
905.921	17961
906.038	18171
906.155	18098
906.272	17946
906.389	18022
906.506	17798
906.623	17832
906.74	17813
906.857	17710
906.974	17676
907.091	17847
907.208	17942
907.324	17870
907.441	17805
907.557	17623
907.674	17478
907.79	17463
907.907	17501
908.023	17551
908.139	17509
908.256	17520
908.372	17448
908.488	17433
908.604	17277
908.72	17239
908.836	17326
908.952	17143
909.068	17299
909.184	17448
909.3	17200
909.415	17258
909.531	17269
909.647	16999
909.762	16923
909.878	16938
909.993	16976
910.108	16892
910.224	16908
910.339	16938
910.454	16816
910.57	16763
910.685	16717
910.8	16999
910.915	17014
911.03	16774
911.145	16565
911.259	16546
911.374	16599
911.489	16459
911.604	16310
911.718	16246
911.833	16310
911.947	16188
912.062	16116
912.176	16204
912.291	16322
912.405	16230
912.519	16462
912.633	16417
912.748	16306
912.862	16196
912.976	16112
913.09	15941
913.204	16044
913.318	16021
913.431	16158
913.545	16223
913.659	16173
913.772	16021
913.886	15930
914	15884
914.113	15983
914.226	15979
914.34	16006
914.453	15774
914.566	15960
914.68	15770
914.793	15663
914.906	15515
915.019	15447
915.132	15408
915.245	15481
915.358	15553
915.47	15492
915.583	15485
915.696	15454
915.809	15587
915.921	15641
916.034	15431
916.146	15405
916.259	15294
916.371	15454
916.483	15416
916.595	15336
916.708	15306
916.82	15340
916.932	15336
917.044	15367
917.156	15252
917.268	15093
917.38	15169
917.491	15150
917.603	15184
917.715	15233
917.826	15142
917.938	15058
918.049	14921
918.161	15039
918.272	15116
918.384	15195
918.495	14986
918.606	14982
918.717	14842
918.828	14880
918.939	14921
919.05	14762
919.161	14811
919.272	14610
919.383	14804
919.494	14815
919.604	14986
919.715	14891
919.826	14727
919.936	14773
920.047	14925
920.157	14777
920.267	15043
920.378	14925
920.488	14746
920.598	15001
920.708	15017
920.818	14918
920.928	15036
921.038	15119
921.148	15043
921.258	14800
921.368	14682
921.477	14621
921.587	14454
921.697	14457
921.806	14590
921.916	14393
922.025	14138
922.134	14275
922.244	14176
922.353	14259
922.462	14054
922.571	14043
922.68	13814
922.789	13860
922.898	13860
923.007	13712
923.116	13822
923.224	13822
923.333	13822
923.442	13704
923.55	13674
923.659	13674
923.767	13643
923.876	13655
923.984	13636
924.092	13567
924.201	13518
924.309	13540
924.417	13529
924.525	13445
924.633	13499
924.741	14313
924.849	13232
924.956	13483
925.064	13259
925.172	13183
925.279	13149
925.387	13213
925.494	13232
925.602	13312
925.709	13194
925.816	13187
925.924	13194
926.031	13304
926.138	13164
926.245	13107
926.352	13080
926.459	13282
926.566	13274
926.673	13065
926.779	12966
926.886	13008
926.993	12817
927.099	12821
927.206	12730
927.312	12768
927.419	12764
927.525	12779
927.631	12814
927.737	12662
927.843	12601
927.95	12536
928.056	12604
928.162	12669
928.267	12696
928.373	13137
928.479	12635
928.585	12437
928.69	12597
928.796	12559
928.901	12498
929.007	12334
929.112	12391
929.218	12414
929.323	12273
929.428	12410
929.533	12395
929.638	12277
929.743	12289
929.848	12300
929.953	12304
930.058	12106
930.163	11969
930.267	11958
930.372	12201
930.477	12007
930.581	12235
930.685	12034
930.79	11885
930.894	11885
930.998	11767
931.103	11977
931.207	11699
931.311	11509
931.415	11429
931.519	11269
931.623	11261
