Data from test_V78500241_1736.txt Node
Date: Fri Mar 25 15:21:56 CST 2022
User: usil
Spectrometer: V785-0024
Trigger mode: 0
Integration Time (sec): 4.000000E-1
Scans to average: 1
Nonlinearity correction enabled: false
Boxcar width: 0
Storing dark spectrum: false
XAxis mode: Wavelengths
Number of Pixels in Spectrum: 1024
>>>>>Begin Spectral Data<<<<<
801.071	27907
801.214	27918
801.356	27447
801.499	27519
801.641	27450
801.783	27401
801.926	27469
802.068	27439
802.211	27397
802.353	27310
802.496	27165
802.638	27100
802.78	27039
802.923	27165
803.065	26979
803.208	27192
803.35	27161
803.492	27066
803.635	27268
803.777	27230
803.919	27256
804.061	27572
804.204	27389
804.346	27176
804.488	27184
804.63	27188
804.773	27256
804.915	27329
805.057	27378
805.199	27291
805.341	27348
805.483	27454
805.626	27386
805.768	27195
805.91	27401
806.052	27420
806.194	27405
806.336	27496
806.478	27336
806.62	27420
806.762	27504
806.904	27743
807.046	27937
807.188	27880
807.33	27739
807.472	27941
807.614	27774
807.756	27755
807.898	27663
808.04	27679
808.182	27504
808.324	27682
808.465	27812
808.607	27869
808.749	28078
808.891	28105
809.033	28234
809.174	27991
809.316	27987
809.458	27968
809.6	28109
809.741	28177
809.883	28173
810.025	28192
810.166	28295
810.308	28158
810.45	28390
810.591	28246
810.733	28021
810.875	28036
811.016	28013
811.158	27888
811.299	28036
811.441	28074
811.582	28215
811.724	27991
811.865	28013
812.007	28082
812.148	27979
812.29	28101
812.431	28352
812.573	28436
812.714	28523
812.855	28523
812.997	28630
813.138	28828
813.279	28733
813.421	28538
813.562	28386
813.703	28398
813.845	28363
813.986	28105
814.127	27876
814.268	27759
814.41	27720
814.551	27675
814.692	27644
814.833	27888
814.974	27842
815.115	27766
815.256	27595
815.397	27637
815.539	27568
815.68	27469
815.821	27408
815.962	27492
816.103	27561
816.244	27241
816.385	27275
816.526	27230
816.666	27199
816.807	26918
816.948	27047
817.089	27192
817.23	27039
817.371	26979
817.512	26979
817.653	27036
817.793	27043
817.934	26944
818.075	27131
818.216	26979
818.356	26720
818.497	26967
818.638	26838
818.778	26861
818.919	26750
819.06	26838
819.2	26918
819.341	27077
819.481	27070
819.622	27241
819.762	27374
819.903	27260
820.043	27222
820.184	26967
820.324	27146
820.465	27146
820.605	27264
820.746	27142
820.886	27009
821.026	27093
821.167	27096
821.307	27070
821.447	27013
821.588	26982
821.728	26925
821.868	26686
822.008	26514
822.149	26533
822.289	26317
822.429	26218
822.569	26081
822.709	26225
822.849	25955
822.99	26081
823.13	26062
823.27	25982
823.41	25788
823.55	25784
823.69	25750
823.83	25963
823.97	25822
824.11	25734
824.25	25655
824.389	25662
824.529	25765
824.669	25624
824.809	25803
824.949	25727
825.089	25769
825.228	25674
825.368	25476
825.508	25438
825.648	25499
825.787	25567
825.927	25601
826.067	25514
826.206	25392
826.346	25537
826.485	25571
826.625	25415
826.765	25609
826.904	25590
827.044	25335
827.183	25278
827.323	25156
827.462	25316
827.601	25320
827.741	25278
827.88	25304
828.02	25255
828.159	25240
828.298	25175
828.437	25225
828.577	25129
828.716	25251
828.855	25198
828.994	25027
829.134	25012
829.273	24928
829.412	24935
829.551	24749
829.69	24825
829.829	24909
829.968	25118
830.107	25031
830.246	25015
830.385	24859
830.524	24882
830.663	24700
830.802	24540
830.941	24623
831.08	24525
831.219	24639
831.357	24776
831.496	24741
831.635	24582
831.774	24540
831.913	24479
832.051	24414
832.19	24319
832.329	24334
832.467	24281
832.606	24182
832.744	24209
832.883	24228
833.022	24144
833.16	24209
833.299	24247
833.437	24323
833.576	24399
833.714	24361
833.852	24391
833.991	24437
834.129	24426
834.267	24376
834.406	24365
834.544	24369
834.682	24239
834.821	24254
834.959	24429
835.097	24239
835.235	24403
835.373	24205
835.511	24319
835.65	24159
835.788	24136
835.926	24064
836.064	23984
836.202	24038
836.34	24129
836.478	24110
836.615	24201
836.753	24125
836.891	23992
837.029	24209
837.167	24125
837.305	24083
837.443	24060
837.58	24003
837.718	24171
837.856	24114
837.993	24076
838.131	23916
838.269	23916
838.406	23901
838.544	23824
838.681	23691
838.819	23471
838.956	23452
839.094	23611
839.231	23429
839.369	23691
839.506	23832
839.643	23752
839.781	23539
839.918	23421
840.055	23433
840.193	23395
840.33	23433
840.467	23387
840.604	23372
840.742	23707
840.879	23242
841.016	23353
841.153	23242
841.29	23421
841.427	23311
841.564	23299
841.701	23429
841.838	23299
841.975	23200
842.112	23288
842.249	23197
842.385	23044
842.522	23368
842.659	23124
842.796	23090
842.933	23216
843.069	23124
843.206	23181
843.343	23280
843.479	23223
843.616	23102
843.752	22915
843.889	22885
844.025	22984
844.162	22987
844.298	22972
844.435	22885
844.571	22938
844.708	22873
844.844	23121
844.98	23060
845.117	22965
845.253	22866
845.389	22710
845.525	22740
845.661	22790
845.798	22596
845.934	22725
846.07	22668
846.206	22645
846.342	22771
846.478	22630
846.614	22428
846.75	22405
846.886	22394
847.022	22443
847.158	22451
847.294	22238
847.429	22352
847.565	22303
847.701	22580
847.837	22207
847.972	22059
848.108	22143
848.244	22226
848.379	22051
848.515	21956
848.65	21922
848.786	21968
848.921	21987
849.057	22147
849.192	22017
849.328	21968
849.463	22002
849.598	21895
849.734	21797
849.869	21766
850.004	21701
850.14	21774
850.275	21663
850.41	21690
850.545	21648
850.68	21728
850.815	21717
850.95	21800
851.085	21846
851.22	21686
851.355	21789
851.49	21694
851.625	21736
851.76	21724
851.895	21713
852.03	21614
852.165	21724
852.299	21831
852.434	21808
852.569	21793
852.703	21675
852.838	21812
852.973	21865
853.107	21816
853.242	21606
853.376	21587
853.511	21329
853.645	21393
853.78	21568
853.914	21728
854.048	21504
854.183	21572
854.317	21663
854.451	21660
854.585	21644
854.72	21507
854.854	21648
854.988	21370
855.122	21496
855.256	21526
855.39	21454
855.524	21557
855.658	21485
855.792	21576
855.926	21576
856.06	21671
856.194	21648
856.327	21519
856.461	21572
856.595	21378
856.729	21553
856.862	21595
856.996	21507
857.13	21610
857.263	21762
857.397	21534
857.53	21454
857.664	21606
857.797	21618
857.931	21785
858.064	21488
858.197	21633
858.331	21545
858.464	21553
858.597	21450
858.731	21500
858.864	21542
858.997	21469
859.13	21587
859.263	21507
859.396	21637
859.529	21469
859.662	21469
859.795	21454
859.928	21538
860.061	21625
860.194	21656
860.327	21671
860.46	21534
860.592	21694
860.725	21599
860.858	21576
860.99	21641
861.123	21363
861.256	21454
861.388	21629
861.521	22287
861.653	21367
861.786	21435
861.918	21359
862.05	21420
862.183	21431
862.315	21519
862.447	21557
862.58	21568
862.712	21321
862.844	21119
862.976	21401
863.108	21291
863.24	21553
863.372	21222
863.504	21340
863.636	21165
863.768	21245
863.9	21260
864.032	21256
864.164	21176
864.296	21245
864.428	21310
864.559	21389
864.691	21405
864.823	21283
864.954	21355
865.086	21218
865.217	21150
865.349	21032
865.48	21161
865.612	21199
865.743	21241
865.875	21093
866.006	21093
866.137	21184
866.269	21180
866.4	21135
866.531	21085
866.662	21032
866.793	20963
866.924	21169
867.055	21047
867.186	21036
867.317	21100
867.448	21108
867.579	21074
867.71	20864
867.841	21036
867.972	21085
868.103	21108
868.233	21047
868.364	21070
868.495	21131
868.625	21332
868.756	21473
868.886	21264
869.017	21245
869.147	21374
869.278	21488
869.408	21477
869.539	21447
869.669	21393
869.799	21439
869.929	21428
870.06	21416
870.19	21663
870.32	21656
870.45	21553
870.58	21641
870.71	21793
870.84	21781
870.97	21648
871.1	21766
871.23	21876
871.36	21930
871.489	21720
871.619	21835
871.749	21983
871.879	21903
872.008	22032
872.138	21899
872.267	21892
872.397	21709
872.526	21698
872.656	21785
872.785	21778
872.915	21816
873.044	21899
873.173	21850
873.303	21991
873.432	22006
873.561	22063
873.69	21964
873.819	21937
873.948	21918
874.077	21968
874.206	21880
874.335	21789
874.464	21994
874.593	22207
874.722	22010
874.851	22196
874.979	22101
875.108	22188
875.237	22120
875.365	21956
875.494	22128
875.623	22196
875.751	22128
875.88	22143
876.008	22287
876.136	22382
876.265	22596
876.393	22786
876.521	22653
876.65	22557
876.778	22508
876.906	22424
877.034	22485
877.162	22459
877.29	22466
877.418	22386
877.546	22436
877.674	22573
877.802	22451
877.93	22478
878.058	22485
878.185	22360
878.313	22519
878.441	22584
878.568	22280
878.696	22344
878.824	22485
878.951	22607
879.079	22664
879.206	22828
879.333	22611
879.461	22504
879.588	22561
879.715	22691
879.842	22656
879.97	22630
880.097	22291
880.224	22379
880.351	22310
880.478	22348
880.605	22299
880.732	22360
880.859	22478
880.986	22219
881.112	22348
881.239	22162
881.366	22093
881.493	21934
881.619	21934
881.746	21922
881.872	21953
881.999	21838
882.125	21785
882.252	21865
882.378	21888
882.505	21994
882.631	21698
882.757	21610
882.883	21747
883.01	21759
883.136	21637
883.262	21534
883.388	21466
883.514	21618
883.64	21663
883.766	21500
883.892	21302
884.018	21272
884.143	21386
884.269	21462
884.395	21325
884.52	21222
884.646	21302
884.772	21199
884.897	20975
885.023	21230
885.148	21310
885.274	21370
885.399	21264
885.524	21119
885.65	21184
885.775	21169
885.9	21146
886.025	21359
886.15	21389
886.275	21241
886.4	21142
886.525	21237
886.65	21230
886.775	21104
886.9	21374
887.025	21443
887.149	21123
887.274	21062
887.399	21020
887.523	20948
887.648	21024
887.773	20967
887.897	20982
888.021	21184
888.146	20963
888.27	20979
888.395	21157
888.519	20986
888.643	21043
888.767	21020
888.891	20872
889.015	20819
889.139	20895
889.263	20842
889.387	20933
889.511	20941
889.635	20830
889.759	20754
889.883	20762
890.006	20842
890.13	20891
890.254	20724
890.377	20701
890.501	20484
890.624	20488
890.748	20598
890.871	20427
890.995	20339
891.118	20256
891.241	20309
891.364	20343
891.488	20404
891.611	20294
891.734	20351
891.857	20427
891.98	20358
892.103	20495
892.226	20263
892.349	20259
892.471	20225
892.594	20206
892.717	20301
892.839	20191
892.962	20313
893.085	20301
893.207	20298
893.33	20107
893.452	20153
893.575	20347
893.697	20275
893.819	20427
893.941	20419
894.064	20473
894.186	20271
894.308	20237
894.43	20343
894.552	20389
894.674	20358
894.796	20180
894.918	20290
895.04	20290
895.161	20313
895.283	20256
895.405	20191
895.526	20134
895.648	20145
895.769	20240
895.891	20286
896.012	20362
896.134	20225
896.255	20259
896.376	20202
896.498	20271
896.619	20278
896.74	20263
896.861	20187
896.982	20609
897.103	20705
897.224	20560
897.345	20454
897.466	20385
897.587	20454
897.708	20488
897.828	20423
897.949	20469
898.07	20210
898.19	20431
898.311	20556
898.431	20393
898.552	20454
898.672	20476
898.792	20511
898.913	20434
899.033	20320
899.153	20290
899.273	20176
899.393	20214
899.513	20244
899.633	20180
899.753	20263
899.873	20115
899.993	20107
900.113	20081
900.232	20199
900.352	20138
900.472	20008
900.591	19887
900.711	19982
900.83	19993
900.95	20168
901.069	20107
901.189	19879
901.308	19784
901.427	19556
901.546	19693
901.665	19487
901.784	19575
901.904	19521
902.023	19381
902.141	19175
902.26	19069
902.379	19190
902.498	19091
902.617	18935
902.735	19099
902.854	19061
902.973	19000
903.091	18764
903.21	18764
903.328	18616
903.446	18547
903.565	18616
903.683	18566
903.801	18388
903.919	18540
904.038	18433
904.156	18311
904.274	18414
904.392	18308
904.51	18384
904.627	18311
904.745	18357
904.863	18403
904.981	18117
905.098	17912
905.216	18022
905.334	18030
905.451	17996
905.569	18038
905.686	18095
905.803	17912
905.921	17737
906.038	17904
906.155	17885
906.272	17726
906.389	17790
906.506	17600
906.623	17452
906.74	17558
906.857	17436
906.974	17345
907.091	17539
907.208	17592
907.324	17440
907.441	17448
907.557	17387
907.674	17261
907.79	17162
907.907	17223
908.023	17261
908.139	17220
908.256	17117
908.372	17060
908.488	17140
908.604	17056
908.72	16968
908.836	17003
908.952	16911
909.068	16965
909.184	16927
909.3	16930
909.415	17010
909.531	17010
909.647	16679
909.762	16683
909.878	16691
909.993	16702
910.108	16618
910.224	16523
910.339	16687
910.454	16531
910.57	16428
910.685	16459
910.8	16599
910.915	16626
911.03	16493
911.145	16333
911.259	16291
911.374	16196
911.489	16093
911.604	16109
911.718	16013
911.833	16090
911.947	15842
912.062	15732
912.176	15983
912.291	16006
912.405	15915
912.519	16128
912.633	16238
912.748	16078
912.862	15937
912.976	15857
913.09	15743
913.204	15785
913.318	15934
913.431	15857
913.545	15937
913.659	15949
913.772	15720
913.886	15542
914	15606
914.113	15709
914.226	15766
914.34	15641
914.453	15435
914.566	15637
914.68	15542
914.793	15481
914.906	15268
915.019	15264
915.132	15157
915.245	15169
915.358	15256
915.47	15237
915.583	15214
915.696	15233
915.809	15397
915.921	15370
916.034	15161
916.146	15112
916.259	15180
916.371	15150
916.483	15070
916.595	15112
916.708	15024
916.82	15104
916.932	15074
917.044	14971
917.156	14914
917.268	14800
917.38	15005
917.491	14887
917.603	14899
917.715	15009
917.826	15062
917.938	14735
918.049	14762
918.161	14861
918.272	14948
918.384	14937
918.495	14735
918.606	14739
918.717	14564
918.828	14765
918.939	14701
919.05	14579
919.161	14583
919.272	14347
919.383	14446
919.494	14571
919.604	14804
919.715	14648
919.826	14389
919.936	14590
920.047	14670
920.157	14617
920.267	14708
920.378	14617
920.488	14480
920.598	14731
920.708	14887
920.818	14705
920.928	14659
921.038	14807
921.148	14727
921.258	14488
921.368	14454
921.477	14339
921.587	14332
921.697	14252
921.806	14282
921.916	14054
922.025	14035
922.134	13921
922.244	13913
922.353	14081
922.462	13879
922.571	13811
922.68	13624
922.789	13586
922.898	13655
923.007	13540
923.116	13605
923.224	13586
923.333	13559
923.442	13438
923.55	13369
923.659	13468
923.767	13521
923.876	13468
923.984	13346
924.092	13221
924.201	13304
924.309	13339
924.417	13285
924.525	13255
924.633	13194
924.741	13989
924.849	13057
924.956	13225
925.064	13149
925.172	13015
925.279	13008
925.387	13080
925.494	13053
925.602	13053
925.709	13072
925.816	12863
925.924	12916
926.031	13103
926.138	12943
926.245	13012
926.352	12821
926.459	12943
926.566	13004
926.673	12916
926.779	12700
926.886	12673
926.993	12639
927.099	12612
927.206	12517
927.312	12506
927.419	12707
927.525	12559
927.631	12513
927.737	12403
927.843	12380
927.95	12266
928.056	12395
928.162	12369
928.267	12384
928.373	13050
928.479	12456
928.585	12197
928.69	12277
928.796	12376
928.901	12277
929.007	12102
929.112	12235
929.218	12247
929.323	12140
929.428	12076
929.533	12175
929.638	12007
929.743	12049
929.848	12034
929.953	12007
930.058	11901
930.163	11783
930.267	11775
930.372	11969
930.477	11726
930.581	11946
930.685	11874
930.79	11821
930.894	11691
930.998	11707
931.103	11817
931.207	11444
931.311	11398
931.415	11235
931.519	11117
931.623	11117
