Data from test_V78500241_900.txt Node
Date: Fri Mar 25 15:16:07 CST 2022
User: usil
Spectrometer: V785-0024
Trigger mode: 0
Integration Time (sec): 4.000000E-1
Scans to average: 1
Nonlinearity correction enabled: false
Boxcar width: 0
Storing dark spectrum: false
XAxis mode: Wavelengths
Number of Pixels in Spectrum: 1024
>>>>>Begin Spectral Data<<<<<
801.071	28257
801.214	28150
801.356	27994
801.499	27945
801.641	27759
801.783	27751
801.926	27690
802.068	27720
802.211	27641
802.353	27614
802.496	27393
802.638	27462
802.78	27439
802.923	27420
803.065	27416
803.208	27496
803.35	27416
803.492	27492
803.635	27523
803.777	27370
803.919	27656
804.061	27865
804.204	27785
804.346	27420
804.488	27610
804.63	27526
804.773	27538
804.915	27793
805.057	27743
805.199	27743
805.341	27747
805.483	27751
805.626	27778
805.768	27671
805.91	27709
806.052	27717
806.194	27747
806.336	27987
806.478	27800
806.62	27899
806.762	27918
806.904	28021
807.046	28276
807.188	28166
807.33	28105
807.472	28192
807.614	28067
807.756	28124
807.898	28090
808.04	28112
808.182	28128
808.324	28036
808.465	28120
808.607	28303
808.749	28443
808.891	28474
809.033	28523
809.174	28470
809.316	28466
809.458	28478
809.6	28542
809.741	28554
809.883	28535
810.025	28733
810.166	28824
810.308	28710
810.45	28759
810.591	28702
810.733	28588
810.875	28508
811.016	28386
811.158	28329
811.299	28531
811.441	28535
811.582	28546
811.724	28481
811.865	28447
812.007	28432
812.148	28421
812.29	28641
812.431	28580
812.573	28656
812.714	28896
812.855	28995
812.997	29094
813.138	29254
813.279	29185
813.421	29174
813.562	29018
813.703	28809
813.845	28672
813.986	28322
814.127	28284
814.268	28162
814.41	28188
814.551	28143
814.692	28124
814.833	28147
814.974	28029
815.115	28162
815.256	28101
815.397	27994
815.539	28051
815.68	27918
815.821	27850
815.962	27979
816.103	27956
816.244	27945
816.385	27774
816.526	27717
816.666	27564
816.807	27542
816.948	27382
817.089	27644
817.23	27492
817.371	27416
817.512	27473
817.653	27485
817.793	27408
817.934	27386
818.075	27507
818.216	27500
818.356	27450
818.497	27268
818.638	27230
818.778	27241
818.919	27214
819.06	27355
819.2	27351
819.341	27488
819.481	27370
819.622	27591
819.762	27804
819.903	27663
820.043	27766
820.184	27591
820.324	27564
820.465	27739
820.605	27568
820.746	27587
820.886	27545
821.026	27637
821.167	27530
821.307	27698
821.447	27496
821.588	27332
821.728	27348
821.868	27222
822.008	27070
822.149	26960
822.289	26998
822.429	26651
822.569	26758
822.709	26564
822.849	26533
822.99	26473
823.13	26476
823.27	26415
823.41	26377
823.55	26164
823.69	26415
823.83	26275
823.97	26278
824.11	26126
824.25	26122
824.389	26172
824.529	26377
824.669	26153
824.809	26294
824.949	26286
825.089	26187
825.228	26103
825.368	25970
825.508	26012
825.648	25997
825.787	26103
825.927	26031
826.067	25978
826.206	25974
826.346	26035
826.485	26005
826.625	25951
826.765	26153
826.904	25932
827.044	25753
827.183	25750
827.323	25731
827.462	25788
827.601	25803
827.741	25632
827.88	25731
828.02	25495
828.159	25670
828.298	25788
828.437	25700
828.577	25708
828.716	25822
828.855	25620
828.994	25358
829.134	25449
829.273	25411
829.412	25381
829.551	25388
829.69	25460
829.829	25365
829.968	25415
830.107	25415
830.246	25400
830.385	25377
830.524	25251
830.663	25266
830.802	25190
830.941	25080
831.08	24989
831.219	25088
831.357	25099
831.496	25331
831.635	25008
831.774	25012
831.913	24951
832.051	24905
832.19	24814
832.329	24856
832.467	24726
832.606	24825
832.744	24555
832.883	24711
833.022	24608
833.16	24681
833.299	24783
833.437	24688
833.576	24779
833.714	24779
833.852	24753
833.991	24821
834.129	24821
834.267	24859
834.406	24875
834.544	24783
834.682	24798
834.821	24669
834.959	24973
835.097	24722
835.235	24776
835.373	24726
835.511	24642
835.65	24639
835.788	24738
835.926	24384
836.064	24304
836.202	24479
836.34	24673
836.478	24635
836.615	24608
836.753	24566
836.891	24661
837.029	24528
837.167	24452
837.305	24456
837.443	24544
837.58	24452
837.718	24578
837.856	24441
837.993	24410
838.131	24479
838.269	24266
838.406	24376
838.544	24251
838.681	24190
838.819	24049
838.956	23824
839.094	23961
839.231	23866
839.369	24098
839.506	24357
839.643	24083
839.781	23958
839.918	23809
840.055	23965
840.193	23882
840.33	23805
840.467	23851
840.604	23775
840.742	24026
840.879	23573
841.016	23756
841.153	23687
841.29	23809
841.427	23863
841.564	23821
841.701	23764
841.838	23726
841.975	23703
842.112	23722
842.249	23634
842.385	23524
842.522	23672
842.659	23577
842.796	23474
842.933	23570
843.069	23566
843.206	23482
843.343	23570
843.479	23661
843.616	23539
843.752	23288
843.889	23311
844.025	23387
844.162	23311
844.298	23353
844.435	23455
844.571	23311
844.708	23474
844.844	23604
844.98	23600
845.117	23398
845.253	23391
845.389	23189
845.525	23284
845.661	23246
845.798	22980
845.934	23166
846.07	22976
846.206	23064
846.342	23242
846.478	23025
846.614	22858
846.75	22744
846.886	22713
847.022	22854
847.158	22771
847.294	22892
847.429	22976
847.565	22771
847.701	23003
847.837	22599
847.972	22485
848.108	22527
848.244	22641
848.379	22485
848.515	22531
848.65	22314
848.786	22489
848.921	22481
849.057	22375
849.192	22424
849.328	22371
849.463	22322
849.598	22344
849.734	22428
849.869	22200
850.004	22207
850.14	22166
850.275	22090
850.41	22185
850.545	22040
850.68	22181
850.815	22169
850.95	22219
851.085	22428
851.22	22344
851.355	22253
851.49	22143
851.625	22131
851.76	22070
851.895	22029
852.03	22044
852.165	22150
852.299	22284
852.434	22169
852.569	22253
852.703	22299
852.838	22253
852.973	22131
853.107	22181
853.242	21968
853.376	21956
853.511	21846
853.645	22048
853.78	22086
853.914	22059
854.048	22021
854.183	21998
854.317	22036
854.451	22257
854.585	22078
854.72	21979
854.854	22173
854.988	21987
855.122	21922
855.256	21892
855.39	22002
855.524	22051
855.658	21960
855.792	22078
855.926	21926
856.06	21972
856.194	22093
856.327	21953
856.461	21846
856.595	22021
856.729	21975
856.862	22090
856.996	21953
857.13	21991
857.263	22067
857.397	22090
857.53	21968
857.664	21926
857.797	22067
857.931	22055
858.064	21991
858.197	22090
858.331	21895
858.464	21842
858.597	21892
858.731	22059
858.864	22063
858.997	21960
859.13	21884
859.263	21865
859.396	22013
859.529	22006
859.662	21956
859.795	21892
859.928	22021
860.061	22192
860.194	22086
860.327	22051
860.46	22017
860.592	22139
860.725	22093
860.858	22139
860.99	21975
861.123	21888
861.256	21956
861.388	22025
861.521	22774
861.653	21907
861.786	21816
861.918	21766
862.05	21778
862.183	21831
862.315	21895
862.447	21994
862.58	21975
862.712	21747
862.844	21599
862.976	21873
863.108	21660
863.24	22002
863.372	21652
863.504	21614
863.636	21713
863.768	21660
863.9	21739
864.032	21599
864.164	21682
864.296	21728
864.428	21774
864.559	21675
864.691	21797
864.823	21698
864.954	21652
865.086	21633
865.217	21751
865.349	21568
865.48	21572
865.612	21500
865.743	21694
865.875	21622
866.006	21545
866.137	21599
866.269	21576
866.4	21557
866.531	21473
866.662	21439
866.793	21458
866.924	21488
867.055	21603
867.186	21637
867.317	21504
867.448	21291
867.579	21561
867.71	21416
867.841	21454
867.972	21534
868.103	21382
868.233	21507
868.364	21443
868.495	21481
868.625	21648
868.756	21800
868.886	21656
869.017	21732
869.147	21888
869.278	21751
869.408	21831
869.539	21622
869.669	21774
869.799	21797
869.929	21797
870.06	21846
870.19	22059
870.32	21968
870.45	22067
870.58	22139
870.71	22230
870.84	22352
870.97	22078
871.1	22109
871.23	22276
871.36	22318
871.489	22188
871.619	22360
871.749	22417
871.879	22363
872.008	22428
872.138	22394
872.267	22360
872.397	22226
872.526	22036
872.656	22200
872.785	22124
872.915	22451
873.044	22466
873.173	22314
873.303	22382
873.432	22417
873.561	22557
873.69	22295
873.819	22367
873.948	22493
874.077	22402
874.206	22493
874.335	22253
874.464	22554
874.593	22611
874.722	22512
874.851	22634
874.979	22565
875.108	22645
875.237	22447
875.365	22341
875.494	22535
875.623	22698
875.751	22538
875.88	22561
876.008	22626
876.136	22786
876.265	22919
876.393	23033
876.521	22957
876.65	22915
876.778	22915
876.906	22858
877.034	22949
877.162	22854
877.29	22911
877.418	22934
877.546	22881
877.674	22824
877.802	22911
877.93	22911
878.058	22896
878.185	22755
878.313	22873
878.441	22957
878.568	22710
878.696	22892
878.824	22839
878.951	22942
879.079	23037
879.206	23132
879.333	22938
879.461	22896
879.588	22911
879.715	23041
879.842	23117
879.97	22987
880.097	22736
880.224	22641
880.351	22778
880.478	22672
880.605	22683
880.732	22706
880.859	22987
880.986	22565
881.112	22774
881.239	22516
881.366	22523
881.493	22405
881.619	22211
881.746	22196
881.872	22379
881.999	22204
882.125	22116
882.252	22200
882.378	22192
882.505	22440
882.631	22036
882.757	22029
882.883	22002
883.01	22025
883.136	21903
883.262	21800
883.388	21789
883.514	21937
883.64	21991
883.766	21915
883.892	21720
884.018	21717
884.143	21953
884.269	21922
884.395	21629
884.52	21481
884.646	21663
884.772	21599
884.897	21568
885.023	21572
885.148	21675
885.274	21739
885.399	21663
885.524	21603
885.65	21629
885.775	21549
885.9	21523
886.025	21709
886.15	21679
886.275	21549
886.4	21393
886.525	21523
886.65	21420
886.775	21519
886.9	21732
887.025	21907
887.149	21625
887.274	21340
887.399	21370
887.523	21370
887.648	21317
887.773	21351
887.897	21496
888.021	21443
888.146	21351
888.27	21530
888.395	21488
888.519	21332
888.643	21420
888.767	21485
888.891	21325
889.015	21214
889.139	21260
889.263	21233
889.387	21230
889.511	21439
889.635	21329
889.759	21154
889.883	21173
890.006	21131
890.13	21294
890.254	21093
890.377	21020
890.501	20921
890.624	20845
890.748	21047
890.871	20769
890.995	20823
891.118	20621
891.241	20746
891.364	20743
891.488	20727
891.611	20682
891.734	20769
891.857	20830
891.98	20724
892.103	20849
892.226	20735
892.349	20731
892.471	20568
892.594	20670
892.717	20629
892.839	20659
892.962	20621
893.085	20697
893.207	20598
893.33	20465
893.452	20560
893.575	20670
893.697	20575
893.819	20788
893.941	20746
894.064	20849
894.186	20457
894.308	20514
894.43	20819
894.552	20849
894.674	20587
894.796	20396
894.918	20644
895.04	20522
895.161	20670
895.283	20636
895.405	20488
895.526	20674
895.648	20655
895.769	20583
895.891	20594
896.012	20689
896.134	20724
896.255	20655
896.376	20476
896.498	20560
896.619	20594
896.74	20545
896.861	20678
896.982	20891
897.103	21043
897.224	20720
897.345	20788
897.466	20708
897.587	20705
897.708	20929
897.828	20895
897.949	20731
898.07	20575
898.19	20716
898.311	20842
898.431	20785
898.552	20777
898.672	20716
898.792	20868
898.913	20880
899.033	20678
899.153	20708
899.273	20594
899.393	20537
899.513	20754
899.633	20579
899.753	20560
899.873	20560
899.993	20492
900.113	20480
900.232	20629
900.352	20492
900.472	20362
900.591	20244
900.711	20396
900.83	20199
900.95	20442
901.069	20339
901.189	20229
901.308	19902
901.427	19982
901.546	19928
901.665	19921
901.784	19879
901.904	19677
902.023	19616
902.141	19407
902.26	19460
902.379	19540
902.498	19350
902.617	19426
902.735	19388
902.854	19373
902.973	19354
903.091	19107
903.21	19084
903.328	19152
903.446	18985
903.565	18913
903.683	18894
903.801	18760
903.919	18837
904.038	18867
904.156	18745
904.274	18700
904.392	18631
904.51	18582
904.627	18631
904.745	18719
904.863	18681
904.981	18475
905.098	18327
905.216	18228
905.334	18399
905.451	18292
905.569	18273
905.686	18426
905.803	18334
905.921	18155
906.038	18258
906.155	18163
906.272	18003
906.389	18060
906.506	17973
906.623	17958
906.74	17878
906.857	17733
906.974	17836
907.091	17935
907.208	18095
907.324	17832
907.441	17840
907.557	17623
907.674	17623
907.79	17627
907.907	17425
908.023	17547
908.139	17585
908.256	17539
908.372	17486
908.488	17463
908.604	17368
908.72	17334
908.836	17254
908.952	17284
909.068	17368
909.184	17410
909.3	17227
909.415	17341
909.531	17239
909.647	16980
909.762	17025
909.878	16949
909.993	16946
910.108	16984
910.224	16881
910.339	16869
910.454	16854
910.57	16812
910.685	16733
910.8	17018
910.915	17003
911.03	16843
911.145	16717
911.259	16687
911.374	16580
911.489	16550
911.604	16497
911.718	16409
911.833	16348
911.947	16204
912.062	16246
912.176	16382
912.291	16314
912.405	16306
912.519	16573
912.633	16466
912.748	16386
912.862	16276
912.976	16204
913.09	16090
913.204	16112
913.318	16188
913.431	16257
913.545	16223
913.659	16265
913.772	16055
913.886	15934
914	15972
914.113	16074
914.226	16135
914.34	15960
914.453	15720
914.566	15915
914.68	15808
914.793	15762
914.906	15652
915.019	15633
915.132	15466
915.245	15473
915.358	15466
915.47	15481
915.583	15447
915.696	15538
915.809	15625
915.921	15720
916.034	15515
916.146	15382
916.259	15374
916.371	15447
916.483	15443
916.595	15367
916.708	15416
916.82	15397
916.932	15329
917.044	15332
917.156	15363
917.268	15154
917.38	15150
917.491	15142
917.603	15157
917.715	15218
917.826	15275
917.938	15100
918.049	14990
918.161	15100
918.272	15108
918.384	15176
918.495	15119
918.606	14990
918.717	14914
918.828	14956
918.939	14864
919.05	14819
919.161	14834
919.272	14636
919.383	14788
919.494	14899
919.604	15138
919.715	14902
919.826	14826
919.936	14861
920.047	14948
920.157	14830
920.267	15077
920.378	14921
920.488	14925
920.598	14960
920.708	15108
920.818	14960
920.928	14979
921.038	15161
921.148	15161
921.258	14933
921.368	14701
921.477	14598
921.587	14583
921.697	14492
921.806	14625
921.916	14396
922.025	14381
922.134	14240
922.244	14210
922.353	14309
922.462	14138
922.571	13986
922.68	13864
922.789	13879
922.898	13898
923.007	13811
923.116	13852
923.224	13967
923.333	13799
923.442	13750
923.55	13685
923.659	13761
923.767	13734
923.876	13658
923.984	13780
924.092	13590
924.201	13723
924.309	13559
924.417	13594
924.525	13548
924.633	13693
924.741	14278
924.849	13369
924.956	13445
925.064	13255
925.172	13190
925.279	13217
925.387	13308
925.494	13343
925.602	13457
925.709	13415
925.816	13141
925.924	13270
926.031	13259
926.138	13137
926.245	13198
926.352	13152
926.459	13209
926.566	13270
926.673	13171
926.779	12985
926.886	13042
926.993	12943
927.099	12840
927.206	12825
927.312	12783
927.419	12837
927.525	12920
927.631	12825
927.737	12779
927.843	12608
927.95	12574
928.056	12681
928.162	12654
928.267	12707
928.373	13247
928.479	12669
928.585	12467
928.69	12555
928.796	12612
928.901	12433
929.007	12403
929.112	12521
929.218	12445
929.323	12506
929.428	12372
929.533	12563
929.638	12334
929.743	12357
929.848	12254
929.953	12239
930.058	12171
930.163	12072
930.267	12110
930.372	12228
930.477	11992
930.581	12235
930.685	12117
930.79	11931
930.894	11942
930.998	11942
931.103	12007
931.207	11665
931.311	11558
931.415	11535
931.519	11334
931.623	11311
