Data from test_V78500241_2634.txt Node
Date: Fri Mar 25 15:28:12 CST 2022
User: usil
Spectrometer: V785-0024
Trigger mode: 0
Integration Time (sec): 4.000000E-1
Scans to average: 1
Nonlinearity correction enabled: false
Boxcar width: 0
Storing dark spectrum: false
XAxis mode: Wavelengths
Number of Pixels in Spectrum: 1024
>>>>>Begin Spectral Data<<<<<
801.071	27119
801.214	27123
801.356	26762
801.499	26773
801.641	26659
801.783	26640
801.926	26785
802.068	26511
802.211	26594
802.353	26598
802.496	26404
802.638	26336
802.78	26229
802.923	26370
803.065	26286
803.208	26259
803.35	26328
803.492	26389
803.635	26518
803.777	26461
803.919	26431
804.061	26655
804.204	26575
804.346	26377
804.488	26427
804.63	26396
804.773	26301
804.915	26492
805.057	26552
805.199	26442
805.341	26533
805.483	26670
805.626	26629
805.768	26461
805.91	26587
806.052	26663
806.194	26533
806.336	26758
806.478	26655
806.62	26518
806.762	26583
806.904	26746
807.046	27116
807.188	26944
807.33	26944
807.472	27020
807.614	26998
807.756	26834
807.898	26682
808.04	26659
808.182	26701
808.324	26739
808.465	26857
808.607	26994
808.749	27161
808.891	27218
809.033	27218
809.174	27180
809.316	27032
809.458	27161
809.6	27241
809.741	27291
809.883	27241
810.025	27431
810.166	27458
810.308	27351
810.45	27549
810.591	27241
810.733	27169
810.875	27077
811.016	26944
811.158	26887
811.299	27169
811.441	27367
811.582	27435
811.724	27211
811.865	27146
812.007	27070
812.148	26979
812.29	27100
812.431	27275
812.573	27332
812.714	27447
812.855	27583
812.997	27690
813.138	27660
813.279	27770
813.421	27561
813.562	27557
813.703	27507
813.845	27340
813.986	27024
814.127	26914
814.268	26811
814.41	26781
814.551	26872
814.692	26872
814.833	26773
814.974	26682
815.115	26750
815.256	26617
815.397	26678
815.539	26697
815.68	26606
815.821	26511
815.962	26773
816.103	26537
816.244	26431
816.385	26309
816.526	26385
816.666	26103
816.807	26081
816.948	26161
817.089	26111
817.23	26122
817.371	26092
817.512	26008
817.653	25993
817.793	25913
817.934	25944
818.075	26081
818.216	26065
818.356	25986
818.497	25902
818.638	25803
818.778	25712
818.919	25788
819.06	25868
819.2	25959
819.341	25986
819.481	26126
819.622	26126
819.762	26385
819.903	26332
820.043	26202
820.184	26164
820.324	26180
820.465	26252
820.605	26225
820.746	26103
820.886	25890
821.026	26065
821.167	25966
821.307	26180
821.447	26134
821.588	25951
821.728	25837
821.868	25681
822.008	25506
822.149	25563
822.289	25544
822.429	25148
822.569	25160
822.709	25103
822.849	25110
822.99	25027
823.13	24951
823.27	24992
823.41	24715
823.55	24719
823.69	24894
823.83	24878
823.97	24779
824.11	24555
824.25	24612
824.389	24650
824.529	24738
824.669	24612
824.809	24783
824.949	24665
825.089	24726
825.228	24757
825.368	24536
825.508	24513
825.648	24486
825.787	24627
825.927	24555
826.067	24467
826.206	24566
826.346	24635
826.485	24707
826.625	24498
826.765	24623
826.904	24471
827.044	24479
827.183	24395
827.323	24155
827.462	24353
827.601	24243
827.741	24304
827.88	24292
828.02	24182
828.159	24159
828.298	24243
828.437	24270
828.577	24167
828.716	24338
828.855	24232
828.994	23904
829.134	24018
829.273	23996
829.412	23912
829.551	23798
829.69	23912
829.829	23973
829.968	23996
830.107	23931
830.246	23840
830.385	23889
830.524	23745
830.663	23680
830.802	23756
830.941	23573
831.08	23589
831.219	23554
831.357	23695
831.496	23710
831.635	23600
831.774	23497
831.913	23368
832.051	23318
832.19	23330
832.329	23315
832.467	23216
832.606	23189
832.744	23136
832.883	23178
833.022	23288
833.16	23307
833.299	23334
833.437	23246
833.576	23402
833.714	23181
833.852	23246
833.991	23269
834.129	23303
834.267	23341
834.406	23334
834.544	23326
834.682	23277
834.821	23284
834.959	23414
835.097	23296
835.235	23395
835.373	23242
835.511	23311
835.65	23212
835.788	23155
835.926	22858
836.064	23052
836.202	22949
836.34	23086
836.478	23250
836.615	23098
836.753	23170
836.891	23067
837.029	23208
837.167	23067
837.305	23010
837.443	22999
837.58	22953
837.718	23136
837.856	22987
837.993	22843
838.131	23029
838.269	22820
838.406	22995
838.544	22748
838.681	22664
838.819	22637
838.956	22405
839.094	22424
839.231	22596
839.369	22664
839.506	22873
839.643	22767
839.781	22394
839.918	22405
840.055	22523
840.193	22519
840.33	22497
840.467	22409
840.604	22451
840.742	22630
840.879	22390
841.016	22234
841.153	22363
841.29	22504
841.427	22314
841.564	22367
841.701	22306
841.838	22386
841.975	22238
842.112	22481
842.249	22367
842.385	22325
842.522	22352
842.659	22356
842.796	22181
842.933	22169
843.069	22086
843.206	22128
843.343	22207
843.479	22120
843.616	22173
843.752	21994
843.889	21926
844.025	22055
844.162	21895
844.298	22063
844.435	21915
844.571	21850
844.708	22002
844.844	22143
844.98	22059
845.117	22086
845.253	21850
845.389	21892
845.525	21949
845.661	21956
845.798	21644
845.934	21705
846.07	21728
846.206	21720
846.342	21770
846.478	21701
846.614	21549
846.75	21477
846.886	21359
847.022	21496
847.158	21545
847.294	21526
847.429	21393
847.565	21336
847.701	21603
847.837	21116
847.972	21017
848.108	21230
848.244	21264
848.379	21058
848.515	20979
848.65	20967
848.786	21169
848.921	20963
849.057	21039
849.192	21093
849.328	21154
849.463	21020
849.598	20895
849.734	20830
849.869	20815
850.004	20796
850.14	20819
850.275	20864
850.41	20739
850.545	20739
850.68	20708
850.815	20826
850.95	20849
851.085	20868
851.22	20971
851.355	20769
851.49	20777
851.625	20819
851.76	20716
851.895	20708
852.03	20644
852.165	20743
852.299	20735
852.434	20891
852.569	20796
852.703	20773
852.838	20758
852.973	20823
853.107	20807
853.242	20682
853.376	20640
853.511	20457
853.645	20621
853.78	20720
853.914	20629
854.048	20564
854.183	20590
854.317	20556
854.451	20697
854.585	20594
854.72	20552
854.854	20583
854.988	20488
855.122	20602
855.256	20454
855.39	20590
855.524	20708
855.658	20667
855.792	20602
855.926	20754
856.06	20621
856.194	20621
856.327	20503
856.461	20461
856.595	20583
856.729	20609
856.862	20743
856.996	20632
857.13	20682
857.263	20655
857.397	20651
857.53	20594
857.664	20636
857.797	20659
857.931	20678
858.064	20701
858.197	20686
858.331	20606
858.464	20587
858.597	20484
858.731	20537
858.864	20469
858.997	20579
859.13	20598
859.263	20682
859.396	20701
859.529	20606
859.662	20598
859.795	20606
859.928	20629
860.061	20754
860.194	20849
860.327	20678
860.46	20552
860.592	20663
860.725	20762
860.858	20678
860.99	20549
861.123	20590
861.256	20568
861.388	20575
861.521	21214
861.653	20381
861.786	20492
861.918	20488
862.05	20507
862.183	20495
862.315	20613
862.447	20549
862.58	20393
862.712	20324
862.844	20195
862.976	20431
863.108	20427
863.24	20811
863.372	20240
863.504	20324
863.636	20240
863.768	20278
863.9	20366
864.032	20282
864.164	20259
864.296	20339
864.428	20309
864.559	20389
864.691	20419
864.823	20313
864.954	20347
865.086	20256
865.217	20244
865.349	20187
865.48	20187
865.612	20271
865.743	20298
865.875	20214
866.006	20065
866.137	20214
866.269	20214
866.4	20183
866.531	20256
866.662	20119
866.793	20092
866.924	20088
867.055	20294
867.186	20187
867.317	20206
867.448	20153
867.579	20138
867.71	19993
867.841	20039
867.972	20290
868.103	20145
868.233	20157
868.364	20199
868.495	20168
868.625	20374
868.756	20473
868.886	20393
869.017	20351
869.147	20450
869.278	20511
869.408	20434
869.539	20457
869.669	20530
869.799	20434
869.929	20465
870.06	20408
870.19	20716
870.32	20686
870.45	20762
870.58	20838
870.71	20948
870.84	20929
870.97	20868
871.1	20701
871.23	20937
871.36	21089
871.489	20895
871.619	20998
871.749	20929
871.879	21066
872.008	21024
872.138	21001
872.267	20906
872.397	20838
872.526	20899
872.656	20765
872.785	20792
872.915	21081
873.044	21093
873.173	21089
873.303	21058
873.432	21043
873.561	21104
873.69	21077
873.819	20998
873.948	21138
874.077	21001
874.206	20967
874.335	21112
874.464	21268
874.593	21241
874.722	21192
874.851	21283
874.979	21401
875.108	21321
875.237	21329
875.365	21184
875.494	21195
875.623	21222
875.751	21256
875.88	21317
876.008	21382
876.136	21519
876.265	21641
876.393	21869
876.521	21789
876.65	21690
876.778	21679
876.906	21625
877.034	21633
877.162	21591
877.29	21587
877.418	21610
877.546	21686
877.674	21686
877.802	21675
877.93	21580
878.058	21701
878.185	21538
878.313	21515
878.441	21606
878.568	21401
878.696	21595
878.824	21686
878.951	21656
879.079	21755
879.206	21934
879.333	21759
879.461	21614
879.588	21686
879.715	21743
879.842	21850
879.97	21671
880.097	21435
880.224	21332
880.351	21515
880.478	21401
880.605	21325
880.732	21378
880.859	21671
880.986	21469
881.112	21561
881.239	21313
881.366	21199
881.493	21142
881.619	21058
881.746	21043
881.872	21039
881.999	20941
882.125	21062
882.252	21020
882.378	21051
882.505	21096
882.631	20861
882.757	20765
882.883	20834
883.01	20815
883.136	20606
883.262	20663
883.388	20590
883.514	20781
883.64	20804
883.766	20644
883.892	20571
884.018	20659
884.143	20625
884.269	20686
884.395	20461
884.52	20393
884.646	20484
884.772	20278
884.897	20278
885.023	20438
885.148	20355
885.274	20594
885.399	20507
885.524	20473
885.65	20328
885.775	20415
885.9	20377
886.025	20469
886.15	20427
886.275	20358
886.4	20237
886.525	20400
886.65	20328
886.775	20351
886.9	20537
887.025	20602
887.149	20320
887.274	20309
887.399	20130
887.523	20149
887.648	20122
887.773	20115
887.897	20252
888.021	20153
888.146	20149
888.27	20206
888.395	20286
888.519	20229
888.643	20119
888.767	20183
888.891	20161
889.015	19947
889.139	19989
889.263	19917
889.387	20100
889.511	20271
889.635	20119
889.759	20035
889.883	20024
890.006	20054
890.13	20065
890.254	19959
890.377	19818
890.501	19715
890.624	19597
890.748	19830
890.871	19571
890.995	19540
891.118	19491
891.241	19510
891.364	19586
891.488	19696
891.611	19639
891.734	19575
891.857	19772
891.98	19635
892.103	19628
892.226	19597
892.349	19457
892.471	19540
892.594	19483
892.717	19487
892.839	19518
892.962	19419
893.085	19472
893.207	19510
893.33	19324
893.452	19453
893.575	19445
893.697	19415
893.819	19666
893.941	19757
894.064	19689
894.186	19426
894.308	19396
894.43	19616
894.552	19586
894.674	19635
894.796	19415
894.918	19480
895.04	19289
895.161	19495
895.283	19521
895.405	19343
895.526	19407
895.648	19392
895.769	19571
895.891	19365
896.012	19670
896.134	19506
896.255	19464
896.376	19403
896.498	19403
896.619	19521
896.74	19597
896.861	19693
896.982	19868
897.103	19917
897.224	19746
897.345	19776
897.466	19685
897.587	19795
897.708	19822
897.828	19799
897.949	19662
898.07	19605
898.19	19693
898.311	19837
898.431	19719
898.552	19715
898.672	19715
898.792	19761
898.913	19704
899.033	19586
899.153	19540
899.273	19373
899.393	19506
899.513	19468
899.633	19499
899.753	19510
899.873	19518
899.993	19441
900.113	19449
900.232	19373
900.352	19430
900.472	19346
900.591	19221
900.711	19217
900.83	19198
900.95	19358
901.069	19403
901.189	19171
901.308	18920
901.427	18856
901.546	18886
901.665	18848
901.784	18749
901.904	18783
902.023	18684
902.141	18441
902.26	18407
902.379	18452
902.498	18319
902.617	18228
902.735	18376
902.854	18410
902.973	18254
903.091	18041
903.21	18117
903.328	18110
903.446	17916
903.565	17756
903.683	17935
903.801	17733
903.919	17737
904.038	17748
904.156	17611
904.274	17680
904.392	17661
904.51	17653
904.627	17615
904.745	17634
904.863	17630
904.981	17478
905.098	17239
905.216	17189
905.334	17280
905.451	17372
905.569	17322
905.686	17311
905.803	17353
905.921	17105
906.038	17220
906.155	17174
906.272	17041
906.389	17083
906.506	16835
906.623	16866
906.74	16915
906.857	16858
906.974	16885
907.091	16858
907.208	16991
907.324	17010
907.441	16702
907.557	16637
907.674	16542
907.79	16531
907.907	16497
908.023	16569
908.139	16592
908.256	16538
908.372	16451
908.488	16428
908.604	16341
908.72	16185
908.836	16348
908.952	16257
909.068	16352
909.184	16424
909.3	16238
909.415	16242
909.531	16375
909.647	16021
909.762	16059
909.878	16002
909.993	15987
910.108	16032
910.224	16013
910.339	15934
910.454	15865
910.57	15770
910.685	15778
910.8	16074
910.915	15998
911.03	15774
911.145	15728
911.259	15599
911.374	15530
911.489	15519
911.604	15496
911.718	15344
911.833	15458
911.947	15252
912.062	15203
912.176	15363
912.291	15332
912.405	15374
912.519	15557
912.633	15557
912.748	15393
912.862	15374
912.976	15222
913.09	15066
913.204	15142
913.318	15291
913.431	15222
913.545	15233
913.659	15283
913.772	15173
913.886	15009
914	15055
914.113	14998
914.226	15074
914.34	15112
914.453	14811
914.566	15001
914.68	15009
914.793	14861
914.906	14670
915.019	14610
915.132	14594
915.245	14686
915.358	14705
915.47	14648
915.583	14636
915.696	14568
915.809	14648
915.921	14769
916.034	14621
916.146	14419
916.259	14495
916.371	14629
916.483	14511
916.595	14465
916.708	14469
916.82	14564
916.932	14461
917.044	14434
917.156	14419
917.268	14309
917.38	14244
917.491	14202
917.603	14244
917.715	14301
917.826	14267
917.938	14130
918.049	14119
918.161	14191
918.272	14347
918.384	14396
918.495	14206
918.606	14035
918.717	13997
918.828	14130
918.939	14138
919.05	13928
919.161	14119
919.272	13833
919.383	13852
919.494	14039
919.604	14252
919.715	14050
919.826	13932
919.936	14077
920.047	14058
920.157	13963
920.267	14161
920.378	14039
920.488	13959
920.598	14164
920.708	14313
920.818	14142
920.928	14054
921.038	14298
921.148	14275
921.258	13963
921.368	13921
921.477	13822
921.587	13700
921.697	13586
921.806	13791
921.916	13582
922.025	13487
922.134	13472
922.244	13308
922.353	13426
922.462	13301
922.571	13270
922.68	13072
922.789	13145
922.898	13088
923.007	12985
923.116	13156
923.224	13072
923.333	13031
923.442	12947
923.55	12856
923.659	12939
923.767	13034
923.876	12829
923.984	12875
924.092	12749
924.201	12882
924.309	12875
924.417	12859
924.525	12802
924.633	12768
924.741	13689
924.849	12525
924.956	12719
925.064	12547
925.172	12376
925.279	12403
925.387	12467
925.494	12589
925.602	12646
925.709	12582
925.816	12426
925.924	12502
926.031	12475
926.138	12422
926.245	12502
926.352	12323
926.459	12494
926.566	12498
926.673	12467
926.779	12289
926.886	12281
926.993	12205
927.099	12060
927.206	12114
927.312	12072
927.419	12072
927.525	12064
927.631	12148
927.737	12003
927.843	11980
927.95	11832
928.056	11942
928.162	11885
928.267	11954
928.373	12509
928.479	12030
928.585	11805
928.69	11935
928.796	11904
928.901	11817
929.007	11604
929.112	11771
929.218	11775
929.323	11821
929.428	11718
929.533	11786
929.638	11623
929.743	11642
929.848	11756
929.953	11615
930.058	11592
930.163	11315
930.267	11414
930.372	11421
930.477	11353
930.581	11562
930.685	11414
930.79	11273
930.894	11265
930.998	11318
931.103	11398
931.207	11022
931.311	10949
931.415	10908
931.519	10637
931.623	10580
