Data from test_V78500241_466.txt Node
Date: Fri Mar 25 15:13:06 CST 2022
User: usil
Spectrometer: V785-0024
Trigger mode: 0
Integration Time (sec): 4.000000E-1
Scans to average: 1
Nonlinearity correction enabled: false
Boxcar width: 0
Storing dark spectrum: false
XAxis mode: Wavelengths
Number of Pixels in Spectrum: 1024
>>>>>Begin Spectral Data<<<<<
801.071	27462
801.214	27340
801.356	27123
801.499	27127
801.641	26807
801.783	26921
801.926	26960
802.068	26940
802.211	26842
802.353	26739
802.496	26530
802.638	26560
802.78	26552
802.923	26564
803.065	26564
803.208	26530
803.35	26598
803.492	26754
803.635	26670
803.777	26667
803.919	26796
804.061	27260
804.204	26769
804.346	26678
804.488	26613
804.63	26895
804.773	26594
804.915	26720
805.057	26857
805.199	26792
805.341	26864
805.483	26895
805.626	26876
805.768	26731
805.91	26716
806.052	26830
806.194	26731
806.336	27043
806.478	26796
806.62	26823
806.762	26937
806.904	27127
807.046	27184
807.188	27214
807.33	27233
807.472	27218
807.614	27199
807.756	27237
807.898	27184
808.04	27009
808.182	27039
808.324	27096
808.465	27157
808.607	27306
808.749	27447
808.891	27504
809.033	27587
809.174	27523
809.316	27507
809.458	27519
809.6	27317
809.741	27553
809.883	27641
810.025	27766
810.166	27515
810.308	27759
810.45	27728
810.591	27759
810.733	27572
810.875	27515
811.016	27340
811.158	27291
811.299	27382
811.441	27603
811.582	27561
811.724	27382
811.865	27363
812.007	27492
812.148	27386
812.29	27530
812.431	27667
812.573	27743
812.714	27892
812.855	27949
812.997	28131
813.138	28268
813.279	28090
813.421	27953
813.562	27983
813.703	27823
813.845	27739
813.986	27367
814.127	27382
814.268	27089
814.41	27188
814.551	27051
814.692	27268
814.833	27020
814.974	27055
815.115	27028
815.256	26952
815.397	26956
815.539	27066
815.68	26902
815.821	26914
815.962	26853
816.103	26914
816.244	26823
816.385	26697
816.526	26644
816.666	26526
816.807	26389
816.948	26514
817.089	26651
817.23	26404
817.371	26431
817.512	26495
817.653	26469
817.793	26328
817.934	26511
818.075	26385
818.216	26362
818.356	26370
818.497	26157
818.638	26180
818.778	26153
818.919	26199
819.06	26256
819.2	26320
819.341	26404
819.481	26256
819.622	26541
819.762	26689
819.903	26716
820.043	26655
820.184	26617
820.324	26522
820.465	26575
820.605	26590
820.746	26457
820.886	26347
821.026	26549
821.167	26362
821.307	26648
821.447	26442
821.588	26244
821.728	26164
821.868	26088
822.008	25963
822.149	25849
822.289	25890
822.429	25525
822.569	25487
822.709	25624
822.849	25354
822.99	25396
823.13	25343
823.27	25331
823.41	25183
823.55	25259
823.69	25053
823.83	25137
823.97	25069
824.11	25027
824.25	24996
824.389	24909
824.529	25008
824.669	24981
824.809	25118
824.949	25015
825.089	24992
825.228	24992
825.368	24852
825.508	24939
825.648	24935
825.787	24981
825.927	24863
826.067	24817
826.206	24939
826.346	24829
826.485	24996
826.625	24916
826.765	24992
826.904	24951
827.044	24707
827.183	24650
827.323	24551
827.462	24608
827.601	24646
827.741	24517
827.88	24585
828.02	24441
828.159	24597
828.298	24585
828.437	24623
828.577	24521
828.716	24608
828.855	24521
828.994	24342
829.134	24353
829.273	24395
829.412	24315
829.551	24315
829.69	24315
829.829	24403
829.968	24437
830.107	24232
830.246	24448
830.385	24342
830.524	24239
830.663	24163
830.802	24003
830.941	23863
831.08	23859
831.219	23973
831.357	23923
831.496	24140
831.635	23946
831.774	23916
831.913	23836
832.051	23783
832.19	23642
832.329	23741
832.467	23718
832.606	23558
832.744	23547
832.883	23585
833.022	23611
833.16	23570
833.299	23733
833.437	23745
833.576	23695
833.714	23745
833.852	23714
833.991	23752
834.129	23843
834.267	23710
834.406	23756
834.544	23733
834.682	23729
834.821	23577
834.959	23904
835.097	23551
835.235	23714
835.373	23828
835.511	23718
835.65	23611
835.788	23592
835.926	23410
836.064	23360
836.202	23444
836.34	23497
836.478	23672
836.615	23543
836.753	23577
836.891	23627
837.029	23539
837.167	23429
837.305	23493
837.443	23353
837.58	23406
837.718	23421
837.856	23414
837.993	23356
838.131	23345
838.269	23227
838.406	23227
838.544	23223
838.681	23064
838.819	22984
838.956	22915
839.094	22774
839.231	22976
839.369	22980
839.506	23200
839.643	23090
839.781	22972
839.918	22824
840.055	22866
840.193	22877
840.33	22725
840.467	22740
840.604	22858
840.742	23014
840.879	22668
841.016	22702
841.153	22729
841.29	22885
841.427	22847
841.564	22847
841.701	22641
841.838	22752
841.975	22618
842.112	22702
842.249	22694
842.385	22428
842.522	22797
842.659	22683
842.796	22550
842.933	22634
843.069	22607
843.206	22664
843.343	22527
843.479	22542
843.616	22580
843.752	22333
843.889	22322
844.025	22451
844.162	22306
844.298	22371
844.435	22379
844.571	22363
844.708	22348
844.844	22577
844.98	22451
845.117	22508
845.253	22242
845.389	22238
845.525	22234
845.661	22223
845.798	22048
845.934	22246
846.07	22048
846.206	22063
846.342	22048
846.478	21960
846.614	21842
846.75	21808
846.886	21785
847.022	21899
847.158	21835
847.294	21785
847.429	21911
847.565	21778
847.701	22029
847.837	21625
847.972	21572
848.108	21656
848.244	21507
848.379	21420
848.515	21408
848.65	21405
848.786	21382
848.921	21462
849.057	21545
849.192	21428
849.328	21488
849.463	21447
849.598	21325
849.734	21275
849.869	21249
850.004	21081
850.14	21131
850.275	21260
850.41	21161
850.545	21070
850.68	21089
850.815	21211
850.95	21150
851.085	21123
851.22	21230
851.355	21291
851.49	21135
851.625	21184
851.76	21127
851.895	21043
852.03	21047
852.165	21112
852.299	21218
852.434	21336
852.569	21218
852.703	21203
852.838	21211
852.973	21367
853.107	21233
853.242	21104
853.376	21138
853.511	20998
853.645	20929
853.78	21077
853.914	20998
854.048	20952
854.183	20937
854.317	20986
854.451	21192
854.585	20986
854.72	21055
854.854	21055
854.988	20956
855.122	20956
855.256	20868
855.39	20914
855.524	20941
855.658	20937
855.792	20971
855.926	21077
856.06	20998
856.194	21020
856.327	20918
856.461	21017
856.595	20830
856.729	21009
856.862	21058
856.996	21051
857.13	21081
857.263	21055
857.397	21039
857.53	20982
857.664	20963
857.797	20979
857.931	21055
858.064	20982
858.197	21024
858.331	21005
858.464	20982
858.597	20971
858.731	20895
858.864	20910
858.997	21009
859.13	21017
859.263	20929
859.396	21036
859.529	21028
859.662	21020
859.795	21043
859.928	20982
860.061	21028
860.194	21252
860.327	21020
860.46	20921
860.592	21123
860.725	21142
860.858	21138
860.99	21032
861.123	20823
861.256	20956
861.388	20982
861.521	21701
861.653	20975
861.786	20804
861.918	20796
862.05	20823
862.183	20929
862.315	20956
862.447	20982
862.58	20842
862.712	20716
862.844	20648
862.976	20750
863.108	20830
863.24	21241
863.372	20689
863.504	20533
863.636	20735
863.768	20689
863.9	20705
864.032	20689
864.164	20613
864.296	20701
864.428	20796
864.559	20861
864.691	20754
864.823	20697
864.954	20724
865.086	20590
865.217	20712
865.349	20549
865.48	20473
865.612	20651
865.743	20648
865.875	20697
866.006	20541
866.137	20613
866.269	20579
866.4	20537
866.531	20511
866.662	20533
866.793	20632
866.924	20606
867.055	20636
867.186	20530
867.317	20617
867.448	20404
867.579	20533
867.71	20473
867.841	20457
867.972	20583
868.103	20514
868.233	20568
868.364	20484
868.495	20587
868.625	20769
868.756	20838
868.886	20701
869.017	20765
869.147	20849
869.278	20960
869.408	20682
869.539	20937
869.669	20762
869.799	20754
869.929	20914
870.06	20914
870.19	21192
870.32	20986
870.45	21135
870.58	21066
870.71	21275
870.84	21252
870.97	21047
871.1	21161
871.23	21393
871.36	21443
871.489	21317
871.619	21351
871.749	21359
871.879	21363
872.008	21329
872.138	21420
872.267	21401
872.397	21222
872.526	21146
872.656	21374
872.785	21154
872.915	21447
873.044	21523
873.173	21473
873.303	21549
873.432	21367
873.561	21469
873.69	21466
873.819	21367
873.948	21469
874.077	21500
874.206	21428
874.335	21504
874.464	21431
874.593	21587
874.722	21549
874.851	21652
874.979	21663
875.108	21667
875.237	21618
875.365	21481
875.494	21549
875.623	21656
875.751	21507
875.88	21534
876.008	21622
876.136	21793
876.265	21930
876.393	22185
876.521	22036
876.65	22055
876.778	22044
876.906	22044
877.034	21865
877.162	21918
877.29	21903
877.418	22013
877.546	21945
877.674	22017
877.802	22067
877.93	21960
878.058	21804
878.185	21831
878.313	21827
878.441	21983
878.568	21785
878.696	21888
878.824	21941
878.951	22017
879.079	22162
879.206	22287
879.333	22166
879.461	22025
879.588	22181
879.715	22086
879.842	22188
879.97	22181
880.097	21808
880.224	21888
880.351	21694
880.478	21884
880.605	21747
880.732	21778
880.859	22036
880.986	21698
881.112	21667
881.239	21663
881.366	21538
881.493	21545
881.619	21294
881.746	21420
881.872	21359
881.999	21386
882.125	21233
882.252	21431
882.378	21344
882.505	21488
882.631	21294
882.757	21093
882.883	21211
883.01	21165
883.136	20853
883.262	20891
883.388	20952
883.514	21039
883.64	21260
883.766	21062
883.892	20750
884.018	20899
884.143	20918
884.269	20960
884.395	20823
884.52	20659
884.646	20739
884.772	20564
884.897	20674
885.023	20712
885.148	20758
885.274	20838
885.399	20823
885.524	20746
885.65	20724
885.775	20701
885.9	20667
886.025	20804
886.15	20819
886.275	20648
886.4	20640
886.525	20735
886.65	20731
886.775	20602
886.9	20815
887.025	20834
887.149	20682
887.274	20629
887.399	20541
887.523	20503
887.648	20552
887.773	20518
887.897	20511
888.021	20499
888.146	20492
888.27	20571
888.395	20575
888.519	20499
888.643	20511
888.767	20533
888.891	20518
889.015	20351
889.139	20400
889.263	20389
889.387	20389
889.511	20450
889.635	20442
889.759	20320
889.883	20214
890.006	20313
890.13	20362
890.254	20187
890.377	20244
890.501	20031
890.624	20035
890.748	20119
890.871	20054
890.995	19894
891.118	19799
891.241	19951
891.364	19951
891.488	20035
891.611	19879
891.734	19936
891.857	19997
891.98	19807
892.103	19879
892.226	19913
892.349	19788
892.471	19662
892.594	19696
892.717	19894
892.839	19868
892.962	19772
893.085	19852
893.207	19731
893.33	19624
893.452	19685
893.575	19715
893.697	19788
893.819	19963
893.941	20142
894.064	19868
894.186	19586
894.308	19677
894.43	19841
894.552	19932
894.674	19894
894.796	19712
894.918	19731
895.04	19696
895.161	19833
895.283	19833
895.405	19662
895.526	19666
895.648	19788
895.769	19814
895.891	19879
896.012	19951
896.134	19864
896.255	19887
896.376	19753
896.498	19826
896.619	19807
896.74	19822
896.861	19830
896.982	20062
897.103	20172
897.224	20187
897.345	19986
897.466	19989
897.587	20065
897.708	20130
897.828	20031
897.949	19830
898.07	19772
898.19	19955
898.311	20081
898.431	19894
898.552	19982
898.672	20100
898.792	20100
898.913	19989
899.033	19807
899.153	19807
899.273	19750
899.393	19780
899.513	19723
899.633	19753
899.753	19738
899.873	19677
899.993	19719
900.113	19712
900.232	19715
900.352	19765
900.472	19639
900.591	19480
900.711	19506
900.83	19449
900.95	19578
901.069	19529
901.189	19449
901.308	19198
901.427	19129
901.546	19141
901.665	19065
901.784	19141
901.904	19015
902.023	18852
902.141	18734
902.26	18623
902.379	18707
902.498	18757
902.617	18574
902.735	18658
902.854	18688
902.973	18483
903.091	18254
903.21	18273
903.328	18353
903.446	18190
903.565	18133
903.683	18144
903.801	17977
903.919	18125
904.038	18083
904.156	18019
904.274	18083
904.392	17843
904.51	17851
904.627	17866
904.745	17847
904.863	17946
904.981	17729
905.098	17585
905.216	17638
905.334	17604
905.451	17532
905.569	17554
905.686	17554
905.803	17554
905.921	17459
906.038	17482
906.155	17459
906.272	17345
906.389	17204
906.506	17143
906.623	17189
906.74	17155
906.857	16987
906.974	16953
907.091	17204
907.208	17193
907.324	17132
907.441	17025
907.557	16828
907.674	16839
907.79	16816
907.907	16744
908.023	16820
908.139	16740
908.256	16839
908.372	16763
908.488	16702
908.604	16577
908.72	16519
908.836	16649
908.952	16516
909.068	16645
909.184	16679
909.3	16504
909.415	16592
909.531	16592
909.647	16325
909.762	16322
909.878	16280
909.993	16265
910.108	16253
910.224	16177
910.339	16192
910.454	16158
910.57	16074
910.685	16029
910.8	16230
910.915	16268
911.03	16017
911.145	15998
911.259	15964
911.374	15823
911.489	15774
911.604	15724
911.718	15667
911.833	15728
911.947	15591
912.062	15386
912.176	15557
912.291	15675
912.405	15576
912.519	15785
912.633	15781
912.748	15667
912.862	15652
912.976	15447
913.09	15348
913.204	15313
913.318	15344
913.431	15511
913.545	15504
913.659	15644
913.772	15351
913.886	15287
914	15268
914.113	15279
914.226	15363
914.34	15287
914.453	15146
914.566	15241
914.68	15176
914.793	15013
914.906	14910
915.019	14857
915.132	14754
915.245	14739
915.358	14849
915.47	14933
915.583	14769
915.696	14937
915.809	15009
915.921	14914
916.034	14785
916.146	14678
916.259	14712
916.371	14800
916.483	14811
916.595	14674
916.708	14777
916.82	14644
916.932	14625
917.044	14686
917.156	14625
917.268	14495
917.38	14564
917.491	14537
917.603	14530
917.715	14522
917.826	14648
917.938	14473
918.049	14400
918.161	14480
918.272	14610
918.384	14579
918.495	14415
918.606	14347
918.717	14199
918.828	14259
918.939	14347
919.05	14183
919.161	14278
919.272	14043
919.383	14073
919.494	14336
919.604	14511
919.715	14256
919.826	14199
919.936	14168
920.047	14381
920.157	14244
920.267	14419
920.378	14294
920.488	14069
920.598	14415
920.708	14583
920.818	14412
920.928	14370
921.038	14507
921.148	14457
921.258	14180
921.368	14142
921.477	14073
921.587	13970
921.697	13890
921.806	14084
921.916	13856
922.025	13639
922.134	13670
922.244	13567
922.353	13689
922.462	13597
922.571	13457
922.68	13308
922.789	13400
922.898	13308
923.007	13228
923.116	13278
923.224	13308
923.333	13251
923.442	13168
923.55	13088
923.659	13099
923.767	13149
923.876	13091
923.984	13152
924.092	13004
924.201	13015
924.309	13038
924.417	13118
924.525	12966
924.633	13012
924.741	13913
924.849	12722
924.956	12848
925.064	12745
925.172	12639
925.279	12642
925.387	12772
925.494	12779
925.602	12943
925.709	12696
925.816	12627
925.924	12650
926.031	12642
926.138	12623
926.245	12688
926.352	12547
926.459	12753
926.566	12734
926.673	12593
926.779	12471
926.886	12506
926.993	12296
927.099	12281
927.206	12186
927.312	12205
927.419	12304
927.525	12330
927.631	12319
927.737	12140
927.843	12034
927.95	12030
928.056	12133
928.162	12201
928.267	12148
928.373	12738
928.479	12205
928.585	11984
928.69	12049
928.796	12209
928.901	11980
929.007	11802
929.112	12045
929.218	11882
929.323	11790
929.428	11855
929.533	11988
929.638	11798
929.743	11676
929.848	11821
929.953	11802
930.058	11695
930.163	11581
930.267	11509
930.372	11608
930.477	11505
930.581	11760
930.685	11570
930.79	11356
930.894	11383
930.998	11364
931.103	11486
931.207	11166
931.311	11113
931.415	10942
931.519	10839
931.623	10767
