Data from test_V78500241_346.txt Node
Date: Fri Mar 25 15:12:16 CST 2022
User: usil
Spectrometer: V785-0024
Trigger mode: 0
Integration Time (sec): 4.000000E-1
Scans to average: 1
Nonlinearity correction enabled: false
Boxcar width: 0
Storing dark spectrum: false
XAxis mode: Wavelengths
Number of Pixels in Spectrum: 1024
>>>>>Begin Spectral Data<<<<<
801.071	27066
801.214	26998
801.356	26659
801.499	26823
801.641	26648
801.783	26609
801.926	26777
802.068	26575
802.211	26473
802.353	26446
802.496	26259
802.638	26400
802.78	26248
802.923	26271
803.065	26153
803.208	26161
803.35	26263
803.492	26271
803.635	26587
803.777	26259
803.919	26431
804.061	26682
804.204	26606
804.346	26278
804.488	26290
804.63	26404
804.773	26134
804.915	26366
805.057	26552
805.199	26495
805.341	26560
805.483	26473
805.626	26518
805.768	26324
805.91	26575
806.052	26473
806.194	26453
806.336	26590
806.478	26419
806.62	26438
806.762	26651
806.904	26815
807.046	27043
807.188	26849
807.33	26933
807.472	26857
807.614	26819
807.756	26750
807.898	26849
808.04	26697
808.182	26773
808.324	26686
808.465	26906
808.607	26864
808.749	27127
808.891	27226
809.033	27374
809.174	27119
809.316	27161
809.458	27043
809.6	27100
809.741	27138
809.883	27043
810.025	27401
810.166	27382
810.308	27310
810.45	27325
810.591	27363
810.733	27119
810.875	27226
811.016	27020
811.158	26952
811.299	27074
811.441	27218
811.582	27252
811.724	27104
811.865	27089
812.007	27055
812.148	27112
812.29	27104
812.431	27310
812.573	27310
812.714	27515
812.855	27637
812.997	27709
813.138	27743
813.279	27698
813.421	27610
813.562	27705
813.703	27454
813.845	27427
813.986	27096
814.127	26906
814.268	26754
814.41	26823
814.551	26838
814.692	26864
814.833	26716
814.974	26705
815.115	26769
815.256	26632
815.397	26644
815.539	26712
815.68	26537
815.821	26419
815.962	26621
816.103	26511
816.244	26545
816.385	26332
816.526	26358
816.666	26077
816.807	25951
816.948	25997
817.089	26126
817.23	26012
817.371	26183
817.512	25951
817.653	25936
817.793	25993
817.934	26092
818.075	26027
818.216	26084
818.356	25978
818.497	25814
818.638	25696
818.778	25837
818.919	25780
819.06	25727
819.2	25841
819.341	25921
819.481	25986
819.622	26267
819.762	26240
819.903	26145
820.043	26214
820.184	26263
820.324	26088
820.465	26290
820.605	26088
820.746	26027
820.886	25849
821.026	26058
821.167	26191
821.307	26202
821.447	25970
821.588	25940
821.728	25784
821.868	25674
822.008	25415
822.149	25411
822.289	25350
822.429	25202
822.569	25114
822.709	25145
822.849	25038
822.99	25000
823.13	25042
823.27	24977
823.41	24837
823.55	24738
823.69	24722
823.83	24821
823.97	24886
824.11	24589
824.25	24578
824.389	24601
824.529	24684
824.669	24616
824.809	24741
824.949	24734
825.089	24688
825.228	24665
825.368	24509
825.508	24582
825.648	24479
825.787	24486
825.927	24536
826.067	24315
826.206	24513
826.346	24559
826.485	24570
826.625	24517
826.765	24536
826.904	24544
827.044	24300
827.183	24194
827.323	24064
827.462	24361
827.601	24194
827.741	24076
827.88	24114
828.02	24129
828.159	24213
828.298	24342
828.437	24243
828.577	24155
828.716	24311
828.855	24163
828.994	23851
829.134	23942
829.273	23984
829.412	23840
829.551	23893
829.69	24015
829.829	23939
829.968	24083
830.107	24007
830.246	23794
830.385	23821
830.524	23748
830.663	23771
830.802	23707
830.941	23509
831.08	23505
831.219	23592
831.357	23444
831.496	23722
831.635	23543
831.774	23516
831.913	23345
832.051	23387
832.19	23322
832.329	23509
832.467	23368
832.606	23273
832.744	23197
832.883	23235
833.022	23147
833.16	23315
833.299	23288
833.437	23269
833.576	23334
833.714	23280
833.852	23372
833.991	23459
834.129	23265
834.267	23372
834.406	23448
834.544	23387
834.682	23216
834.821	23356
834.959	23455
835.097	23261
835.235	23417
835.373	23356
835.511	23364
835.65	23079
835.788	23159
835.926	23090
836.064	22995
836.202	23060
836.34	23151
836.478	23239
836.615	23280
836.753	23208
836.891	23258
837.029	23193
837.167	23155
837.305	23048
837.443	23003
837.58	22999
837.718	23079
837.856	23109
837.993	22942
838.131	23033
838.269	22854
838.406	22927
838.544	22824
838.681	22626
838.819	22691
838.956	22497
839.094	22497
839.231	22542
839.369	22744
839.506	22820
839.643	22706
839.781	22527
839.918	22413
840.055	22447
840.193	22577
840.33	22341
840.467	22428
840.604	22440
840.742	22554
840.879	22261
841.016	22303
841.153	22287
841.29	22451
841.427	22329
841.564	22481
841.701	22348
841.838	22360
841.975	22204
842.112	22299
842.249	22219
842.385	22055
842.522	22375
842.659	22158
842.796	22173
842.933	22234
843.069	22143
843.206	22070
843.343	22238
843.479	22204
843.616	22173
843.752	22086
843.889	22120
844.025	22105
844.162	21831
844.298	22086
844.435	21937
844.571	21949
844.708	21983
844.844	22166
844.98	22086
845.117	22006
845.253	21899
845.389	21808
845.525	21827
845.661	21842
845.798	21751
845.934	21755
846.07	21656
846.206	21705
846.342	21679
846.478	21644
846.614	21504
846.75	21469
846.886	21401
847.022	21466
847.158	21439
847.294	21336
847.429	21374
847.565	21481
847.701	21606
847.837	21169
847.972	21119
848.108	21359
848.244	21146
848.379	21013
848.515	21036
848.65	21051
848.786	21081
848.921	21104
849.057	21100
849.192	21100
849.328	21028
849.463	21001
849.598	21032
849.734	20960
849.869	20845
850.004	20796
850.14	20739
850.275	20693
850.41	20613
850.545	20765
850.68	20708
850.815	20716
850.95	20853
851.085	20925
851.22	20929
851.355	20838
851.49	20754
851.625	20796
851.76	20765
851.895	20686
852.03	20644
852.165	20796
852.299	20876
852.434	20895
852.569	20785
852.703	20743
852.838	20895
852.973	20906
853.107	20910
853.242	20712
853.376	20651
853.511	20514
853.645	20568
853.78	20731
853.914	20663
854.048	20636
854.183	20522
854.317	20560
854.451	20689
854.585	20629
854.72	20632
854.854	20659
854.988	20659
855.122	20545
855.256	20450
855.39	20583
855.524	20773
855.658	20621
855.792	20533
855.926	20625
856.06	20705
856.194	20701
856.327	20556
856.461	20503
856.595	20393
856.729	20533
856.862	20887
856.996	20511
857.13	20693
857.263	20708
857.397	20705
857.53	20575
857.664	20617
857.797	20552
857.931	20796
858.064	20625
858.197	20762
858.331	20602
858.464	20533
858.597	20404
858.731	20632
858.864	20499
858.997	20549
859.13	20606
859.263	20648
859.396	20697
859.529	20568
859.662	20678
859.795	20549
859.928	20514
860.061	20815
860.194	20758
860.327	20636
860.46	20792
860.592	20746
860.725	20834
860.858	20739
860.99	20571
861.123	20514
861.256	20484
861.388	20533
861.521	21051
861.653	20613
861.786	20339
861.918	20370
862.05	20473
862.183	20438
862.315	20571
862.447	20511
862.58	20499
862.712	20328
862.844	20317
862.976	20366
863.108	20381
863.24	20727
863.372	20267
863.504	20294
863.636	20298
863.768	20271
863.9	20450
864.032	20263
864.164	20210
864.296	20393
864.428	20332
864.559	20358
864.691	20206
864.823	20309
864.954	20336
865.086	20336
865.217	20282
865.349	20244
865.48	20183
865.612	20195
865.743	20461
865.875	20229
866.006	20145
866.137	20210
866.269	20298
866.4	20218
866.531	20119
866.662	20309
866.793	20229
866.924	20096
867.055	20187
867.186	20168
867.317	20069
867.448	20214
867.579	20225
867.71	19970
867.841	20202
867.972	20157
868.103	20153
868.233	19955
868.364	20157
868.495	20263
868.625	20530
868.756	20499
868.886	20317
869.017	20465
869.147	20617
869.278	20484
869.408	20434
869.539	20438
869.669	20434
869.799	20442
869.929	20575
870.06	20503
870.19	20667
870.32	20648
870.45	20800
870.58	20830
870.71	20960
870.84	20842
870.97	20811
871.1	20705
871.23	21024
871.36	20956
871.489	20902
871.619	20960
871.749	21013
871.879	21089
872.008	21119
872.138	21009
872.267	20937
872.397	20925
872.526	20807
872.656	20830
872.785	20765
872.915	21047
873.044	21116
873.173	21039
873.303	21024
873.432	21066
873.561	21138
873.69	21028
873.819	21028
873.948	21108
874.077	21020
874.206	21055
874.335	21047
874.464	21203
874.593	21230
874.722	21108
874.851	21230
874.979	21336
875.108	21230
875.237	21150
875.365	21207
875.494	21230
875.623	21317
875.751	21165
875.88	21268
876.008	21405
876.136	21443
876.265	21591
876.393	21831
876.521	21705
876.65	21804
876.778	21713
876.906	21572
877.034	21656
877.162	21728
877.29	21564
877.418	21675
877.546	21618
877.674	21591
877.802	21644
877.93	21530
878.058	21492
878.185	21469
878.313	21587
878.441	21580
878.568	21435
878.696	21618
878.824	21530
878.951	21652
879.079	21785
879.206	21880
879.333	21838
879.461	21766
879.588	21728
879.715	21850
879.842	21991
879.97	21724
880.097	21492
880.224	21378
880.351	21519
880.478	21561
880.605	21466
880.732	21504
880.859	21739
880.986	21428
881.112	21580
881.239	21321
881.366	21237
881.493	21119
881.619	21116
881.746	21047
881.872	21104
881.999	21070
882.125	20929
882.252	21104
882.378	21005
882.505	21233
882.631	20941
882.757	20830
882.883	20838
883.01	20769
883.136	20762
883.262	20606
883.388	20587
883.514	20735
883.64	20792
883.766	20632
883.892	20708
884.018	20575
884.143	20792
884.269	20739
884.395	20473
884.52	20317
884.646	20446
884.772	20370
884.897	20282
885.023	20396
885.148	20492
885.274	20518
885.399	20549
885.524	20393
885.65	20415
885.775	20434
885.9	20454
886.025	20473
886.15	20583
886.275	20358
886.4	20366
886.525	20438
886.65	20415
886.775	20237
886.9	20587
887.025	20621
887.149	20366
887.274	20248
887.399	20111
887.523	20195
887.648	20164
887.773	20161
887.897	20278
888.021	20191
888.146	20157
888.27	20176
888.395	20301
888.519	20214
888.643	20210
888.767	20248
888.891	20134
889.015	19982
889.139	19986
889.263	19925
889.387	20077
889.511	20221
889.635	20138
889.759	20005
889.883	20065
890.006	19856
890.13	19925
890.254	19856
890.377	19868
890.501	19757
890.624	19712
890.748	19826
890.871	19582
890.995	19529
891.118	19613
891.241	19616
891.364	19487
891.488	19742
891.611	19609
891.734	19597
891.857	19651
891.98	19601
892.103	19639
892.226	19559
892.349	19552
892.471	19403
892.594	19483
892.717	19521
892.839	19586
892.962	19381
893.085	19647
893.207	19476
893.33	19327
893.452	19426
893.575	19521
893.697	19529
893.819	19689
893.941	19655
894.064	19567
894.186	19384
894.308	19381
894.43	19518
894.552	19537
894.674	19658
894.796	19362
894.918	19350
895.04	19434
895.161	19411
895.283	19590
895.405	19308
895.526	19358
895.648	19529
895.769	19537
895.891	19628
896.012	19658
896.134	19502
896.255	19453
896.376	19495
896.498	19392
896.619	19582
896.74	19411
896.861	19609
896.982	19826
897.103	19894
897.224	19772
897.345	19700
897.466	19658
897.587	19727
897.708	19826
897.828	19750
897.949	19776
898.07	19514
898.19	19753
898.311	19772
898.431	19647
898.552	19681
898.672	19708
898.792	19898
898.913	19818
899.033	19624
899.153	19518
899.273	19438
899.393	19499
899.513	19506
899.633	19563
899.753	19434
899.873	19388
899.993	19514
900.113	19441
900.232	19495
900.352	19415
900.472	19244
900.591	19293
900.711	19381
900.83	19202
900.95	19339
901.069	19343
901.189	19000
901.308	18886
901.427	18783
901.546	18905
901.665	18859
901.784	18882
901.904	18684
902.023	18566
902.141	18353
902.26	18330
902.379	18445
902.498	18361
902.617	18361
902.735	18357
902.854	18350
902.973	18251
903.091	18060
903.21	18026
903.328	17961
903.446	17946
903.565	17832
903.683	17786
903.801	17794
903.919	17817
904.038	17760
904.156	17691
904.274	17699
904.392	17699
904.51	17554
904.627	17589
904.745	17710
904.863	17676
904.981	17429
905.098	17364
905.216	17322
905.334	17330
905.451	17326
905.569	17379
905.686	17258
905.803	17277
905.921	17185
906.038	17064
906.155	17174
906.272	16953
906.389	17086
906.506	16812
906.623	16972
906.74	16850
906.857	16782
906.974	16786
907.091	16896
907.208	16949
907.324	16911
907.441	16771
907.557	16752
907.674	16611
907.79	16497
907.907	16512
908.023	16618
908.139	16531
908.256	16607
908.372	16542
908.488	16470
908.604	16314
908.72	16261
908.836	16249
908.952	16219
909.068	16238
909.184	16402
909.3	16268
909.415	16238
909.531	16276
909.647	16029
909.762	15975
909.878	15918
909.993	16025
910.108	15956
910.224	15949
910.339	16040
910.454	15888
910.57	15884
910.685	15709
910.8	16006
910.915	16032
911.03	15884
911.145	15622
911.259	15629
911.374	15698
911.489	15572
911.604	15447
911.718	15397
911.833	15344
911.947	15180
912.062	15161
912.176	15298
912.291	15370
912.405	15264
912.519	15469
912.633	15610
912.748	15367
912.862	15336
912.976	15268
913.09	15100
913.204	15116
913.318	15195
913.431	15241
913.545	15184
913.659	15176
913.772	15097
913.886	15074
914	14979
914.113	15024
914.226	15161
914.34	15100
914.453	14902
914.566	14990
914.68	14811
914.793	14861
914.906	14682
915.019	14644
915.132	14575
915.245	14693
915.358	14640
915.47	14705
915.583	14636
915.696	14743
915.809	14743
915.921	14648
916.034	14556
916.146	14488
916.259	14488
916.371	14617
916.483	14571
916.595	14431
916.708	14499
916.82	14423
916.932	14423
917.044	14404
917.156	14408
917.268	14336
917.38	14320
917.491	14202
917.603	14313
917.715	14343
917.826	14381
917.938	14286
918.049	14065
918.161	14298
918.272	14393
918.384	14332
918.495	14252
918.606	14161
918.717	14065
918.828	14134
918.939	14107
919.05	13993
919.161	14084
919.272	13841
919.383	14020
919.494	14115
919.604	14244
919.715	14005
919.826	13967
919.936	13955
920.047	14050
920.157	14001
920.267	14233
920.378	14115
920.488	14035
920.598	14157
920.708	14419
920.818	14126
920.928	14134
921.038	14225
921.148	14202
921.258	14039
921.368	13890
921.477	13727
921.587	13780
921.697	13670
921.806	13807
921.916	13636
922.025	13464
922.134	13540
922.244	13343
922.353	13476
922.462	13240
922.571	13198
922.68	13190
922.789	13057
922.898	13069
923.007	12977
923.116	13076
923.224	13042
923.333	13046
923.442	12913
923.55	12909
923.659	12973
923.767	12913
923.876	12810
923.984	12962
924.092	12753
924.201	12882
924.309	12806
924.417	12882
924.525	12627
924.633	12753
924.741	13460
924.849	12528
924.956	12768
925.064	12589
925.172	12513
925.279	12502
925.387	12506
925.494	12517
925.602	12760
925.709	12631
925.816	12429
925.924	12445
926.031	12532
926.138	12528
926.245	12570
926.352	12414
926.459	12513
926.566	12498
926.673	12346
926.779	12266
926.886	12289
926.993	12144
927.099	12102
927.206	12011
927.312	11996
927.419	12194
927.525	12038
927.631	12133
927.737	11965
927.843	11935
927.95	11916
928.056	11927
928.162	11931
928.267	11931
928.373	12585
928.479	11950
928.585	11771
928.69	11901
928.796	11904
928.901	11824
929.007	11691
929.112	11874
929.218	11737
929.323	11642
929.428	11615
929.533	11752
929.638	11581
929.743	11592
929.848	11600
929.953	11596
930.058	11604
930.163	11296
930.267	11493
930.372	11501
930.477	11353
930.581	11452
930.685	11463
930.79	11250
930.894	11299
930.998	11208
931.103	11414
931.207	10968
931.311	10919
931.415	10892
931.519	10630
931.623	10714
