Data from test_V78500241_3517.txt Node
Date: Fri Mar 25 15:34:20 CST 2022
User: usil
Spectrometer: V785-0024
Trigger mode: 0
Integration Time (sec): 4.000000E-1
Scans to average: 1
Nonlinearity correction enabled: false
Boxcar width: 0
Storing dark spectrum: false
XAxis mode: Wavelengths
Number of Pixels in Spectrum: 1024
>>>>>Begin Spectral Data<<<<<
801.071	27439
801.214	27321
801.356	27032
801.499	27039
801.641	26899
801.783	26925
801.926	26834
802.068	26906
802.211	26804
802.353	26765
802.496	26644
802.638	26617
802.78	26499
802.923	26469
803.065	26400
803.208	26488
803.35	26575
803.492	26705
803.635	26754
803.777	26682
803.919	26754
804.061	27039
804.204	26830
804.346	26674
804.488	26602
804.63	26785
804.773	26590
804.915	26617
805.057	26773
805.199	26564
805.341	26667
805.483	26609
805.626	26899
805.768	26693
805.91	26701
806.052	26762
806.194	26670
806.336	26880
806.478	26819
806.62	26689
806.762	26948
806.904	27089
807.046	27279
807.188	27176
807.33	27192
807.472	27291
807.614	27157
807.756	27116
807.898	27058
808.04	26929
808.182	26982
808.324	27089
808.465	27009
808.607	27367
808.749	27348
808.891	27511
809.033	27439
809.174	27519
809.316	27355
809.458	27427
809.6	27378
809.741	27462
809.883	27485
810.025	27812
810.166	27583
810.308	27656
810.45	27629
810.591	27614
810.733	27542
810.875	27416
811.016	27294
811.158	27165
811.299	27553
811.441	27473
811.582	27549
811.724	27382
811.865	27298
812.007	27382
812.148	27481
812.29	27408
812.431	27663
812.573	27644
812.714	27698
812.855	27774
812.997	27926
813.138	28090
813.279	28112
813.421	27922
813.562	27926
813.703	27751
813.845	27583
813.986	27363
814.127	27199
814.268	27051
814.41	27085
814.551	27161
814.692	27013
814.833	26937
814.974	27077
815.115	27085
815.256	26937
815.397	26902
815.539	26887
815.68	26929
815.821	26899
815.962	26918
816.103	26819
816.244	26838
816.385	26708
816.526	26636
816.666	26484
816.807	26320
816.948	26355
817.089	26484
817.23	26240
817.371	26142
817.512	26377
817.653	26248
817.793	26225
817.934	26385
818.075	26252
818.216	26377
818.356	26301
818.497	26225
818.638	26103
818.778	26062
818.919	26008
819.06	26252
819.2	26210
819.341	26275
819.481	26282
819.622	26347
819.762	26765
819.903	26568
820.043	26522
820.184	26514
820.324	26446
820.465	26518
820.605	26526
820.746	26423
820.886	26259
821.026	26461
821.167	26518
821.307	26419
821.447	26389
821.588	26286
821.728	26206
821.868	25852
822.008	25944
822.149	25807
822.289	25700
822.429	25491
822.569	25544
822.709	25510
822.849	25419
822.99	25415
823.13	25324
823.27	25148
823.41	25050
823.55	25008
823.69	25232
823.83	24909
823.97	25137
824.11	24909
824.25	24791
824.389	24856
824.529	24985
824.669	24806
824.809	25019
824.949	24981
825.089	25053
825.228	25031
825.368	24913
825.508	24753
825.648	24734
825.787	24814
825.927	24734
826.067	24875
826.206	24875
826.346	24871
826.485	24859
826.625	24757
826.765	24878
826.904	24814
827.044	24703
827.183	24684
827.323	24525
827.462	24547
827.601	24589
827.741	24620
827.88	24479
828.02	24308
828.159	24616
828.298	24525
828.437	24593
828.577	24521
828.716	24608
828.855	24422
828.994	24281
829.134	24201
829.273	24315
829.412	24057
829.551	24121
829.69	24144
829.829	24243
829.968	24270
830.107	24277
830.246	24342
830.385	24220
830.524	24319
830.663	23961
830.802	24041
830.941	23821
831.08	23828
831.219	23973
831.357	24018
831.496	24072
831.635	23904
831.774	23737
831.913	23794
832.051	23703
832.19	23551
832.329	23718
832.467	23547
832.606	23543
832.744	23486
832.883	23440
833.022	23524
833.16	23562
833.299	23573
833.437	23566
833.576	23687
833.714	23611
833.852	23684
833.991	23760
834.129	23627
834.267	23665
834.406	23718
834.544	23775
834.682	23661
834.821	23684
834.959	23726
835.097	23611
835.235	23646
835.373	23520
835.511	23668
835.65	23509
835.788	23455
835.926	23402
836.064	23166
836.202	23296
836.34	23444
836.478	23623
836.615	23436
836.753	23315
836.891	23600
837.029	23509
837.167	23379
837.305	23406
837.443	23261
837.58	23220
837.718	23501
837.856	23273
837.993	23212
838.131	23204
838.269	23121
838.406	23239
838.544	23166
838.681	22965
838.819	22976
838.956	22873
839.094	22828
839.231	22839
839.369	22942
839.506	23254
839.643	23056
839.781	22904
839.918	22755
840.055	22850
840.193	22904
840.33	22710
840.467	22618
840.604	22653
840.742	23033
840.879	22527
841.016	22493
841.153	22615
841.29	22828
841.427	22691
841.564	22725
841.701	22721
841.838	22801
841.975	22698
842.112	22713
842.249	22550
842.385	22580
842.522	22672
842.659	22645
842.796	22462
842.933	22573
843.069	22497
843.206	22424
843.343	22649
843.479	22497
843.616	22348
843.752	22287
843.889	22303
844.025	22409
844.162	22272
844.298	22402
844.435	22234
844.571	22169
844.708	22303
844.844	22413
844.98	22299
845.117	22318
845.253	22192
845.389	22101
845.525	22177
845.661	22112
845.798	22112
845.934	22032
846.07	21926
846.206	21907
846.342	22074
846.478	21998
846.614	21736
846.75	21743
846.886	21819
847.022	21770
847.158	21747
847.294	21808
847.429	21835
847.565	21724
847.701	21960
847.837	21405
847.972	21405
848.108	21572
848.244	21500
848.379	21431
848.515	21260
848.65	21359
848.786	21367
848.921	21412
849.057	21428
849.192	21492
849.328	21298
849.463	21386
849.598	21218
849.734	21245
849.869	21051
850.004	21096
850.14	21150
850.275	21131
850.41	21024
850.545	21123
850.68	21013
850.815	21138
850.95	21074
851.085	21439
851.22	21157
851.355	21062
851.49	21093
851.625	21032
851.76	21020
851.895	20963
852.03	20929
852.165	21024
852.299	21161
852.434	21161
852.569	21009
852.703	20975
852.838	21116
852.973	21222
853.107	21176
853.242	21005
853.376	20906
853.511	20819
853.645	20861
853.78	21036
853.914	20925
854.048	20929
854.183	20872
854.317	20963
854.451	21043
854.585	20914
854.72	20910
854.854	20990
854.988	20864
855.122	21013
855.256	20914
855.39	20895
855.524	20944
855.658	21043
855.792	20796
855.926	20967
856.06	20998
856.194	20887
856.327	20887
856.461	20800
856.595	20921
856.729	20762
856.862	21089
856.996	20887
857.13	21005
857.263	21020
857.397	21051
857.53	21020
857.664	20979
857.797	21020
857.931	21074
858.064	21074
858.197	21089
858.331	20902
858.464	20834
858.597	20663
858.731	20834
858.864	20868
858.997	20918
859.13	20933
859.263	20914
859.396	20899
859.529	20876
859.662	20819
859.795	20895
859.928	20762
860.061	21070
860.194	21165
860.327	20963
860.46	21100
860.592	20960
860.725	21138
860.858	21017
860.99	20929
861.123	20754
861.256	20842
861.388	20883
861.521	21701
861.653	20727
861.786	20632
861.918	20746
862.05	20887
862.183	20902
862.315	20861
862.447	20880
862.58	20800
862.712	20663
862.844	20640
862.976	20705
863.108	20712
863.24	20952
863.372	20541
863.504	20697
863.636	20587
863.768	20716
863.9	20663
864.032	20575
864.164	20511
864.296	20777
864.428	20769
864.559	20743
864.691	20739
864.823	20746
864.954	20712
865.086	20541
865.217	20602
865.349	20454
865.48	20488
865.612	20560
865.743	20629
865.875	20575
866.006	20514
866.137	20625
866.269	20514
866.4	20556
866.531	20511
866.662	20594
866.793	20358
866.924	20465
867.055	20590
867.186	20492
867.317	20530
867.448	20393
867.579	20473
867.71	20446
867.841	20488
867.972	20412
868.103	20518
868.233	20484
868.364	20370
868.495	20541
868.625	20689
868.756	20807
868.886	20727
869.017	20769
869.147	20842
869.278	20735
869.408	20739
869.539	20678
869.669	20807
869.799	20746
869.929	20864
870.06	20864
870.19	21127
870.32	21039
870.45	21142
870.58	21214
870.71	21211
870.84	21146
870.97	21127
871.1	21161
871.23	21317
871.36	21264
871.489	21306
871.619	21192
871.749	21287
871.879	21367
872.008	21424
872.138	21340
872.267	21363
872.397	21142
872.526	21214
872.656	21184
872.785	21112
872.915	21298
873.044	21447
873.173	21275
873.303	21359
873.432	21412
873.561	21469
873.69	21386
873.819	21321
873.948	21454
874.077	21325
874.206	21424
874.335	21317
874.464	21488
874.593	21443
874.722	21564
874.851	21759
874.979	21625
875.108	21713
875.237	21473
875.365	21530
875.494	21488
875.623	21667
875.751	21507
875.88	21675
876.008	21747
876.136	21804
876.265	21972
876.393	22044
876.521	22181
876.65	22029
876.778	22044
876.906	21941
877.034	21873
877.162	22002
877.29	21808
877.418	22101
877.546	21922
877.674	21865
877.802	21930
877.93	21949
878.058	21797
878.185	21709
878.313	21892
878.441	21869
878.568	21713
878.696	21869
878.824	22010
878.951	21987
879.079	22090
879.206	22325
879.333	22036
879.461	22029
879.588	22040
879.715	22074
879.842	22116
879.97	21956
880.097	21861
880.224	21694
880.351	21800
880.478	21804
880.605	21759
880.732	21637
880.859	22013
880.986	21876
881.112	21690
881.239	21637
881.366	21599
881.493	21443
881.619	21431
881.746	21435
881.872	21382
881.999	21389
882.125	21173
882.252	21389
882.378	21351
882.505	21488
882.631	21332
882.757	21138
882.883	21123
883.01	21104
883.136	21089
883.262	20979
883.388	20925
883.514	21085
883.64	20982
883.766	21116
883.892	20887
884.018	20838
884.143	21001
884.269	21081
884.395	20720
884.52	20712
884.646	20769
884.772	20583
884.897	20716
885.023	20807
885.148	20861
885.274	20811
885.399	20849
885.524	20910
885.65	20746
885.775	20712
885.9	20720
886.025	20804
886.15	20796
886.275	20739
886.4	20613
886.525	20625
886.65	20632
886.775	20689
886.9	20800
887.025	20861
887.149	20678
887.274	20484
887.399	20541
887.523	20495
887.648	20541
887.773	20511
887.897	20590
888.021	20629
888.146	20320
888.27	20511
888.395	20636
888.519	20602
888.643	20507
888.767	20590
888.891	20408
889.015	20336
889.139	20328
889.263	20240
889.387	20358
889.511	20415
889.635	20301
889.759	20210
889.883	20263
890.006	20370
890.13	20457
890.254	20256
890.377	20176
890.501	20115
890.624	20024
890.748	20027
890.871	19974
890.995	19856
891.118	19837
891.241	19887
891.364	19864
891.488	19982
891.611	19959
891.734	19921
891.857	19970
891.98	19761
892.103	19936
892.226	19887
892.349	19856
892.471	19742
892.594	19795
892.717	19791
892.839	19780
892.962	19845
893.085	19791
893.207	19799
893.33	19845
893.452	19795
893.575	19890
893.697	19791
893.819	19921
893.941	20073
894.064	19799
894.186	19594
894.308	19704
894.43	19871
894.552	19944
894.674	19883
894.796	19681
894.918	19742
895.04	19750
895.161	19951
895.283	19894
895.405	19738
895.526	19837
895.648	19826
895.769	19746
895.891	19765
896.012	19791
896.134	19951
896.255	19723
896.376	19788
896.498	19814
896.619	19818
896.74	19898
896.861	19913
896.982	20024
897.103	20218
897.224	20164
897.345	20115
897.466	20035
897.587	19970
897.708	20221
897.828	20065
897.949	19993
898.07	19887
898.19	20008
898.311	20054
898.431	20008
898.552	20005
898.672	20039
898.792	20054
898.913	20020
899.033	19986
899.153	19887
899.273	19643
899.393	19738
899.513	19906
899.633	19753
899.753	19826
899.873	19696
899.993	19814
900.113	19632
900.232	19761
900.352	19681
900.472	19586
900.591	19537
900.711	19537
900.83	19518
900.95	19746
901.069	19586
901.189	19449
901.308	19263
901.427	19065
901.546	19171
901.665	19270
901.784	19187
901.904	19057
902.023	18878
902.141	18639
902.26	18753
902.379	18711
902.498	18593
902.617	18604
902.735	18673
902.854	18658
902.973	18521
903.091	18388
903.21	18300
903.328	18315
903.446	18136
903.565	18133
903.683	18262
903.801	18060
903.919	18102
904.038	18015
904.156	17973
904.274	17992
904.392	17786
904.51	17760
904.627	17904
904.745	17863
904.863	17889
904.981	17714
905.098	17630
905.216	17600
905.334	17581
905.451	17566
905.569	17532
905.686	17615
905.803	17512
905.921	17280
906.038	17376
906.155	17414
906.272	17220
906.389	17265
906.506	17193
906.623	17189
906.74	17109
906.857	17033
906.974	17067
907.091	17200
907.208	17197
907.324	17132
907.441	17048
907.557	16938
907.674	16877
907.79	16812
907.907	16896
908.023	16900
908.139	16748
908.256	16797
908.372	16694
908.488	16710
908.604	16618
908.72	16489
908.836	16592
908.952	16531
909.068	16656
909.184	16634
909.3	16538
909.415	16558
909.531	16573
909.647	16390
909.762	16268
909.878	16280
909.993	16390
910.108	16276
910.224	16177
910.339	16162
910.454	16219
910.57	16120
910.685	15968
910.8	16276
910.915	16306
911.03	16101
911.145	15907
911.259	15846
911.374	15964
911.489	15934
911.604	15724
911.718	15614
911.833	15679
911.947	15591
912.062	15496
912.176	15572
912.291	15667
912.405	15568
912.519	15728
912.633	15835
912.748	15781
912.862	15576
912.976	15435
913.09	15306
913.204	15443
913.318	15534
913.431	15504
913.545	15481
913.659	15629
913.772	15386
913.886	15317
914	15157
914.113	15237
914.226	15294
914.34	15207
914.453	15142
914.566	15256
914.68	15173
914.793	15081
914.906	14914
915.019	14929
915.132	14781
915.245	14807
915.358	14853
915.47	14849
915.583	14918
915.696	14891
915.809	14918
915.921	15017
916.034	14792
916.146	14804
916.259	14773
916.371	14811
916.483	14830
916.595	14651
916.708	14743
916.82	14746
916.932	14659
917.044	14663
917.156	14594
917.268	14461
917.38	14598
917.491	14541
917.603	14492
917.715	14651
917.826	14594
917.938	14461
918.049	14381
918.161	14514
918.272	14629
918.384	14549
918.495	14415
918.606	14301
918.717	14142
918.828	14442
918.939	14381
919.05	14206
919.161	14195
919.272	14081
919.383	14126
919.494	14328
919.604	14518
919.715	14298
919.826	14157
919.936	14313
920.047	14275
920.157	14339
920.267	14374
920.378	14298
920.488	14088
920.598	14393
920.708	14621
920.818	14381
920.928	14351
921.038	14583
921.148	14488
921.258	14214
921.368	14126
921.477	14046
921.587	13921
921.697	13955
921.806	13932
921.916	13871
922.025	13791
922.134	13738
922.244	13586
922.353	13685
922.462	13499
922.571	13514
922.68	13278
922.789	13187
922.898	13316
923.007	13240
923.116	13392
923.224	13297
923.333	13278
923.442	13202
923.55	13122
923.659	13114
923.767	13171
923.876	13042
923.984	13133
924.092	12943
924.201	13107
924.309	13027
924.417	13023
924.525	13019
924.633	12981
924.741	13765
924.849	12776
924.956	12981
925.064	12719
925.172	12677
925.279	12650
925.387	12696
925.494	12639
925.602	12791
925.709	12856
925.816	12673
925.924	12707
926.031	12825
926.138	12662
926.245	12772
926.352	12479
926.459	12684
926.566	12734
926.673	12681
926.779	12479
926.886	12418
926.993	12418
927.099	12239
927.206	12277
927.312	12334
927.419	12323
927.525	12315
927.631	12258
927.737	12308
927.843	12190
927.95	12034
928.056	12140
928.162	12186
928.267	12133
928.373	12684
928.479	12190
928.585	11908
928.69	12072
928.796	12140
928.901	11988
929.007	11851
929.112	12007
929.218	12003
929.323	11866
929.428	11889
929.533	12022
929.638	11748
929.743	11752
929.848	11908
929.953	11798
930.058	11760
930.163	11554
930.267	11570
930.372	11653
930.477	11600
930.581	11718
930.685	11688
930.79	11463
930.894	11410
930.998	11402
931.103	11619
931.207	11181
931.311	11136
931.415	11006
931.519	10778
931.623	10774
