Data from test_V78500241_568.txt Node
Date: Fri Mar 25 15:13:48 CST 2022
User: usil
Spectrometer: V785-0024
Trigger mode: 0
Integration Time (sec): 4.000000E-1
Scans to average: 1
Nonlinearity correction enabled: false
Boxcar width: 0
Storing dark spectrum: false
XAxis mode: Wavelengths
Number of Pixels in Spectrum: 1024
>>>>>Begin Spectral Data<<<<<
801.071	26682
801.214	26670
801.356	26389
801.499	26594
801.641	26180
801.783	26278
801.926	26317
802.068	26157
802.211	26103
802.353	26043
802.496	25875
802.638	25734
802.78	25719
802.923	25719
803.065	25746
803.208	25746
803.35	25761
803.492	25811
803.635	25989
803.777	25822
803.919	25871
804.061	26214
804.204	25803
804.346	25807
804.488	25959
804.63	25887
804.773	25765
804.915	25860
805.057	25986
805.199	25913
805.341	26043
805.483	25997
805.626	26027
805.768	25913
805.91	26054
806.052	25970
806.194	25890
806.336	26172
806.478	26065
806.62	25986
806.762	26092
806.904	26225
807.046	26526
807.188	26495
807.33	26453
807.472	26427
807.614	26336
807.756	26278
807.898	26282
808.04	26187
808.182	26122
808.324	26328
808.465	26313
808.607	26484
808.749	26568
808.891	26583
809.033	26697
809.174	26655
809.316	26621
809.458	26495
809.6	26632
809.741	26708
809.883	26769
810.025	26937
810.166	26910
810.308	26796
810.45	26918
810.591	26914
810.733	26659
810.875	26689
811.016	26507
811.158	26423
811.299	26583
811.441	26739
811.582	26663
811.724	26629
811.865	26526
812.007	26465
812.148	26545
812.29	26587
812.431	26701
812.573	26857
812.714	27043
812.855	27043
812.997	27268
813.138	27325
813.279	27367
813.421	27249
813.562	27009
813.703	27001
813.845	26777
813.986	26434
814.127	26343
814.268	26324
814.41	26237
814.551	26153
814.692	26290
814.833	26180
814.974	26153
815.115	26168
815.256	26035
815.397	26149
815.539	26058
815.68	26149
815.821	26126
815.962	26092
816.103	26024
816.244	25837
816.385	25742
816.526	25738
816.666	25658
816.807	25430
816.948	25635
817.089	25635
817.23	25540
817.371	25369
817.512	25445
817.653	25518
817.793	25464
817.934	25529
818.075	25320
818.216	25586
818.356	25453
818.497	25320
818.638	25194
818.778	25198
818.919	25160
819.06	25301
819.2	25411
819.341	25449
819.481	25422
819.622	25601
819.762	25898
819.903	25704
820.043	25689
820.184	25620
820.324	25613
820.465	25750
820.605	25643
820.746	25483
820.886	25529
821.026	25563
821.167	25567
821.307	25605
821.447	25499
821.588	25419
821.728	25278
821.868	25129
822.008	24992
822.149	24920
822.289	24875
822.429	24669
822.569	24661
822.709	24547
822.849	24448
822.99	24597
823.13	24418
823.27	24407
823.41	24418
823.55	24140
823.69	24452
823.83	24350
823.97	24266
824.11	23992
824.25	23935
824.389	24045
824.529	24125
824.669	24018
824.809	24251
824.949	24262
825.089	24148
825.228	24281
825.368	23946
825.508	23889
825.648	23923
825.787	23946
825.927	23996
826.067	23935
826.206	23878
826.346	23942
826.485	23958
826.625	23901
826.765	24022
826.904	23980
827.044	23923
827.183	23745
827.323	23691
827.462	23729
827.601	23745
827.741	23680
827.88	23653
828.02	23649
828.159	23608
828.298	23760
828.437	23642
828.577	23630
828.716	23695
828.855	23661
828.994	23471
829.134	23341
829.273	23516
829.412	23471
829.551	23220
829.69	23391
829.829	23349
829.968	23421
830.107	23398
830.246	23322
830.385	23322
830.524	23250
830.663	23212
830.802	23086
830.941	22980
831.08	22889
831.219	22999
831.357	23029
831.496	23170
831.635	23029
831.774	22896
831.913	22774
832.051	22790
832.19	22748
832.329	22767
832.467	22656
832.606	22596
832.744	22508
832.883	22774
833.022	22634
833.16	22679
833.299	22748
833.437	22653
833.576	22664
833.714	22641
833.852	22778
833.991	22683
834.129	22847
834.267	22790
834.406	22763
834.544	22721
834.682	22637
834.821	22713
834.959	22908
835.097	22637
835.235	22660
835.373	22584
835.511	22630
835.65	22615
835.788	22592
835.926	22455
836.064	22352
836.202	22432
836.34	22645
836.478	22603
836.615	22561
836.753	22485
836.891	22668
837.029	22557
837.167	22592
837.305	22413
837.443	22455
837.58	22363
837.718	22493
837.856	22436
837.993	22386
838.131	22424
838.269	22348
838.406	22314
838.544	22363
838.681	22139
838.819	22021
838.956	22013
839.094	21907
839.231	22067
839.369	22105
839.506	22287
839.643	22177
839.781	21873
839.918	21903
840.055	21873
840.193	21770
840.33	21785
840.467	21831
840.604	21975
840.742	22067
840.879	21800
841.016	21679
841.153	21724
841.29	21819
841.427	21762
841.564	21823
841.701	21903
841.838	21732
841.975	21694
842.112	21671
842.249	21698
842.385	21603
842.522	21838
842.659	21561
842.796	21439
842.933	21450
843.069	21576
843.206	21603
843.343	21637
843.479	21553
843.616	21549
843.752	21405
843.889	21576
844.025	21462
844.162	21454
844.298	21420
844.435	21389
844.571	21393
844.708	21401
844.844	21481
844.98	21625
845.117	21416
845.253	21458
845.389	21256
845.525	21313
845.661	21184
845.798	21157
845.934	21180
846.07	21017
846.206	21112
846.342	21268
846.478	21195
846.614	20941
846.75	20883
846.886	20796
847.022	20971
847.158	20910
847.294	20792
847.429	20868
847.565	20876
847.701	21066
847.837	20537
847.972	20499
848.108	20727
848.244	20659
848.379	20454
848.515	20541
848.65	20423
848.786	20431
848.921	20560
849.057	20568
849.192	20560
849.328	20533
849.463	20499
849.598	20537
849.734	20389
849.869	20100
850.004	20214
850.14	20161
850.275	20278
850.41	20233
850.545	20168
850.68	20206
850.815	20176
850.95	20206
851.085	20278
851.22	20332
851.355	20271
851.49	20294
851.625	20100
851.76	20187
851.895	20180
852.03	20024
852.165	20240
852.299	20195
852.434	20286
852.569	20244
852.703	20187
852.838	20202
852.973	20366
853.107	20305
853.242	20092
853.376	20050
853.511	19936
853.645	20039
853.78	20233
853.914	20054
854.048	20092
854.183	20039
854.317	20069
854.451	20183
854.585	20058
854.72	20062
854.854	20119
854.988	20081
855.122	20012
855.256	19917
855.39	19890
855.524	20134
855.658	20077
855.792	20020
855.926	20062
856.06	20084
856.194	20115
856.327	20065
856.461	20035
856.595	20050
856.729	20073
856.862	20206
856.996	20073
857.13	19989
857.263	20256
857.397	20183
857.53	20077
857.664	20180
857.797	20153
857.931	20157
858.064	20161
858.197	20187
858.331	20271
858.464	19909
858.597	19959
858.731	20077
858.864	20050
858.997	20020
859.13	20058
859.263	19982
859.396	20195
859.529	19963
859.662	20024
859.795	20180
859.928	20043
860.061	20134
860.194	20324
860.327	20088
860.46	20134
860.592	20191
860.725	20252
860.858	20195
860.99	20081
861.123	20062
861.256	20031
861.388	20092
861.521	20944
861.653	19868
861.786	19788
861.918	19868
862.05	19974
862.183	20016
862.315	20016
862.447	20012
862.58	19890
862.712	19746
862.844	19689
862.976	19890
863.108	19864
863.24	20221
863.372	19807
863.504	19750
863.636	19731
863.768	19826
863.9	19784
864.032	19791
864.164	19658
864.296	19849
864.428	19875
864.559	19917
864.691	19982
864.823	19811
864.954	19769
865.086	19723
865.217	19559
865.349	19696
865.48	19704
865.612	19674
865.743	19906
865.875	19791
866.006	19655
866.137	19761
866.269	19624
866.4	19609
866.531	19658
866.662	19651
866.793	19651
866.924	19693
867.055	19655
867.186	19734
867.317	19578
867.448	19537
867.579	19647
867.71	19628
867.841	19502
867.972	19643
868.103	19651
868.233	19624
868.364	19624
868.495	19605
868.625	19849
868.756	20001
868.886	19826
869.017	19875
869.147	20088
869.278	20039
869.408	19921
869.539	19879
869.669	20005
869.799	19887
869.929	20024
870.06	20043
870.19	20168
870.32	20084
870.45	20134
870.58	20339
870.71	20434
870.84	20377
870.97	20267
871.1	20229
871.23	20499
871.36	20488
871.489	20389
871.619	20488
871.749	20507
871.879	20484
872.008	20674
872.138	20495
872.267	20511
872.397	20381
872.526	20256
872.656	20275
872.785	20358
872.915	20514
873.044	20606
873.173	20492
873.303	20427
873.432	20568
873.561	20663
873.69	20564
873.819	20438
873.948	20579
874.077	20518
874.206	20419
874.335	20594
874.464	20522
874.593	20777
874.722	20564
874.851	20785
874.979	20689
875.108	20880
875.237	20689
875.365	20693
875.494	20667
875.623	20876
875.751	20636
875.88	20781
876.008	20845
876.136	20880
876.265	21146
876.393	21279
876.521	21131
876.65	21207
876.778	21112
876.906	21142
877.034	21047
877.162	21017
877.29	21146
877.418	21028
877.546	21131
877.674	21077
877.802	21020
877.93	21062
878.058	21032
878.185	21013
878.313	21051
878.441	21055
878.568	20785
878.696	21237
878.824	21142
878.951	21173
879.079	21351
879.206	21355
879.333	21264
879.461	21055
879.588	21203
879.715	21272
879.842	21329
879.97	21146
880.097	21077
880.224	20967
880.351	20990
880.478	21013
880.605	20937
880.732	20880
880.859	21233
880.986	20929
881.112	20952
881.239	20705
881.366	20640
881.493	20522
881.619	20492
881.746	20469
881.872	20598
881.999	20454
882.125	20522
882.252	20560
882.378	20476
882.505	20503
882.631	20374
882.757	20347
882.883	20389
883.01	20298
883.136	20119
883.262	20119
883.388	20073
883.514	20218
883.64	20256
883.766	20134
883.892	19989
884.018	20020
884.143	20256
884.269	20271
884.395	20081
884.52	19947
884.646	19909
884.772	19719
884.897	19849
885.023	19849
885.148	20069
885.274	20081
885.399	20031
885.524	19959
885.65	19860
885.775	19883
885.9	19932
886.025	19936
886.15	19944
886.275	19818
886.4	19997
886.525	19830
886.65	19879
886.775	19723
886.9	19997
887.025	20130
887.149	19734
887.274	19689
887.399	19639
887.523	19605
887.648	19647
887.773	19537
887.897	19757
888.021	19750
888.146	19582
888.27	19761
888.395	19830
888.519	19784
888.643	19700
888.767	19666
888.891	19605
889.015	19540
889.139	19525
889.263	19426
889.387	19552
889.511	19712
889.635	19719
889.759	19335
889.883	19472
890.006	19525
890.13	19594
890.254	19426
890.377	19411
890.501	19259
890.624	19107
890.748	19240
890.871	19179
890.995	19133
891.118	19000
891.241	19118
891.364	19053
891.488	19255
891.611	19046
891.734	19076
891.857	19107
891.98	18996
892.103	19099
892.226	19137
892.349	19095
892.471	18905
892.594	18996
892.717	18928
892.839	18947
892.962	19012
893.085	19091
893.207	19027
893.33	18848
893.452	18875
893.575	19065
893.697	19015
893.819	19148
893.941	19175
894.064	19050
894.186	18916
894.308	18970
894.43	19053
894.552	19122
894.674	19179
894.796	18837
894.918	18962
895.04	18928
895.161	19148
895.283	19126
895.405	19008
895.526	19000
895.648	19065
895.769	19023
895.891	18951
896.012	19095
896.134	19114
896.255	19099
896.376	19042
896.498	19031
896.619	19129
896.74	18958
896.861	19095
896.982	19373
897.103	19521
897.224	19255
897.345	19171
897.466	19145
897.587	19289
897.708	19491
897.828	19358
897.949	19145
898.07	19015
898.19	19266
898.311	19198
898.431	19293
898.552	19209
898.672	19228
898.792	19327
898.913	19335
899.033	19213
899.153	19168
899.273	18939
899.393	19042
899.513	19053
899.633	18973
899.753	19076
899.873	19015
899.993	19110
900.113	19008
900.232	18993
900.352	19012
900.472	18821
900.591	18840
900.711	18856
900.83	18722
900.95	18951
901.069	18913
901.189	18749
901.308	18570
901.427	18395
901.546	18483
901.665	18475
901.784	18376
901.904	18205
902.023	18251
902.141	18079
902.26	18079
902.379	17992
902.498	18011
902.617	17927
902.735	18053
902.854	17996
902.973	17817
903.091	17707
903.21	17615
903.328	17581
903.446	17608
903.565	17562
903.683	17421
903.801	17334
903.919	17387
904.038	17410
904.156	17212
904.274	17364
904.392	17258
904.51	17113
904.627	17159
904.745	17261
904.863	17105
904.981	16999
905.098	16892
905.216	16854
905.334	16972
905.451	16961
905.569	16854
905.686	16949
905.803	16919
905.921	16774
906.038	16862
906.155	16835
906.272	16599
906.389	16615
906.506	16493
906.623	16546
906.74	16512
906.857	16261
906.974	16314
907.091	16592
907.208	16531
907.324	16417
907.441	16405
907.557	16173
907.674	16124
907.79	16025
907.907	16166
908.023	16211
908.139	16166
908.256	16131
908.372	15941
908.488	16044
908.604	15907
908.72	15800
908.836	15907
908.952	15903
909.068	15945
909.184	15903
909.3	15880
909.415	15918
909.531	15915
909.647	15606
909.762	15698
909.878	15587
909.993	15595
910.108	15584
910.224	15663
910.339	15584
910.454	15473
910.57	15408
910.685	15370
910.8	15675
910.915	15690
911.03	15416
911.145	15359
911.259	15249
911.374	15214
911.489	15207
911.604	15169
911.718	15036
911.833	14868
911.947	14868
912.062	14708
912.176	14967
912.291	14948
912.405	15062
912.519	15161
912.633	15036
912.748	15013
912.862	14925
912.976	14849
913.09	14689
913.204	14811
913.318	14788
913.431	14971
913.545	14941
913.659	14845
913.772	14693
913.886	14644
914	14663
914.113	14686
914.226	14724
914.34	14689
914.453	14469
914.566	14689
914.68	14438
914.793	14507
914.906	14305
915.019	14252
915.132	14202
915.245	14237
915.358	14355
915.47	14400
915.583	14214
915.696	14358
915.809	14362
915.921	14427
916.034	14214
916.146	14157
916.259	14161
916.371	14218
916.483	14218
916.595	14126
916.708	14050
916.82	14043
916.932	14062
917.044	14046
917.156	13967
917.268	14008
917.38	13845
917.491	13887
917.603	13947
917.715	13982
917.826	14031
917.938	13818
918.049	13833
918.161	13894
918.272	14039
918.384	14005
918.495	13890
918.606	13757
918.717	13727
918.828	13742
918.939	13742
919.05	13658
919.161	13639
919.272	13506
919.383	13552
919.494	13814
919.604	13894
919.715	13677
919.826	13582
919.936	13712
920.047	13807
920.157	13662
920.267	13887
920.378	13700
920.488	13696
920.598	13963
920.708	14069
920.818	13967
920.928	13890
921.038	13932
921.148	13917
921.258	13753
921.368	13567
921.477	13483
921.587	13480
921.697	13346
921.806	13426
921.916	13251
922.025	13053
922.134	13152
922.244	12977
922.353	13114
922.462	13034
922.571	12973
922.68	12795
922.789	12829
922.898	12745
923.007	12726
923.116	12738
923.224	12719
923.333	12688
923.442	12635
923.55	12544
923.659	12662
923.767	12525
923.876	12506
923.984	12627
924.092	12479
924.201	12486
924.309	12563
924.417	12551
924.525	12448
924.633	12471
924.741	13198
924.849	12220
924.956	12384
925.064	12178
925.172	12213
925.279	12273
925.387	12262
925.494	12235
925.602	12285
925.709	12258
925.816	12110
925.924	12224
926.031	12228
926.138	12197
926.245	12327
926.352	12076
926.459	12277
926.566	12235
926.673	12026
926.779	12068
926.886	11969
926.993	11828
927.099	11802
927.206	11779
927.312	11752
927.419	11802
927.525	11866
927.631	11828
927.737	11676
927.843	11748
927.95	11543
928.056	11695
928.162	11688
928.267	11634
928.373	12311
928.479	11695
928.585	11512
928.69	11627
928.796	11688
928.901	11493
929.007	11379
929.112	11539
929.218	11459
929.323	11395
929.428	11417
929.533	11547
929.638	11299
929.743	11292
929.848	11288
929.953	11326
930.058	11239
930.163	11079
930.267	11197
930.372	11235
930.477	11117
930.581	11368
930.685	11216
930.79	10968
930.894	11037
930.998	10980
931.103	11113
931.207	10786
931.311	10740
931.415	10607
931.519	10398
931.623	10375
