Data from test_V78500241_2996.txt Node
Date: Fri Mar 25 15:30:43 CST 2022
User: usil
Spectrometer: V785-0024
Trigger mode: 0
Integration Time (sec): 4.000000E-1
Scans to average: 1
Nonlinearity correction enabled: false
Boxcar width: 0
Storing dark spectrum: false
XAxis mode: Wavelengths
Number of Pixels in Spectrum: 1024
>>>>>Begin Spectral Data<<<<<
801.071	27408
801.214	27230
801.356	26994
801.499	26956
801.641	26781
801.783	26845
801.926	26876
802.068	26849
802.211	26861
802.353	26746
802.496	26670
802.638	26457
802.78	26473
802.923	26294
803.065	26259
803.208	26259
803.35	26461
803.492	26408
803.635	26568
803.777	26511
803.919	26609
804.061	26971
804.204	26545
804.346	26427
804.488	26571
804.63	26644
804.773	26503
804.915	26480
805.057	26621
805.199	26408
805.341	26648
805.483	26590
805.626	26537
805.768	26629
805.91	26815
806.052	26826
806.194	26575
806.336	26921
806.478	26686
806.62	26632
806.762	26811
806.904	26994
807.046	27199
807.188	27237
807.33	27150
807.472	27245
807.614	26971
807.756	27116
807.898	26891
808.04	26963
808.182	26762
808.324	26994
808.465	27013
808.607	27112
808.749	27279
808.891	27466
809.033	27500
809.174	27481
809.316	27332
809.458	27142
809.6	27203
809.741	27447
809.883	27488
810.025	27667
810.166	27485
810.308	27679
810.45	27545
810.591	27553
810.733	27359
810.875	27279
811.016	27218
811.158	27298
811.299	27382
811.441	27504
811.582	27507
811.724	27412
811.865	27359
812.007	27169
812.148	27447
812.29	27222
812.431	27408
812.573	27576
812.714	27713
812.855	27774
812.997	27842
813.138	27888
813.279	27907
813.421	27663
813.562	27804
813.703	27530
813.845	27549
813.986	27226
814.127	26925
814.268	27036
814.41	27062
814.551	26925
814.692	27024
814.833	26963
814.974	27039
815.115	26986
815.256	26682
815.397	26872
815.539	26823
815.68	26648
815.821	26746
815.962	26750
816.103	26796
816.244	26636
816.385	26549
816.526	26396
816.666	26347
816.807	26096
816.948	26267
817.089	26450
817.23	26351
817.371	26092
817.512	26252
817.653	26115
817.793	26183
817.934	26130
818.075	26237
818.216	26259
818.356	26195
818.497	26035
818.638	25997
818.778	26001
818.919	25982
819.06	25860
819.2	26225
819.341	26153
819.481	26221
819.622	26473
819.762	26564
819.903	26336
820.043	26423
820.184	26294
820.324	26305
820.465	26221
820.605	26347
820.746	26317
820.886	26210
821.026	26256
821.167	26294
821.307	26298
821.447	26210
821.588	26138
821.728	26050
821.868	25791
822.008	25685
822.149	25674
822.289	25658
822.429	25301
822.569	25422
822.709	25499
822.849	25232
822.99	25160
823.13	25122
823.27	25194
823.41	25008
823.55	24958
823.69	24943
823.83	25023
823.97	24913
824.11	24817
824.25	24726
824.389	24783
824.529	24901
824.669	24795
824.809	24973
824.949	24878
825.089	24795
825.228	24856
825.368	24597
825.508	24623
825.648	24597
825.787	24764
825.927	24646
826.067	24677
826.206	24593
826.346	24745
826.485	24745
826.625	24635
826.765	24856
826.904	24825
827.044	24418
827.183	24486
827.323	24262
827.462	24380
827.601	24391
827.741	24407
827.88	24471
828.02	24258
828.159	24433
828.298	24266
828.437	24399
828.577	24220
828.716	24365
828.855	24342
828.994	23988
829.134	24117
829.273	24232
829.412	23973
829.551	24038
829.69	24095
829.829	24079
829.968	24163
830.107	24121
830.246	24121
830.385	24041
830.524	23999
830.663	24034
830.802	23908
830.941	23733
831.08	23726
831.219	23764
831.357	23680
831.496	23828
831.635	23752
831.774	23585
831.913	23551
832.051	23391
832.19	23372
832.329	23554
832.467	23250
832.606	23208
832.744	23288
832.883	23356
833.022	23318
833.16	23239
833.299	23478
833.437	23353
833.576	23326
833.714	23444
833.852	23474
833.991	23448
834.129	23387
834.267	23459
834.406	23360
834.544	23387
834.682	23444
834.821	23349
834.959	23589
835.097	23402
835.235	23520
835.373	23425
835.511	23417
835.65	23204
835.788	23235
835.926	23010
836.064	23064
836.202	23071
836.34	23292
836.478	23261
836.615	23102
836.753	23208
836.891	23265
837.029	23318
837.167	23143
837.305	22968
837.443	23197
837.58	23025
837.718	23098
837.856	23178
837.993	22965
838.131	23178
838.269	22953
838.406	23010
838.544	22911
838.681	22748
838.819	22596
838.956	22641
839.094	22531
839.231	22694
839.369	22660
839.506	22961
839.643	22839
839.781	22538
839.918	22573
840.055	22500
840.193	22577
840.33	22466
840.467	22504
840.604	22523
840.742	22831
840.879	22318
841.016	22371
841.153	22405
841.29	22615
841.427	22462
841.564	22405
841.701	22527
841.838	22455
841.975	22386
842.112	22519
842.249	22287
842.385	22310
842.522	22462
842.659	22276
842.796	22223
842.933	22257
843.069	22257
843.206	22196
843.343	22318
843.479	22287
843.616	22276
843.752	22063
843.889	22055
844.025	22219
844.162	21941
844.298	22070
844.435	21953
844.571	22074
844.708	22162
844.844	22265
844.98	22112
845.117	22055
845.253	22010
845.389	22006
845.525	21884
845.661	21880
845.798	21747
845.934	21701
846.07	21736
846.206	21816
846.342	21850
846.478	21766
846.614	21561
846.75	21466
846.886	21435
847.022	21568
847.158	21447
847.294	21469
847.429	21545
847.565	21420
847.701	21701
847.837	21150
847.972	21252
848.108	21321
848.244	21252
848.379	21127
848.515	21081
848.65	21024
848.786	21173
848.921	21154
849.057	21241
849.192	21096
849.328	21169
849.463	21062
849.598	21154
849.734	21089
849.869	20994
850.004	20804
850.14	20960
850.275	20948
850.41	20781
850.545	20815
850.68	20765
850.815	20853
850.95	20925
851.085	21043
851.22	21039
851.355	20868
851.49	20826
851.625	20857
851.76	20918
851.895	20902
852.03	20811
852.165	20819
852.299	20857
852.434	20979
852.569	20948
852.703	20857
852.838	20826
852.973	20956
853.107	20990
853.242	20914
853.376	20659
853.511	20465
853.645	20644
853.78	20815
853.914	20724
854.048	20644
854.183	20587
854.317	20640
854.451	20933
854.585	20712
854.72	20590
854.854	20735
854.988	20617
855.122	20640
855.256	20568
855.39	20735
855.524	20796
855.658	20708
855.792	20746
855.926	20689
856.06	20754
856.194	20861
856.327	20667
856.461	20609
856.595	20659
856.729	20587
856.862	20705
856.996	20739
857.13	20678
857.263	20804
857.397	20785
857.53	20773
857.664	20762
857.797	20708
857.931	20830
858.064	20769
858.197	20777
858.331	20769
858.464	20587
858.597	20575
858.731	20815
858.864	20602
858.997	20655
859.13	20708
859.263	20674
859.396	20758
859.529	20640
859.662	20632
859.795	20617
859.928	20697
860.061	20899
860.194	20948
860.327	20773
860.46	20720
860.592	20853
860.725	20937
860.858	20857
860.99	20575
861.123	20568
861.256	20632
861.388	20579
861.521	21203
861.653	20568
861.786	20587
861.918	20571
862.05	20613
862.183	20629
862.315	20564
862.447	20682
862.58	20537
862.712	20476
862.844	20389
862.976	20560
863.108	20446
863.24	20895
863.372	20240
863.504	20442
863.636	20415
863.768	20537
863.9	20294
864.032	20225
864.164	20290
864.296	20480
864.428	20480
864.559	20408
864.691	20457
864.823	20301
864.954	20427
865.086	20408
865.217	20240
865.349	20164
865.48	20275
865.612	20370
865.743	20545
865.875	20275
866.006	20454
866.137	20259
866.269	20343
866.4	20252
866.531	20240
866.662	20187
866.793	20164
866.924	20138
867.055	20305
867.186	20282
867.317	20161
867.448	20161
867.579	20271
867.71	20164
867.841	20088
867.972	20225
868.103	20202
868.233	20278
868.364	20180
868.495	20347
868.625	20389
868.756	20705
868.886	20385
869.017	20609
869.147	20644
869.278	20518
869.408	20503
869.539	20419
869.669	20568
869.799	20446
869.929	20663
870.06	20629
870.19	20861
870.32	20735
870.45	20804
870.58	20899
870.71	21089
870.84	21077
870.97	20819
871.1	20998
871.23	21081
871.36	20944
871.489	20998
871.619	21066
871.749	20998
871.879	21138
872.008	21275
872.138	21047
872.267	21070
872.397	20895
872.526	20868
872.656	20876
872.785	20876
872.915	21157
873.044	21157
873.173	21058
873.303	21275
873.432	21157
873.561	21272
873.69	21176
873.819	21138
873.948	21150
874.077	21135
874.206	21119
874.335	21138
874.464	21214
874.593	21355
874.722	21325
874.851	21374
874.979	21336
875.108	21408
875.237	21336
875.365	21173
875.494	21382
875.623	21405
875.751	21283
875.88	21325
876.008	21500
876.136	21576
876.265	21766
876.393	21766
876.521	21827
876.65	21838
876.778	21736
876.906	21686
877.034	21599
877.162	21743
877.29	21766
877.418	21888
877.546	21656
877.674	21762
877.802	21679
877.93	21728
878.058	21557
878.185	21538
878.313	21595
878.441	21625
878.568	21504
878.696	21614
878.824	21705
878.951	21690
879.079	21892
879.206	21987
879.333	21865
879.461	21686
879.588	21739
879.715	21960
879.842	21960
879.97	21766
880.097	21553
880.224	21538
880.351	21542
880.478	21530
880.605	21488
880.732	21511
880.859	21770
880.986	21424
881.112	21568
881.239	21397
881.366	21199
881.493	21199
881.619	21062
881.746	21001
881.872	21169
881.999	21192
882.125	21104
882.252	21066
882.378	21116
882.505	21294
882.631	20918
882.757	20800
882.883	20815
883.01	20880
883.136	20826
883.262	20689
883.388	20644
883.514	20800
883.64	20731
883.766	20762
883.892	20663
884.018	20621
884.143	20708
884.269	20834
884.395	20442
884.52	20431
884.646	20579
884.772	20526
884.897	20412
885.023	20518
885.148	20606
885.274	20636
885.399	20560
885.524	20381
885.65	20590
885.775	20400
885.9	20362
886.025	20636
886.15	20514
886.275	20564
886.4	20362
886.525	20488
886.65	20370
886.775	20355
886.9	20606
887.025	20731
887.149	20408
887.274	20210
887.399	20221
887.523	20145
887.648	20221
887.773	20126
887.897	20358
888.021	20225
888.146	20187
888.27	20240
888.395	20412
888.519	20324
888.643	20252
888.767	20161
888.891	20058
889.015	20149
889.139	20134
889.263	20100
889.387	20248
889.511	20199
889.635	20168
889.759	20027
889.883	20005
890.006	20077
890.13	20115
890.254	19997
890.377	19875
890.501	19849
890.624	19803
890.748	19849
890.871	19655
890.995	19689
891.118	19567
891.241	19567
891.364	19696
891.488	19700
891.611	19723
891.734	19674
891.857	19632
891.98	19578
892.103	19609
892.226	19689
892.349	19685
892.471	19499
892.594	19544
892.717	19544
892.839	19495
892.962	19533
893.085	19590
893.207	19460
893.33	19434
893.452	19468
893.575	19647
893.697	19453
893.819	19769
893.941	19731
894.064	19712
894.186	19537
894.308	19472
894.43	19677
894.552	19765
894.674	19643
894.796	19487
894.918	19548
895.04	19533
895.161	19647
895.283	19639
895.405	19415
895.526	19537
895.648	19563
895.769	19521
895.891	19559
896.012	19613
896.134	19563
896.255	19559
896.376	19407
896.498	19632
896.619	19624
896.74	19491
896.861	19540
896.982	19894
897.103	20111
897.224	19772
897.345	19712
897.466	19658
897.587	19761
897.708	19932
897.828	19871
897.949	19651
898.07	19731
898.19	19647
898.311	19917
898.431	19734
898.552	19772
898.672	19879
898.792	19849
898.913	19890
899.033	19655
899.153	19571
899.273	19495
899.393	19495
899.513	19620
899.633	19632
899.753	19662
899.873	19518
899.993	19525
900.113	19563
900.232	19514
900.352	19506
900.472	19419
900.591	19266
900.711	19343
900.83	19217
900.95	19434
901.069	19377
901.189	19266
901.308	18977
901.427	18802
901.546	18951
901.665	18901
901.784	18916
901.904	18848
902.023	18726
902.141	18532
902.26	18418
902.379	18578
902.498	18475
902.617	18407
902.735	18494
902.854	18350
902.973	18445
903.091	18186
903.21	18079
903.328	17999
903.446	18034
903.565	17950
903.683	17942
903.801	17832
903.919	17935
904.038	17866
904.156	17756
904.274	17794
904.392	17733
904.51	17722
904.627	17691
904.745	17733
904.863	17691
904.981	17520
905.098	17478
905.216	17433
905.334	17452
905.451	17372
905.569	17353
905.686	17341
905.803	17315
905.921	17094
906.038	17326
906.155	17197
906.272	17098
906.389	17136
906.506	16999
906.623	16949
906.74	16942
906.857	16801
906.974	16847
907.091	16972
907.208	17037
907.324	16889
907.441	16774
907.557	16653
907.674	16744
907.79	16630
907.907	16645
908.023	16554
908.139	16611
908.256	16611
908.372	16443
908.488	16573
908.604	16451
908.72	16223
908.836	16363
908.952	16356
909.068	16360
909.184	16390
909.3	16344
909.415	16459
909.531	16379
909.647	16196
909.762	16021
909.878	15983
909.993	16036
910.108	16010
910.224	15972
910.339	15998
910.454	15922
910.57	15854
910.685	15671
910.8	15945
910.915	16044
911.03	15854
911.145	15663
911.259	15633
911.374	15690
911.489	15641
911.604	15591
911.718	15496
911.833	15485
911.947	15374
912.062	15283
912.176	15496
912.291	15454
912.405	15500
912.519	15641
912.633	15644
912.748	15454
912.862	15397
912.976	15249
913.09	15074
913.204	15184
913.318	15176
913.431	15245
913.545	15348
913.659	15214
913.772	15138
913.886	15058
914	15116
914.113	15070
914.226	15192
914.34	15074
914.453	14941
914.566	15150
914.68	14929
914.793	14963
914.906	14667
915.019	14674
915.132	14731
915.245	14518
915.358	14716
915.47	14575
915.583	14701
915.696	14693
915.809	14697
915.921	14735
916.034	14602
916.146	14549
916.259	14530
916.371	14613
916.483	14530
916.595	14568
916.708	14480
916.82	14568
916.932	14427
917.044	14503
917.156	14461
917.268	14313
917.38	14324
917.491	14328
917.603	14419
917.715	14324
917.826	14499
917.938	14221
918.049	14111
918.161	14263
918.272	14332
918.384	14305
918.495	14240
918.606	14107
918.717	14043
918.828	14225
918.939	14134
919.05	14012
919.161	14084
919.272	13845
919.383	13917
919.494	14206
919.604	14313
919.715	14138
919.826	13967
919.936	14024
920.047	14149
920.157	14027
920.267	14237
920.378	14043
920.488	14016
920.598	14229
920.708	14438
920.818	14237
920.928	14218
921.038	14389
921.148	14320
921.258	14103
921.368	13917
921.477	13811
921.587	13811
921.697	13746
921.806	13833
921.916	13712
922.025	13502
922.134	13415
922.244	13346
922.353	13491
922.462	13297
922.571	13282
922.68	13088
922.789	13038
922.898	13133
923.007	13076
923.116	13194
923.224	13141
923.333	13145
923.442	12989
923.55	13015
923.659	12981
923.767	13057
923.876	12878
923.984	13000
924.092	12916
924.201	12871
924.309	12882
924.417	12886
924.525	12825
924.633	12859
924.741	13613
924.849	12559
924.956	12787
925.064	12589
925.172	12494
925.279	12494
925.387	12506
925.494	12471
925.602	12608
925.709	12700
925.816	12483
925.924	12540
926.031	12627
926.138	12525
926.245	12620
926.352	12323
926.459	12467
926.566	12669
926.673	12399
926.779	12395
926.886	12277
926.993	12152
927.099	12194
927.206	12076
927.312	12057
927.419	12175
927.525	12114
927.631	12140
927.737	12049
927.843	12015
927.95	11912
928.056	11973
928.162	11965
928.267	12011
928.373	12593
928.479	12072
928.585	11684
928.69	11893
928.796	11908
928.901	11813
929.007	11703
929.112	11847
929.218	11809
929.323	11760
929.428	11752
929.533	11866
929.638	11665
929.743	11630
929.848	11722
929.953	11741
930.058	11539
930.163	11402
930.267	11433
930.372	11474
930.477	11376
930.581	11623
930.685	11448
930.79	11277
930.894	11307
930.998	11322
931.103	11436
931.207	11079
931.311	11048
931.415	10900
931.519	10714
931.623	10679
