Data from test_V78500241_2031.txt Node
Date: Fri Mar 25 15:24:00 CST 2022
User: usil
Spectrometer: V785-0024
Trigger mode: 0
Integration Time (sec): 4.000000E-1
Scans to average: 1
Nonlinearity correction enabled: false
Boxcar width: 0
Storing dark spectrum: false
XAxis mode: Wavelengths
Number of Pixels in Spectrum: 1024
>>>>>Begin Spectral Data<<<<<
801.071	27606
801.214	27511
801.356	27355
801.499	27329
801.641	27150
801.783	27192
801.926	27317
802.068	27142
802.211	27131
802.353	27180
802.496	27089
802.638	26830
802.78	26842
802.923	26712
803.065	26811
803.208	26861
803.35	26956
803.492	27062
803.635	26994
803.777	26857
803.919	27100
804.061	27325
804.204	27119
804.346	27039
804.488	26963
804.63	27100
804.773	26986
804.915	27017
805.057	27180
805.199	26971
805.341	27047
805.483	27214
805.626	27138
805.768	27169
805.91	27104
806.052	27188
806.194	27077
806.336	27249
806.478	27157
806.62	27279
806.762	27222
806.904	27329
807.046	27694
807.188	27530
807.33	27629
807.472	27686
807.614	27485
807.756	27629
807.898	27454
808.04	27287
808.182	27412
808.324	27477
808.465	27416
808.607	27591
808.749	27827
808.891	27903
809.033	27964
809.174	27846
809.316	27633
809.458	27876
809.6	27755
809.741	27930
809.883	27873
810.025	28070
810.166	28036
810.308	28090
810.45	27914
810.591	27975
810.733	27804
810.875	27728
811.016	27644
811.158	27603
811.299	27914
811.441	27861
811.582	27945
811.724	27717
811.865	27724
812.007	27819
812.148	27652
812.29	27778
812.431	27800
812.573	28147
812.714	28253
812.855	28276
812.997	28379
813.138	28440
813.279	28462
813.421	28185
813.562	28196
813.703	28013
813.845	27850
813.986	27804
814.127	27686
814.268	27568
814.41	27496
814.551	27370
814.692	27675
814.833	27329
814.974	27507
815.115	27359
815.256	27256
815.397	27131
815.539	27359
815.68	27230
815.821	27135
815.962	27161
816.103	27279
816.244	27116
816.385	27131
816.526	27081
816.666	26842
816.807	26754
816.948	26758
817.089	26933
817.23	26686
817.371	26845
817.512	26682
817.653	26712
817.793	26716
817.934	26625
818.075	26735
818.216	26746
818.356	26724
818.497	26602
818.638	26393
818.778	26393
818.919	26590
819.06	26511
819.2	26514
819.341	26697
819.481	26606
819.622	26807
819.762	27077
819.903	26967
820.043	26925
820.184	26853
820.324	26804
820.465	26952
820.605	26853
820.746	26773
820.886	26735
821.026	26811
821.167	26724
821.307	26899
821.447	26636
821.588	26568
821.728	26625
821.868	26339
822.008	26290
822.149	26229
822.289	26107
822.429	25947
822.569	25909
822.709	25818
822.849	25681
822.99	25765
823.13	25685
823.27	25807
823.41	25525
823.55	25620
823.69	25548
823.83	25537
823.97	25464
824.11	25403
824.25	25244
824.389	25282
824.529	25438
824.669	25388
824.809	25499
824.949	25419
825.089	25320
825.228	25556
825.368	25274
825.508	25202
825.648	25183
825.787	25289
825.927	25209
826.067	25118
826.206	25076
826.346	25179
826.485	25377
826.625	25217
826.765	25240
826.904	25175
827.044	25008
827.183	25133
827.323	24886
827.462	25080
827.601	24901
827.741	24840
827.88	25053
828.02	24844
828.159	24878
828.298	24951
828.437	24924
828.577	24806
828.716	25023
828.855	24856
828.994	24627
829.134	24612
829.273	24631
829.412	24570
829.551	24563
829.69	24578
829.829	24521
829.968	24711
830.107	24597
830.246	24544
830.385	24422
830.524	24593
830.663	24403
830.802	24353
830.941	24133
831.08	24186
831.219	24235
831.357	24327
831.496	24498
831.635	24243
831.774	24178
831.913	24201
832.051	23977
832.19	24076
832.329	24007
832.467	23920
832.606	23916
832.744	23878
832.883	23878
833.022	23996
833.16	23935
833.299	23977
833.437	23977
833.576	24091
833.714	23958
833.852	24038
833.991	23965
834.129	23996
834.267	24076
834.406	24041
834.544	24030
834.682	23988
834.821	23901
834.959	24114
835.097	24049
835.235	24171
835.373	24018
835.511	23878
835.65	23760
835.788	23813
835.926	23748
836.064	23634
836.202	23714
836.34	23828
836.478	23935
836.615	23840
836.753	23805
836.891	23851
837.029	23863
837.167	23828
837.305	23551
837.443	23596
837.58	23665
837.718	23703
837.856	23657
837.993	23577
838.131	23562
838.269	23516
838.406	23676
838.544	23440
838.681	23299
838.819	23181
838.956	23292
839.094	23220
839.231	23113
839.369	23318
839.506	23505
839.643	23288
839.781	23159
839.918	23086
840.055	23159
840.193	23098
840.33	23067
840.467	22991
840.604	23083
840.742	23292
840.879	22771
841.016	23056
841.153	22961
841.29	23189
841.427	22911
841.564	23098
841.701	23033
841.838	22942
841.975	23025
842.112	22991
842.249	22923
842.385	22782
842.522	23121
842.659	22729
842.796	22820
842.933	22759
843.069	22786
843.206	22725
843.343	22835
843.479	22733
843.616	22824
843.752	22550
843.889	22622
844.025	22824
844.162	22519
844.298	22752
844.435	22656
844.571	22557
844.708	22592
844.844	22702
844.98	22634
845.117	22778
845.253	22519
845.389	22451
845.525	22451
845.661	22428
845.798	22398
845.934	22363
846.07	22169
846.206	22352
846.342	22478
846.478	22363
846.614	22101
846.75	21964
846.886	21945
847.022	22143
847.158	22067
847.294	22078
847.429	22070
847.565	21987
847.701	22265
847.837	21797
847.972	21743
848.108	21846
848.244	21930
848.379	21751
848.515	21618
848.65	21564
848.786	21542
848.921	21785
849.057	21701
849.192	21728
849.328	21652
849.463	21633
849.598	21549
849.734	21545
849.869	21526
850.004	21469
850.14	21374
850.275	21435
850.41	21218
850.545	21313
850.68	21382
850.815	21393
850.95	21435
851.085	21583
851.22	21477
851.355	21454
851.49	21401
851.625	21393
851.76	21355
851.895	21367
852.03	21237
852.165	21386
852.299	21329
852.434	21515
852.569	21473
852.703	21401
852.838	21466
852.973	21454
853.107	21485
853.242	21348
853.376	21184
853.511	21093
853.645	21264
853.78	21321
853.914	21260
854.048	21154
854.183	21157
854.317	21336
854.451	21332
854.585	21233
854.72	21317
854.854	21378
854.988	21119
855.122	21233
855.256	21226
855.39	21195
855.524	21313
855.658	21230
855.792	21294
855.926	21256
856.06	21241
856.194	21203
856.327	21138
856.461	21249
856.595	21062
856.729	21211
856.862	21332
856.996	21222
857.13	21291
857.263	21283
857.397	21291
857.53	21249
857.664	21294
857.797	21302
857.931	21275
858.064	21355
858.197	21218
858.331	21211
858.464	21298
858.597	21188
858.731	21127
858.864	21203
858.997	21138
859.13	21260
859.263	21237
859.396	21233
859.529	21180
859.662	21252
859.795	21154
859.928	21188
860.061	21313
860.194	21370
860.327	21093
860.46	21298
860.592	21363
860.725	21401
860.858	21367
860.99	21192
861.123	21119
861.256	21237
861.388	21203
861.521	21907
861.653	21108
861.786	21112
861.918	21093
862.05	21184
862.183	20971
862.315	21268
862.447	21138
862.58	21085
862.712	20963
862.844	20861
862.976	21146
863.108	20998
863.24	21245
863.372	20956
863.504	20830
863.636	20838
863.768	21024
863.9	21039
864.032	20807
864.164	20948
864.296	20925
864.428	21055
864.559	21005
864.691	20952
864.823	20906
864.954	21028
865.086	20876
865.217	20792
865.349	20758
865.48	20826
865.612	20853
865.743	20971
865.875	20883
866.006	20834
866.137	20887
866.269	20773
866.4	20686
866.531	20788
866.662	20804
866.793	20727
866.924	20743
867.055	20785
867.186	20716
867.317	20838
867.448	20686
867.579	20686
867.71	20613
867.841	20579
867.972	20731
868.103	20758
868.233	20712
868.364	20746
868.495	20800
868.625	20952
868.756	21123
868.886	20849
869.017	21043
869.147	21150
869.278	21135
869.408	20937
869.539	20944
869.669	21066
869.799	21066
869.929	21104
870.06	21165
870.19	21272
870.32	21237
870.45	21378
870.58	21386
870.71	21557
870.84	21389
870.97	21416
871.1	21340
871.23	21568
871.36	21545
871.489	21587
871.619	21530
871.749	21637
871.879	21728
872.008	21663
872.138	21553
872.267	21667
872.397	21515
872.526	21363
872.656	21363
872.785	21378
872.915	21557
873.044	21690
873.173	21572
873.303	21652
873.432	21644
873.561	21652
873.69	21690
873.819	21511
873.948	21816
874.077	21504
874.206	21606
874.335	21523
874.464	21694
874.593	21808
874.722	21922
874.851	21823
874.979	21888
875.108	21869
875.237	21766
875.365	21812
875.494	21766
875.623	21835
875.751	21793
875.88	21861
876.008	21937
876.136	22051
876.265	22196
876.393	22371
876.521	22185
876.65	22329
876.778	22352
876.906	22253
877.034	22173
877.162	22226
877.29	22029
877.418	22044
877.546	22166
877.674	22055
877.802	22181
877.93	22211
878.058	22090
878.185	22082
878.313	22150
878.441	22070
878.568	21934
878.696	22158
878.824	22204
878.951	22158
879.079	22322
879.206	22466
879.333	22299
879.461	22238
879.588	22246
879.715	22386
879.842	22379
879.97	22303
880.097	21945
880.224	22036
880.351	22139
880.478	21983
880.605	22036
880.732	21987
880.859	22147
880.986	22006
881.112	21972
881.239	21846
881.366	21766
881.493	21667
881.619	21576
881.746	21587
881.872	21614
881.999	21481
882.125	21583
882.252	21557
882.378	21519
882.505	21701
882.631	21481
882.757	21237
882.883	21370
883.01	21283
883.136	21214
883.262	21116
883.388	21104
883.514	21241
883.64	21241
883.766	20990
883.892	21055
884.018	21108
884.143	21256
884.269	21374
884.395	21017
884.52	20880
884.646	21020
884.772	20982
884.897	20883
885.023	20994
885.148	21055
885.274	20990
885.399	21051
885.524	20872
885.65	20902
885.775	21001
885.9	20902
886.025	20986
886.15	20925
886.275	20861
886.4	20689
886.525	20910
886.65	20811
886.775	20853
886.9	21024
887.025	21131
887.149	20975
887.274	20743
887.399	20708
887.523	20670
887.648	20689
887.773	20579
887.897	20689
888.021	20655
888.146	20632
888.27	20731
888.395	20705
888.519	20754
888.643	20708
888.767	20701
888.891	20606
889.015	20476
889.139	20602
889.263	20522
889.387	20640
889.511	20701
889.635	20590
889.759	20427
889.883	20423
890.006	20446
890.13	20686
890.254	20469
890.377	20446
890.501	20202
890.624	20157
890.748	20290
890.871	20126
890.995	20058
891.118	20073
891.241	20088
891.364	20001
891.488	20202
891.611	20077
891.734	20054
891.857	20126
891.98	20149
892.103	20183
892.226	20103
892.349	20054
892.471	19906
892.594	19906
892.717	20103
892.839	19898
892.962	20084
893.085	20073
893.207	20062
893.33	19849
893.452	19837
893.575	20024
893.697	19875
893.819	20130
893.941	20119
894.064	20111
894.186	20008
894.308	19849
894.43	20073
894.552	20134
894.674	20134
894.796	19841
894.918	19944
895.04	19890
895.161	20153
895.283	19944
895.405	19906
895.526	19921
895.648	19974
895.769	20020
895.891	19963
896.012	20081
896.134	20058
896.255	19963
896.376	19974
896.498	19909
896.619	20138
896.74	20016
896.861	20100
896.982	20282
897.103	20511
897.224	20240
897.345	20161
897.466	20100
897.587	20218
897.708	20355
897.828	20180
897.949	20161
898.07	20043
898.19	20103
898.311	20183
898.431	20096
898.552	20214
898.672	20294
898.792	20237
898.913	20229
899.033	20016
899.153	19986
899.273	19871
899.393	19917
899.513	19921
899.633	19868
899.753	19902
899.873	19852
899.993	19959
900.113	19811
900.232	19940
900.352	19917
900.472	19727
900.591	19685
900.711	19761
900.83	19693
900.95	19864
901.069	19772
901.189	19586
901.308	19365
901.427	19217
901.546	19312
901.665	19324
901.784	19225
901.904	19183
902.023	19133
902.141	18901
902.26	18795
902.379	18939
902.498	18844
902.617	18684
902.735	18867
902.854	18757
902.973	18825
903.091	18589
903.21	18627
903.328	18471
903.446	18452
903.565	18273
903.683	18178
903.801	18159
903.919	18270
904.038	18232
904.156	18087
904.274	18159
904.392	18091
904.51	17942
904.627	18030
904.745	18106
904.863	18095
904.981	17843
905.098	17710
905.216	17649
905.334	17718
905.451	17783
905.569	17748
905.686	17722
905.803	17752
905.921	17509
906.038	17611
906.155	17539
906.272	17501
906.389	17501
906.506	17258
906.623	17193
906.74	17178
906.857	17071
906.974	17025
907.091	17277
907.208	17356
907.324	17239
907.441	17174
907.557	17033
907.674	17010
907.79	16949
907.907	16965
908.023	16965
908.139	16976
908.256	17018
908.372	16949
908.488	16839
908.604	16793
908.72	16763
908.836	16786
908.952	16664
909.068	16706
909.184	16805
909.3	16637
909.415	16843
909.531	16672
909.647	16394
909.762	16531
909.878	16394
909.993	16432
910.108	16405
910.224	16417
910.339	16554
910.454	16188
910.57	16268
910.685	16162
910.8	16409
910.915	16405
911.03	16284
911.145	16078
911.259	15937
911.374	16040
911.489	15983
911.604	15819
911.718	15743
911.833	15922
911.947	15732
912.062	15561
912.176	15800
912.291	15800
912.405	15705
912.519	15911
912.633	15915
912.748	15774
912.862	15751
912.976	15572
913.09	15447
913.204	15561
913.318	15671
913.431	15618
913.545	15584
913.659	15614
913.772	15523
913.886	15424
914	15351
914.113	15511
914.226	15549
914.34	15454
914.453	15294
914.566	15340
914.68	15336
914.793	15150
914.906	15009
915.019	15043
915.132	14979
915.245	15005
915.358	14979
915.47	14967
915.583	15009
915.696	15058
915.809	15051
915.921	15116
916.034	14967
916.146	14864
916.259	14883
916.371	14952
916.483	14906
916.595	14689
916.708	14902
916.82	14701
916.932	14849
917.044	14800
917.156	14750
917.268	14583
917.38	14636
917.491	14552
917.603	14686
917.715	14739
917.826	14796
917.938	14583
918.049	14514
918.161	14621
918.272	14762
918.384	14762
918.495	14621
918.606	14381
918.717	14294
918.828	14393
918.939	14408
919.05	14237
919.161	14457
919.272	14244
919.383	14298
919.494	14469
919.604	14568
919.715	14339
919.826	14244
919.936	14343
920.047	14332
920.157	14351
920.267	14556
920.378	14434
920.488	14355
920.598	14583
920.708	14686
920.818	14579
920.928	14507
921.038	14674
921.148	14632
921.258	14355
921.368	14153
921.477	14142
921.587	14088
921.697	13963
921.806	14202
921.916	14024
922.025	13772
922.134	13761
922.244	13685
922.353	13788
922.462	13655
922.571	13582
922.68	13453
922.789	13540
922.898	13514
923.007	13384
923.116	13403
923.224	13460
923.333	13365
923.442	13274
923.55	13198
923.659	13251
923.767	13255
923.876	13240
923.984	13274
924.092	13137
924.201	13213
924.309	13156
924.417	13202
924.525	13129
924.633	13080
924.741	13841
924.849	12795
924.956	13023
925.064	12859
925.172	12738
925.279	12814
925.387	12894
925.494	12837
925.602	12996
925.709	12833
925.816	12738
925.924	12817
926.031	12882
926.138	12753
926.245	12795
926.352	12654
926.459	12783
926.566	12810
926.673	12696
926.779	12631
926.886	12620
926.993	12448
927.099	12490
927.206	12365
927.312	12380
927.419	12372
927.525	12433
927.631	12407
927.737	12311
927.843	12182
927.95	12220
928.056	12178
928.162	12228
928.267	12273
928.373	12875
928.479	12353
928.585	12083
928.69	12186
928.796	12247
928.901	11984
929.007	11973
929.112	12133
929.218	11961
929.323	11988
929.428	11973
929.533	12076
929.638	11904
929.743	11920
929.848	11920
929.953	11851
930.058	11767
930.163	11676
930.267	11630
930.372	11809
930.477	11611
930.581	11821
930.685	11646
930.79	11539
930.894	11547
930.998	11520
931.103	11649
931.207	11280
931.311	11246
931.415	11113
931.519	10885
931.623	10934
