Data from test_V78500241_3289.txt Node
Date: Fri Mar 25 15:32:45 CST 2022
User: usil
Spectrometer: V785-0024
Trigger mode: 0
Integration Time (sec): 4.000000E-1
Scans to average: 1
Nonlinearity correction enabled: false
Boxcar width: 0
Storing dark spectrum: false
XAxis mode: Wavelengths
Number of Pixels in Spectrum: 1024
>>>>>Begin Spectral Data<<<<<
801.071	27321
801.214	27207
801.356	27135
801.499	27100
801.641	26838
801.783	26800
801.926	26914
802.068	26994
802.211	26712
802.353	26712
802.496	26522
802.638	26503
802.78	26480
802.923	26381
803.065	26374
803.208	26396
803.35	26480
803.492	26644
803.635	26655
803.777	26415
803.919	26883
804.061	27001
804.204	26701
804.346	26556
804.488	26560
804.63	26606
804.773	26549
804.915	26636
805.057	26735
805.199	26674
805.341	26678
805.483	26823
805.626	26724
805.768	26678
805.91	26815
806.052	26739
806.194	26773
806.336	26960
806.478	26705
806.62	26716
806.762	26986
806.904	26986
807.046	27344
807.188	27142
807.33	27138
807.472	27211
807.614	27081
807.756	27146
807.898	27020
808.04	26826
808.182	26948
808.324	27074
808.465	26925
808.607	27230
808.749	27313
808.891	27504
809.033	27580
809.174	27405
809.316	27401
809.458	27317
809.6	27245
809.741	27568
809.883	27496
810.025	27701
810.166	27587
810.308	27519
810.45	27580
810.591	27439
810.733	27310
810.875	27431
811.016	27218
811.158	27169
811.299	27408
811.441	27587
811.582	27485
811.724	27241
811.865	27279
812.007	27272
812.148	27329
812.29	27443
812.431	27435
812.573	27591
812.714	27835
812.855	27789
812.997	28036
813.138	28006
813.279	28051
813.421	27861
813.562	27686
813.703	27751
813.845	27431
813.986	27211
814.127	27096
814.268	26975
814.41	27047
814.551	27085
814.692	27085
814.833	27051
814.974	26929
815.115	26918
815.256	26982
815.397	26823
815.539	26800
815.68	26754
815.821	26655
815.962	26815
816.103	26731
816.244	26613
816.385	26526
816.526	26537
816.666	26351
816.807	26237
816.948	26434
817.089	26400
817.23	26145
817.371	26328
817.512	26305
817.653	26180
817.793	26168
817.934	26248
818.075	26332
818.216	26244
818.356	26282
818.497	26195
818.638	25966
818.778	26031
818.919	26016
819.06	26001
819.2	26145
819.341	26244
819.481	26339
819.622	26488
819.762	26750
819.903	26499
820.043	26385
820.184	26377
820.324	26301
820.465	26492
820.605	26450
820.746	26351
820.886	26218
821.026	26347
821.167	26336
821.307	26244
821.447	26282
821.588	26339
821.728	26088
821.868	25814
822.008	25765
822.149	25738
822.289	25772
822.429	25426
822.569	25388
822.709	25510
822.849	25263
822.99	25312
823.13	25179
823.27	25080
823.41	24954
823.55	24966
823.69	25145
823.83	25019
823.97	25034
824.11	24719
824.25	24772
824.389	24852
824.529	24992
824.669	24909
824.809	24928
824.949	25012
825.089	24939
825.228	24943
825.368	24616
825.508	24757
825.648	24852
825.787	24783
825.927	24730
826.067	24715
826.206	24795
826.346	24745
826.485	24894
826.625	24802
826.765	24886
826.904	24776
827.044	24521
827.183	24601
827.323	24433
827.462	24574
827.601	24559
827.741	24426
827.88	24513
828.02	24365
828.159	24384
828.298	24429
828.437	24426
828.577	24475
828.716	24528
828.855	24308
828.994	24159
829.134	24163
829.273	24125
829.412	24213
829.551	24079
829.69	24232
829.829	24266
829.968	24346
830.107	24174
830.246	24098
830.385	24178
830.524	24064
830.663	23958
830.802	23908
830.941	23832
831.08	23756
831.219	23859
831.357	23874
831.496	23984
831.635	23802
831.774	23729
831.913	23566
832.051	23444
832.19	23444
832.329	23543
832.467	23516
832.606	23421
832.744	23421
832.883	23395
833.022	23474
833.16	23596
833.299	23478
833.437	23433
833.576	23482
833.714	23547
833.852	23600
833.991	23627
834.129	23653
834.267	23634
834.406	23619
834.544	23524
834.682	23547
834.821	23516
834.959	23805
835.097	23493
835.235	23531
835.373	23478
835.511	23543
835.65	23402
835.788	23543
835.926	23227
836.064	23246
836.202	23261
836.34	23288
836.478	23459
836.615	23452
836.753	23387
836.891	23360
837.029	23497
837.167	23318
837.305	23360
837.443	23337
837.58	23189
837.718	23288
837.856	23246
837.993	23174
838.131	23307
838.269	23071
838.406	23105
838.544	23094
838.681	22877
838.819	22869
838.956	22763
839.094	22706
839.231	22687
839.369	22824
839.506	23132
839.643	22984
839.781	22675
839.918	22691
840.055	22618
840.193	22634
840.33	22637
840.467	22713
840.604	22672
840.742	23041
840.879	22485
841.016	22637
841.153	22580
841.29	22713
841.427	22615
841.564	22592
841.701	22523
841.838	22588
841.975	22584
842.112	22580
842.249	22611
842.385	22344
842.522	22569
842.659	22428
842.796	22424
842.933	22375
843.069	22436
843.206	22417
843.343	22569
843.479	22386
843.616	22489
843.752	22112
843.889	22181
844.025	22379
844.162	22169
844.298	22405
844.435	22105
844.571	22044
844.708	22249
844.844	22360
844.98	22402
845.117	22306
845.253	22116
845.389	22055
845.525	22177
845.661	22048
845.798	21907
845.934	22131
846.07	21816
846.206	21945
846.342	22101
846.478	21842
846.614	21827
846.75	21583
846.886	21656
847.022	21656
847.158	21667
847.294	21709
847.429	21652
847.565	21656
847.701	21892
847.837	21454
847.972	21370
848.108	21477
848.244	21420
848.379	21310
848.515	21233
848.65	21294
848.786	21237
848.921	21313
849.057	21435
849.192	21466
849.328	21310
849.463	21138
849.598	21203
849.734	21100
849.869	21127
850.004	21017
850.14	20963
850.275	21020
850.41	20956
850.545	21013
850.68	20944
850.815	21020
850.95	21009
851.085	21116
851.22	21184
851.355	20971
851.49	21058
851.625	21024
851.76	21070
851.895	20998
852.03	20944
852.165	20994
852.299	20994
852.434	21142
852.569	21062
852.703	21150
852.838	21020
852.973	21188
853.107	21085
853.242	20899
853.376	20842
853.511	20758
853.645	20781
853.78	20994
853.914	20876
854.048	20902
854.183	20902
854.317	20971
854.451	21017
854.585	20857
854.72	20826
854.854	20864
854.988	20769
855.122	20975
855.256	20727
855.39	20868
855.524	20990
855.658	20800
855.792	20937
855.926	20796
856.06	20834
856.194	20880
856.327	20811
856.461	20785
856.595	20914
856.729	20807
856.862	20895
856.996	20902
857.13	20861
857.263	20944
857.397	20941
857.53	20849
857.664	20941
857.797	20975
857.931	21066
858.064	20979
858.197	21096
858.331	20921
858.464	20895
858.597	20769
858.731	20895
858.864	20872
858.997	20765
859.13	20921
859.263	20838
859.396	20762
859.529	20868
859.662	20895
859.795	20861
859.928	20849
860.061	20838
860.194	21112
860.327	20929
860.46	20937
860.592	20979
860.725	21020
860.858	21036
860.99	20902
861.123	20788
861.256	20785
861.388	20876
861.521	21462
861.653	20678
861.786	20705
861.918	20693
862.05	20765
862.183	20823
862.315	20834
862.447	20750
862.58	20781
862.712	20590
862.844	20549
862.976	20674
863.108	20613
863.24	21074
863.372	20571
863.504	20598
863.636	20594
863.768	20674
863.9	20655
864.032	20552
864.164	20488
864.296	20781
864.428	20674
864.559	20648
864.691	20594
864.823	20579
864.954	20507
865.086	20423
865.217	20503
865.349	20412
865.48	20484
865.612	20526
865.743	20594
865.875	20492
866.006	20579
866.137	20400
866.269	20450
866.4	20480
866.531	20423
866.662	20343
866.793	20415
866.924	20412
867.055	20480
867.186	20454
867.317	20427
867.448	20248
867.579	20370
867.71	20347
867.841	20324
867.972	20465
868.103	20336
868.233	20438
868.364	20495
868.495	20552
868.625	20674
868.756	20796
868.886	20625
869.017	20644
869.147	20720
869.278	20785
869.408	20648
869.539	20705
869.669	20670
869.799	20720
869.929	20895
870.06	20720
870.19	20864
870.32	20853
870.45	21116
870.58	20861
870.71	21241
870.84	20975
870.97	21039
871.1	21218
871.23	21310
871.36	21260
871.489	21218
871.619	21294
871.749	21207
871.879	21252
872.008	21355
872.138	21386
872.267	21241
872.397	21116
872.526	21058
872.656	21081
872.785	21146
872.915	21329
873.044	21351
873.173	21268
873.303	21405
873.432	21488
873.561	21370
873.69	21370
873.819	21291
873.948	21443
874.077	21332
874.206	21245
874.335	21370
874.464	21507
874.593	21523
874.722	21587
874.851	21606
874.979	21507
875.108	21580
875.237	21477
875.365	21466
875.494	21458
875.623	21450
875.751	21481
875.88	21572
876.008	21686
876.136	21698
876.265	21895
876.393	21991
876.521	22166
876.65	21949
876.778	22002
876.906	21857
877.034	21865
877.162	21876
877.29	21907
877.418	21827
877.546	21838
877.674	21941
877.802	21823
877.93	21804
878.058	21850
878.185	21766
878.313	21812
878.441	21747
878.568	21743
878.696	21827
878.824	21838
878.951	22055
879.079	22032
879.206	22162
879.333	22040
879.461	21869
879.588	21979
879.715	22109
879.842	22150
879.97	21945
880.097	21690
880.224	21705
880.351	21755
880.478	21732
880.605	21720
880.732	21675
880.859	21823
880.986	21698
881.112	21736
881.239	21534
881.366	21511
881.493	21367
881.619	21298
881.746	21237
881.872	21287
881.999	21321
882.125	21275
882.252	21370
882.378	21233
882.505	21321
882.631	21180
882.757	21028
882.883	21089
883.01	21009
883.136	20998
883.262	20811
883.388	20716
883.514	20998
883.64	21081
883.766	20902
883.892	20746
884.018	20815
884.143	20838
884.269	21020
884.395	20697
884.52	20594
884.646	20758
884.772	20625
884.897	20511
885.023	20727
885.148	20777
885.274	20887
885.399	20720
885.524	20636
885.65	20731
885.775	20667
885.9	20762
886.025	20674
886.15	20868
886.275	20564
886.4	20484
886.525	20556
886.65	20438
886.775	20503
886.9	20689
887.025	20834
887.149	20655
887.274	20454
887.399	20358
887.523	20347
887.648	20377
887.773	20355
887.897	20465
888.021	20503
888.146	20396
888.27	20473
888.395	20560
888.519	20461
888.643	20469
888.767	20469
888.891	20389
889.015	20328
889.139	20240
889.263	20370
889.387	20210
889.511	20320
889.635	20366
889.759	20259
889.883	20229
890.006	20161
890.13	20324
890.254	20062
890.377	20081
890.501	19974
890.624	20088
890.748	19978
890.871	19967
890.995	19871
891.118	19723
891.241	19780
891.364	19750
891.488	19917
891.611	19757
891.734	19849
891.857	19734
891.98	19909
892.103	19761
892.226	19784
892.349	19772
892.471	19575
892.594	19738
892.717	19803
892.839	19742
892.962	19791
893.085	19734
893.207	19742
893.33	19704
893.452	19594
893.575	19742
893.697	19674
893.819	19902
893.941	19974
894.064	19811
894.186	19632
894.308	19704
894.43	19757
894.552	19849
894.674	19780
894.796	19567
894.918	19677
895.04	19601
895.161	19788
895.283	19658
895.405	19712
895.526	19727
895.648	19731
895.769	19738
895.891	19795
896.012	19757
896.134	19765
896.255	19651
896.376	19670
896.498	19578
896.619	19731
896.74	19639
896.861	19734
896.982	20142
897.103	20191
897.224	19932
897.345	19955
897.466	19845
897.587	19982
897.708	20027
897.828	19993
897.949	19887
898.07	19719
898.19	19871
898.311	20046
898.431	19799
898.552	19925
898.672	20016
898.792	20001
898.913	20065
899.033	19799
899.153	19723
899.273	19765
899.393	19772
899.513	19662
899.633	19651
899.753	19628
899.873	19639
899.993	19719
900.113	19704
900.232	19750
900.352	19563
900.472	19438
900.591	19411
900.711	19438
900.83	19453
900.95	19514
901.069	19571
901.189	19453
901.308	19194
901.427	19171
901.546	19069
901.665	19004
901.784	19004
901.904	18973
902.023	18905
902.141	18684
902.26	18540
902.379	18608
902.498	18540
902.617	18429
902.735	18479
902.854	18574
902.973	18559
903.091	18258
903.21	18258
903.328	18190
903.446	18205
903.565	18007
903.683	18068
903.801	17935
903.919	18049
904.038	17988
904.156	17752
904.274	18015
904.392	17813
904.51	17843
904.627	17684
904.745	17885
904.863	17950
904.981	17558
905.098	17512
905.216	17463
905.334	17554
905.451	17532
905.569	17387
905.686	17619
905.803	17372
905.921	17360
906.038	17387
906.155	17360
906.272	17166
906.389	17280
906.506	17048
906.623	17067
906.74	16942
906.857	16949
906.974	16942
907.091	17147
907.208	17143
907.324	16980
907.441	16889
907.557	16763
907.674	16786
907.79	16713
907.907	16748
908.023	16820
908.139	16900
908.256	16771
908.372	16698
908.488	16656
908.604	16577
908.72	16455
908.836	16584
908.952	16436
909.068	16603
909.184	16550
909.3	16550
909.415	16569
909.531	16470
909.647	16303
909.762	16097
909.878	16093
909.993	16150
910.108	16128
910.224	16158
910.339	16192
910.454	16150
910.57	16021
910.685	15941
910.8	16177
910.915	16067
911.03	16032
911.145	15854
911.259	15835
911.374	15838
911.489	15660
911.604	15720
911.718	15469
911.833	15625
911.947	15462
912.062	15485
912.176	15603
912.291	15599
912.405	15660
912.519	15812
912.633	15755
912.748	15587
912.862	15500
912.976	15283
913.09	15272
913.204	15382
913.318	15325
913.431	15420
913.545	15485
913.659	15515
913.772	15260
913.886	15268
914	15157
914.113	15230
914.226	15291
914.34	15214
914.453	15211
914.566	15211
914.68	15112
914.793	14982
914.906	14883
915.019	14830
915.132	14667
915.245	14754
915.358	14663
915.47	14861
915.583	14815
915.696	14845
915.809	14857
915.921	14910
916.034	14731
916.146	14731
916.259	14659
916.371	14746
916.483	14785
916.595	14514
916.708	14701
916.82	14705
916.932	14564
917.044	14568
917.156	14526
917.268	14438
917.38	14457
917.491	14412
917.603	14454
917.715	14499
917.826	14461
917.938	14343
918.049	14294
918.161	14385
918.272	14594
918.384	14530
918.495	14362
918.606	14305
918.717	14164
918.828	14229
918.939	14206
919.05	14157
919.161	14199
919.272	13944
919.383	14096
919.494	14195
919.604	14488
919.715	14229
919.826	14039
919.936	14161
920.047	14301
920.157	14119
920.267	14336
920.378	14259
920.488	14039
920.598	14339
920.708	14431
920.818	14210
920.928	14313
921.038	14480
921.148	14381
921.258	14164
921.368	14126
921.477	14005
921.587	13875
921.697	13799
921.806	13936
921.916	13723
922.025	13639
922.134	13552
922.244	13597
922.353	13609
922.462	13476
922.571	13441
922.68	13228
922.789	13149
922.898	13190
923.007	13194
923.116	13179
923.224	13232
923.333	13247
923.442	13069
923.55	13069
923.659	13027
923.767	13149
923.876	13015
923.984	13107
924.092	12928
924.201	12947
924.309	12970
924.417	12977
924.525	12821
924.633	12928
924.741	13818
924.849	12658
924.956	12844
925.064	12639
925.172	12673
925.279	12654
925.387	12681
925.494	12764
925.602	12726
925.709	12745
925.816	12547
925.924	12597
926.031	12650
926.138	12646
926.245	12635
926.352	12513
926.459	12646
926.566	12768
926.673	12601
926.779	12464
926.886	12380
926.993	12376
927.099	12281
927.206	12155
927.312	12190
927.419	12281
927.525	12140
927.631	12258
927.737	12171
927.843	12114
927.95	11931
928.056	12026
928.162	12053
928.267	12159
928.373	12749
928.479	12098
928.585	11954
928.69	12121
928.796	12064
928.901	11840
929.007	11813
929.112	11920
929.218	11897
929.323	11805
929.428	11828
929.533	11992
929.638	11824
929.743	11703
929.848	11771
929.953	11752
930.058	11699
930.163	11478
930.267	11532
930.372	11646
930.477	11516
930.581	11668
930.685	11490
930.79	11360
930.894	11391
930.998	11360
931.103	11440
931.207	11166
931.311	11083
931.415	10965
931.519	10797
931.623	10843
