Data from test_V78500241_434.txt Node
Date: Fri Mar 25 15:12:52 CST 2022
User: usil
Spectrometer: V785-0024
Trigger mode: 0
Integration Time (sec): 4.000000E-1
Scans to average: 1
Nonlinearity correction enabled: false
Boxcar width: 0
Storing dark spectrum: false
XAxis mode: Wavelengths
Number of Pixels in Spectrum: 1024
>>>>>Begin Spectral Data<<<<<
801.071	27252
801.214	27051
801.356	26910
801.499	26765
801.641	26663
801.783	26739
801.926	26845
802.068	26697
802.211	26720
802.353	26598
802.496	26438
802.638	26370
802.78	26313
802.923	26324
803.065	26225
803.208	26271
803.35	26339
803.492	26377
803.635	26484
803.777	26343
803.919	26594
804.061	26838
804.204	26507
804.346	26457
804.488	26328
804.63	26446
804.773	26461
804.915	26476
805.057	26663
805.199	26495
805.341	26537
805.483	26659
805.626	26530
805.768	26533
805.91	26644
806.052	26568
806.194	26541
806.336	26773
806.478	26499
806.62	26720
806.762	26743
806.904	26842
807.046	27085
807.188	27051
807.33	26975
807.472	27039
807.614	26910
807.756	26986
807.898	26773
808.04	26842
808.182	26781
808.324	26762
808.465	26705
808.607	26944
808.749	27230
808.891	27268
809.033	27386
809.174	27287
809.316	27302
809.458	27135
809.6	27077
809.741	27211
809.883	27336
810.025	27477
810.166	27439
810.308	27580
810.45	27306
810.591	27443
810.733	27165
810.875	27203
811.016	27108
811.158	27169
811.299	27325
811.441	27355
811.582	27374
811.724	27112
811.865	27066
812.007	27272
812.148	27241
812.29	27138
812.431	27344
812.573	27583
812.714	27648
812.855	27671
812.997	27698
813.138	27930
813.279	27720
813.421	27671
813.562	27781
813.703	27481
813.845	27382
813.986	27013
814.127	26940
814.268	26845
814.41	26834
814.551	26636
814.692	26838
814.833	26861
814.974	26746
815.115	26815
815.256	26568
815.397	26678
815.539	26693
815.68	26689
815.821	26549
815.962	26701
816.103	26545
816.244	26545
816.385	26347
816.526	26309
816.666	26195
816.807	25959
816.948	26065
817.089	26355
817.23	26100
817.371	26142
817.512	26157
817.653	26081
817.793	26107
817.934	26153
818.075	26149
818.216	26301
818.356	26046
818.497	26001
818.638	25750
818.778	25913
818.919	25875
819.06	25940
819.2	25947
819.341	26054
819.481	26073
819.622	26332
819.762	26526
819.903	26290
820.043	26385
820.184	26385
820.324	26180
820.465	26286
820.605	26317
820.746	26240
820.886	26058
821.026	26294
821.167	26221
821.307	26324
821.447	26069
821.588	26039
821.728	25849
821.868	25807
822.008	25476
822.149	25510
822.289	25552
822.429	25221
822.569	25304
822.709	25209
822.849	25148
822.99	25046
823.13	25050
823.27	24951
823.41	24867
823.55	24848
823.69	24856
823.83	24977
823.97	24810
824.11	24703
824.25	24658
824.389	24669
824.529	24753
824.669	24730
824.809	24897
824.949	24810
825.089	24837
825.228	24817
825.368	24623
825.508	24669
825.648	24547
825.787	24612
825.927	24646
826.067	24494
826.206	24608
826.346	24582
826.485	24654
826.625	24563
826.765	24601
826.904	24616
827.044	24323
827.183	24270
827.323	24372
827.462	24350
827.601	24292
827.741	24228
827.88	24292
828.02	24159
828.159	24174
828.298	24338
828.437	24433
828.577	24216
828.716	24452
828.855	24190
828.994	24022
829.134	23950
829.273	23977
829.412	24041
829.551	23969
829.69	23996
829.829	24076
829.968	24171
830.107	24091
830.246	24095
830.385	23901
830.524	23859
830.663	23748
830.802	23790
830.941	23638
831.08	23653
831.219	23687
831.357	23661
831.496	23916
831.635	23592
831.774	23653
831.913	23467
832.051	23417
832.19	23395
832.329	23539
832.467	23398
832.606	23258
832.744	23322
832.883	23288
833.022	23379
833.16	23280
833.299	23376
833.437	23200
833.576	23429
833.714	23436
833.852	23436
833.991	23459
834.129	23383
834.267	23486
834.406	23372
834.544	23414
834.682	23341
834.821	23368
834.959	23592
835.097	23326
835.235	23376
835.373	23269
835.511	23280
835.65	23258
835.788	23193
835.926	23052
836.064	23105
836.202	23086
836.34	23204
836.478	23353
836.615	23128
836.753	23254
836.891	23292
837.029	23204
837.167	23117
837.305	23197
837.443	23086
837.58	23098
837.718	23094
837.856	23033
837.993	23018
838.131	23090
838.269	23102
838.406	23121
838.544	22946
838.681	22778
838.819	22691
838.956	22519
839.094	22443
839.231	22634
839.369	22873
839.506	22835
839.643	22786
839.781	22516
839.918	22584
840.055	22538
840.193	22615
840.33	22523
840.467	22413
840.604	22436
840.742	22839
840.879	22398
841.016	22382
841.153	22367
841.29	22618
841.427	22432
841.564	22402
841.701	22470
841.838	22261
841.975	22333
842.112	22303
842.249	22367
842.385	22322
842.522	22409
842.659	22249
842.796	22261
842.933	22147
843.069	22154
843.206	22207
843.343	22295
843.479	22268
843.616	22284
843.752	22158
843.889	21983
844.025	22090
844.162	22070
844.298	22116
844.435	22181
844.571	21953
844.708	22051
844.844	22177
844.98	22246
845.117	22090
845.253	21964
845.389	21972
845.525	21960
845.661	21918
845.798	21808
845.934	21732
846.07	21781
846.206	21671
846.342	21819
846.478	21743
846.614	21458
846.75	21469
846.886	21469
847.022	21485
847.158	21591
847.294	21519
847.429	21599
847.565	21538
847.701	21614
847.837	21302
847.972	21313
848.108	21321
848.244	21256
848.379	21169
848.515	21077
848.65	21146
848.786	21112
848.921	21066
849.057	21176
849.192	21081
849.328	21135
849.463	21154
849.598	21074
849.734	21066
849.869	21062
850.004	20864
850.14	20872
850.275	20933
850.41	20868
850.545	20834
850.68	20807
850.815	20902
850.95	20864
851.085	21074
851.22	21119
851.355	20857
851.49	20899
851.625	20861
851.76	20727
851.895	20693
852.03	20705
852.165	20773
852.299	20906
852.434	20941
852.569	20838
852.703	20823
852.838	20944
852.973	20921
853.107	21001
853.242	20750
853.376	20819
853.511	20571
853.645	20609
853.78	20777
853.914	20735
854.048	20800
854.183	20659
854.317	20667
854.451	20906
854.585	20629
854.72	20651
854.854	20731
854.988	20670
855.122	20697
855.256	20632
855.39	20609
855.524	20724
855.658	20762
855.792	20651
855.926	20648
856.06	20625
856.194	20708
856.327	20727
856.461	20549
856.595	20678
856.729	20731
856.862	20762
856.996	20735
857.13	20727
857.263	20720
857.397	20785
857.53	20663
857.664	20648
857.797	20739
857.931	20792
858.064	20815
858.197	20754
858.331	20651
858.464	20564
858.597	20640
858.731	20659
858.864	20541
858.997	20609
859.13	20590
859.263	20815
859.396	20830
859.529	20682
859.662	20701
859.795	20777
859.928	20621
860.061	20921
860.194	20823
860.327	20746
860.46	20667
860.592	20800
860.725	20724
860.858	20743
860.99	20716
861.123	20674
861.256	20640
861.388	20663
861.521	21294
861.653	20511
861.786	20469
861.918	20552
862.05	20465
862.183	20461
862.315	20644
862.447	20602
862.58	20575
862.712	20336
862.844	20324
862.976	20587
863.108	20484
863.24	20906
863.372	20412
863.504	20431
863.636	20374
863.768	20492
863.9	20393
864.032	20336
864.164	20370
864.296	20393
864.428	20492
864.559	20488
864.691	20408
864.823	20431
864.954	20370
865.086	20412
865.217	20412
865.349	20202
865.48	20267
865.612	20294
865.743	20431
865.875	20229
866.006	20286
866.137	20263
866.269	20256
866.4	20343
866.531	20240
866.662	20172
866.793	20214
866.924	20252
867.055	20290
867.186	20237
867.317	20191
867.448	20161
867.579	20122
867.71	20191
867.841	20191
867.972	20210
868.103	20138
868.233	20320
868.364	20282
868.495	20370
868.625	20465
868.756	20735
868.886	20317
869.017	20431
869.147	20674
869.278	20651
869.408	20552
869.539	20484
869.669	20522
869.799	20526
869.929	20686
870.06	20663
870.19	20891
870.32	20636
870.45	20838
870.58	20853
870.71	20921
870.84	20872
870.97	20853
871.1	20914
871.23	21077
871.36	21047
871.489	21005
871.619	21001
871.749	21127
871.879	21165
872.008	21222
872.138	21085
872.267	21112
872.397	20944
872.526	20872
872.656	20929
872.785	20933
872.915	21135
873.044	21252
873.173	21184
873.303	21116
873.432	21055
873.561	21245
873.69	21066
873.819	20990
873.948	21142
874.077	21055
874.206	21024
874.335	21009
874.464	21157
874.593	21443
874.722	21291
874.851	21473
874.979	21348
875.108	21576
875.237	21291
875.365	21180
875.494	21245
875.623	21515
875.751	21298
875.88	21405
876.008	21511
876.136	21530
876.265	21751
876.393	21808
876.521	21876
876.65	21827
876.778	21842
876.906	21705
877.034	21701
877.162	21667
877.29	21549
877.418	21603
877.546	21690
877.674	21701
877.802	21671
877.93	21606
878.058	21545
878.185	21667
878.313	21679
878.441	21838
878.568	21553
878.696	21557
878.824	21694
878.951	21751
879.079	21789
879.206	22086
879.333	21770
879.461	21667
879.588	21823
879.715	21842
879.842	22017
879.97	21762
880.097	21698
880.224	21557
880.351	21485
880.478	21538
880.605	21500
880.732	21500
880.859	21751
880.986	21496
881.112	21485
881.239	21363
881.366	21310
881.493	21104
881.619	21135
881.746	21294
881.872	21112
881.999	21119
882.125	21039
882.252	21184
882.378	20982
882.505	21207
882.631	21032
882.757	20663
882.883	20857
883.01	20819
883.136	20804
883.262	20625
883.388	20648
883.514	20807
883.64	20667
883.766	20788
883.892	20514
884.018	20613
884.143	20644
884.269	20746
884.395	20560
884.52	20454
884.646	20473
884.772	20412
884.897	20313
885.023	20400
885.148	20541
885.274	20476
885.399	20609
885.524	20461
885.65	20438
885.775	20495
885.9	20461
886.025	20423
886.15	20473
886.275	20404
886.4	20427
886.525	20305
886.65	20362
886.775	20355
886.9	20530
887.025	20598
887.149	20469
887.274	20298
887.399	20153
887.523	20237
887.648	20195
887.773	20119
887.897	20305
888.021	20320
888.146	20187
888.27	20313
888.395	20385
888.519	20161
888.643	20248
888.767	20305
888.891	20145
889.015	20058
889.139	20187
889.263	20001
889.387	20065
889.511	20271
889.635	20195
889.759	20088
889.883	20008
890.006	20077
890.13	20142
890.254	19989
890.377	20024
890.501	19807
890.624	19693
890.748	19875
890.871	19734
890.995	19590
891.118	19491
891.241	19620
891.364	19803
891.488	19784
891.611	19689
891.734	19685
891.857	19658
891.98	19632
892.103	19643
892.226	19647
892.349	19597
892.471	19499
892.594	19510
892.717	19696
892.839	19468
892.962	19559
893.085	19693
893.207	19506
893.33	19403
893.452	19521
893.575	19567
893.697	19499
893.819	19696
893.941	19807
894.064	19696
894.186	19514
894.308	19403
894.43	19567
894.552	19696
894.674	19700
894.796	19396
894.918	19476
895.04	19449
895.161	19655
895.283	19525
895.405	19521
895.526	19476
895.648	19571
895.769	19441
895.891	19624
896.012	19677
896.134	19681
896.255	19491
896.376	19472
896.498	19635
896.619	19734
896.74	19578
896.861	19662
896.982	19879
897.103	19982
897.224	19906
897.345	19826
897.466	19712
897.587	19807
897.708	19928
897.828	19799
897.949	19765
898.07	19544
898.19	19696
898.311	19879
898.431	19689
898.552	19670
898.672	19955
898.792	19791
898.913	19769
899.033	19655
899.153	19624
899.273	19578
899.393	19514
899.513	19563
899.633	19491
899.753	19556
899.873	19419
899.993	19552
900.113	19499
900.232	19430
900.352	19457
900.472	19400
900.591	19289
900.711	19206
900.83	19282
900.95	19411
901.069	19403
901.189	19148
901.308	18977
901.427	18973
901.546	18856
901.665	18913
901.784	18867
901.904	18802
902.023	18673
902.141	18498
902.26	18460
902.379	18494
902.498	18395
902.617	18464
902.735	18490
902.854	18418
902.973	18353
903.091	18114
903.21	18102
903.328	18041
903.446	17950
903.565	17992
903.683	17882
903.801	17809
903.919	17908
904.038	17771
904.156	17726
904.274	17680
904.392	17767
904.51	17699
904.627	17532
904.745	17760
904.863	17745
904.981	17482
905.098	17349
905.216	17337
905.334	17307
905.451	17353
905.569	17303
905.686	17360
905.803	17349
905.921	17033
906.038	17258
906.155	17178
906.272	17079
906.389	17090
906.506	16938
906.623	16938
906.74	16953
906.857	16793
906.974	16771
907.091	16904
907.208	17029
907.324	16919
907.441	16774
907.557	16649
907.674	16660
907.79	16558
907.907	16565
908.023	16653
908.139	16580
908.256	16599
908.372	16622
908.488	16538
908.604	16375
908.72	16242
908.836	16344
908.952	16257
909.068	16360
909.184	16459
909.3	16337
909.415	16371
909.531	16249
909.647	16093
909.762	16021
909.878	16055
909.993	16002
910.108	16032
910.224	15968
910.339	16021
910.454	15979
910.57	15808
910.685	15835
910.8	15983
910.915	16017
911.03	15785
911.145	15728
911.259	15637
911.374	15625
911.489	15557
911.604	15587
911.718	15462
911.833	15424
911.947	15256
912.062	15222
912.176	15382
912.291	15317
912.405	15344
912.519	15599
912.633	15633
912.748	15408
912.862	15370
912.976	15245
913.09	15157
913.204	15123
913.318	15180
913.431	15317
913.545	15325
913.659	15291
913.772	15154
913.886	14982
914	14956
914.113	14998
914.226	15173
914.34	15127
914.453	14872
914.566	15127
914.68	14906
914.793	14982
914.906	14727
915.019	14754
915.132	14545
915.245	14739
915.358	14674
915.47	14750
915.583	14705
915.696	14678
915.809	14724
915.921	14731
916.034	14632
916.146	14518
916.259	14537
916.371	14640
916.483	14629
916.595	14526
916.708	14476
916.82	14488
916.932	14522
917.044	14419
917.156	14389
917.268	14343
917.38	14358
917.491	14317
917.603	14351
917.715	14347
917.826	14320
917.938	14282
918.049	14126
918.161	14263
918.272	14461
918.384	14404
918.495	14282
918.606	14107
918.717	14058
918.828	14221
918.939	14111
919.05	14020
919.161	14084
919.272	13928
919.383	13986
919.494	14077
919.604	14313
919.715	14069
919.826	13970
919.936	13993
920.047	14240
920.157	14050
920.267	14237
920.378	14172
920.488	14020
920.598	14278
920.708	14218
920.818	14240
920.928	14134
921.038	14332
921.148	14339
921.258	14065
921.368	13837
921.477	13871
921.587	13685
921.697	13791
921.806	13818
921.916	13674
922.025	13480
922.134	13453
922.244	13373
922.353	13426
922.462	13293
922.571	13339
922.68	13122
922.789	13050
922.898	13160
923.007	13107
923.116	13080
923.224	13084
923.333	13076
923.442	13000
923.55	12939
923.659	13008
923.767	13065
923.876	12947
923.984	12897
924.092	12764
924.201	12909
924.309	12878
924.417	12867
924.525	12821
924.633	12859
924.741	13681
924.849	12639
924.956	12753
925.064	12650
925.172	12437
925.279	12521
925.387	12681
925.494	12460
925.602	12589
925.709	12555
925.816	12498
925.924	12563
926.031	12582
926.138	12502
926.245	12437
926.352	12388
926.459	12517
926.566	12517
926.673	12452
926.779	12365
926.886	12323
926.993	12338
927.099	12159
927.206	12049
927.312	12148
927.419	12175
927.525	12121
927.631	12205
927.737	12015
927.843	11939
927.95	11813
928.056	11870
928.162	11916
928.267	12098
928.373	12673
928.479	12091
928.585	11798
928.69	11954
928.796	11927
928.901	11866
929.007	11661
929.112	11802
929.218	11790
929.323	11653
929.428	11733
929.533	11775
929.638	11589
929.743	11615
929.848	11642
929.953	11684
930.058	11539
930.163	11398
930.267	11387
930.372	11532
930.477	11307
930.581	11630
930.685	11433
930.79	11208
930.894	11303
930.998	11254
931.103	11364
931.207	11075
931.311	10984
931.415	10866
931.519	10748
931.623	10714
