Data from test_V78500241_114.txt Node
Date: Fri Mar 25 15:10:39 CST 2022
User: usil
Spectrometer: V785-0024
Trigger mode: 0
Integration Time (sec): 4.000000E-1
Scans to average: 1
Nonlinearity correction enabled: false
Boxcar width: 0
Storing dark spectrum: false
XAxis mode: Wavelengths
Number of Pixels in Spectrum: 1024
>>>>>Begin Spectral Data<<<<<
801.071	28059
801.214	28040
801.356	27831
801.499	27812
801.641	27637
801.783	27671
801.926	27648
802.068	27511
802.211	27580
802.353	27363
802.496	27359
802.638	27298
802.78	27161
802.923	27108
803.065	27142
803.208	27173
803.35	27100
803.492	27325
803.635	27279
803.777	27146
803.919	27233
804.061	27420
804.204	27310
804.346	27150
804.488	27116
804.63	27275
804.773	27188
804.915	27222
805.057	27127
805.199	27077
805.341	27306
805.483	27222
805.626	27211
805.768	27260
805.91	27325
806.052	27306
806.194	27203
806.336	27633
806.478	27256
806.62	27146
806.762	27317
806.904	27405
807.046	27671
807.188	27690
807.33	27542
807.472	27808
807.614	27580
807.756	27587
807.898	27618
808.04	27374
808.182	27496
808.324	27500
808.465	27420
808.607	27583
808.749	27561
808.891	27884
809.033	27964
809.174	27797
809.316	27899
809.458	27785
809.6	27717
809.741	27899
809.883	28051
810.025	28051
810.166	27934
810.308	27934
810.45	27907
810.591	27975
810.733	27698
810.875	27724
811.016	27587
811.158	27511
811.299	27652
811.441	27675
811.582	27694
811.724	27789
811.865	27564
812.007	27686
812.148	27728
812.29	27747
812.431	27968
812.573	27888
812.714	27914
812.855	28120
812.997	28337
813.138	28451
813.279	28291
813.421	28223
813.562	28181
813.703	28078
813.845	27903
813.986	27629
814.127	27435
814.268	27389
814.41	27260
814.551	27214
814.692	27405
814.833	27279
814.974	27348
815.115	27397
815.256	27165
815.397	27089
815.539	27123
815.68	27119
815.821	26990
815.962	27108
816.103	26929
816.244	27051
816.385	26929
816.526	26815
816.666	26735
816.807	26453
816.948	26450
817.089	26659
817.23	26541
817.371	26488
817.512	26495
817.653	26453
817.793	26412
817.934	26492
818.075	26415
818.216	26438
818.356	26419
818.497	26400
818.638	26149
818.778	26161
818.919	26256
819.06	26153
819.2	26225
819.341	26336
819.481	26320
819.622	26537
819.762	26773
819.903	26678
820.043	26507
820.184	26412
820.324	26499
820.465	26484
820.605	26442
820.746	26499
820.886	26256
821.026	26476
821.167	26507
821.307	26556
821.447	26442
821.588	26259
821.728	26103
821.868	25982
822.008	25776
822.149	25940
822.289	25864
822.429	25521
822.569	25563
822.709	25544
822.849	25381
822.99	25426
823.13	25320
823.27	25308
823.41	25179
823.55	24992
823.69	25042
823.83	25031
823.97	25046
824.11	24901
824.25	24795
824.389	24886
824.529	25004
824.669	24924
824.809	24840
824.949	25038
825.089	24882
825.228	24722
825.368	24795
825.508	24707
825.648	24745
825.787	24677
825.927	24817
826.067	24654
826.206	24623
826.346	24715
826.485	24722
826.625	24696
826.765	24745
826.904	24608
827.044	24490
827.183	24388
827.323	24308
827.462	24369
827.601	24464
827.741	24350
827.88	24296
828.02	24174
828.159	24060
828.298	24361
828.437	24414
828.577	24262
828.716	24452
828.855	24136
828.994	24209
829.134	24015
829.273	24194
829.412	24060
829.551	24045
829.69	24068
829.829	24076
829.968	24163
830.107	24045
830.246	24076
830.385	24022
830.524	23863
830.663	23843
830.802	23634
830.941	23581
831.08	23581
831.219	23619
831.357	23775
831.496	23813
831.635	23634
831.774	23455
831.913	23520
832.051	23383
832.19	23376
832.329	23379
832.467	23318
832.606	23174
832.744	23315
832.883	23315
833.022	23220
833.16	23223
833.299	23185
833.437	23387
833.576	23383
833.714	23258
833.852	23345
833.991	23315
834.129	23364
834.267	23273
834.406	23178
834.544	23349
834.682	23292
834.821	23220
834.959	23402
835.097	23086
835.235	23223
835.373	23231
835.511	23231
835.65	23052
835.788	23029
835.926	23033
836.064	22896
836.202	22930
836.34	23124
836.478	23124
836.615	23079
836.753	23044
836.891	23159
837.029	23132
837.167	22896
837.305	22953
837.443	22972
837.58	22930
837.718	23018
837.856	22930
837.993	22862
838.131	22934
838.269	22687
838.406	22793
838.544	22679
838.681	22596
838.819	22466
838.956	22284
839.094	22303
839.231	22398
839.369	22455
839.506	22736
839.643	22599
839.781	22405
839.918	22325
840.055	22318
840.193	22356
840.33	22238
840.467	22200
840.604	22405
840.742	22584
840.879	22101
841.016	22002
841.153	22166
841.29	22402
841.427	22249
841.564	22215
841.701	22310
841.838	22257
841.975	22029
842.112	22116
842.249	21972
842.385	21975
842.522	22211
842.659	22109
842.796	21991
842.933	21987
843.069	21983
843.206	21937
843.343	21926
843.479	21987
843.616	21979
843.752	21759
843.889	21797
844.025	21876
844.162	21599
844.298	21751
844.435	21812
844.571	21701
844.708	21736
844.844	21838
844.98	21869
845.117	21808
845.253	21709
845.389	21553
845.525	21694
845.661	21675
845.798	21458
845.934	21580
846.07	21454
846.206	21515
846.342	21439
846.478	21492
846.614	21150
846.75	21096
846.886	21165
847.022	21203
847.158	21180
847.294	21291
847.429	21195
847.565	21176
847.701	21348
847.837	20994
847.972	20777
848.108	21051
848.244	21039
848.379	20762
848.515	20651
848.65	20705
848.786	20670
848.921	20743
849.057	20788
849.192	20929
849.328	20739
849.463	20640
849.598	20720
849.734	20625
849.869	20583
850.004	20404
850.14	20499
850.275	20495
850.41	20286
850.545	20461
850.68	20400
850.815	20476
850.95	20381
851.085	20724
851.22	20579
851.355	20450
851.49	20320
851.625	20362
851.76	20385
851.895	20438
852.03	20374
852.165	20518
852.299	20374
852.434	20533
852.569	20438
852.703	20533
852.838	20434
852.973	20632
853.107	20587
853.242	20423
853.376	20328
853.511	20168
853.645	20183
853.78	20431
853.914	20256
854.048	20096
854.183	20298
854.317	20404
854.451	20389
854.585	20248
854.72	20278
854.854	20286
854.988	20218
855.122	20240
855.256	20115
855.39	20248
855.524	20240
855.658	20347
855.792	20237
855.926	20294
856.06	20301
856.194	20259
856.327	20263
856.461	20336
856.595	20221
856.729	20282
856.862	20419
856.996	20313
857.13	20267
857.263	20389
857.397	20450
857.53	20221
857.664	20278
857.797	20370
857.931	20305
858.064	20263
858.197	20404
858.331	20195
858.464	20214
858.597	20081
858.731	20138
858.864	20126
858.997	20134
859.13	20046
859.263	20244
859.396	20320
859.529	20206
859.662	20130
859.795	20145
859.928	20145
860.061	20408
860.194	20446
860.327	20229
860.46	20221
860.592	20294
860.725	20385
860.858	20301
860.99	20172
861.123	20088
861.256	20081
861.388	20191
861.521	20811
861.653	20122
861.786	19974
861.918	20027
862.05	20126
862.183	20206
862.315	20199
862.447	20377
862.58	20298
862.712	20008
862.844	19955
862.976	20054
863.108	20054
863.24	20389
863.372	19799
863.504	19871
863.636	19879
863.768	19932
863.9	19936
864.032	19731
864.164	19826
864.296	19822
864.428	20046
864.559	19890
864.691	19940
864.823	19868
864.954	19940
865.086	19761
865.217	19769
865.349	19712
865.48	19769
865.612	19776
865.743	19868
865.875	19849
866.006	19746
866.137	19947
866.269	19791
866.4	19822
866.531	19750
866.662	19693
866.793	19799
866.924	19700
867.055	19772
867.186	19811
867.317	19719
867.448	19586
867.579	19738
867.71	19559
867.841	19643
867.972	19750
868.103	19723
868.233	19738
868.364	19674
868.495	19841
868.625	20054
868.756	19963
868.886	19940
869.017	19928
869.147	20016
869.278	20180
869.408	20005
869.539	19902
869.669	19944
869.799	19925
869.929	20054
870.06	20012
870.19	20294
870.32	20271
870.45	20305
870.58	20294
870.71	20587
870.84	20419
870.97	20298
871.1	20286
871.23	20571
871.36	20598
871.489	20419
871.619	20446
871.749	20568
871.879	20644
872.008	20583
872.138	20598
872.267	20530
872.397	20454
872.526	20370
872.656	20309
872.785	20412
872.915	20583
873.044	20617
873.173	20564
873.303	20602
873.432	20617
873.561	20629
873.69	20564
873.819	20575
873.948	20712
874.077	20594
874.206	20640
874.335	20560
874.464	20777
874.593	20864
874.722	20739
874.851	20941
874.979	20895
875.108	20906
875.237	20765
875.365	20697
875.494	20724
875.623	20933
875.751	20815
875.88	20918
876.008	20880
876.136	21180
876.265	21188
876.393	21325
876.521	21424
876.65	21310
876.778	21131
876.906	21184
877.034	21138
877.162	21199
877.29	21222
877.418	21199
877.546	21306
877.674	21222
877.802	21226
877.93	21173
878.058	21100
878.185	21127
878.313	21146
878.441	21169
878.568	20929
878.696	21211
878.824	21211
878.951	21233
879.079	21310
879.206	21561
879.333	21359
879.461	21233
879.588	21237
879.715	21348
879.842	21450
879.97	21279
880.097	20895
880.224	21032
880.351	21127
880.478	20990
880.605	21039
880.732	21039
880.859	21214
880.986	21066
881.112	21154
881.239	20887
881.366	20800
881.493	20602
881.619	20644
881.746	20678
881.872	20636
881.999	20514
882.125	20530
882.252	20727
882.378	20549
882.505	20804
882.631	20560
882.757	20370
882.883	20389
883.01	20518
883.136	20419
883.262	20229
883.388	20126
883.514	20393
883.64	20434
883.766	20244
883.892	20168
884.018	20164
884.143	20267
884.269	20370
884.395	20122
884.52	20077
884.646	19951
884.772	20031
884.897	19887
885.023	20046
885.148	20092
885.274	20187
885.399	20077
885.524	20134
885.65	20020
885.775	20046
885.9	19890
886.025	20115
886.15	19989
886.275	19849
886.4	19837
886.525	19982
886.65	19917
886.775	19921
886.9	20142
887.025	20149
887.149	19906
887.274	19849
887.399	19769
887.523	19784
887.648	19731
887.773	19704
887.897	19788
888.021	19788
888.146	19700
888.27	19913
888.395	19845
888.519	19772
888.643	19753
888.767	19765
888.891	19632
889.015	19480
889.139	19571
889.263	19529
889.387	19655
889.511	19818
889.635	19632
889.759	19491
889.883	19605
890.006	19696
890.13	19700
890.254	19381
890.377	19556
890.501	19324
890.624	19297
890.748	19183
890.871	19266
890.995	19194
891.118	19156
891.241	19194
891.364	19095
891.488	19346
891.611	19133
891.734	19194
891.857	19190
891.98	19141
892.103	19221
892.226	19168
892.349	19091
892.471	19057
892.594	19012
892.717	19061
892.839	19080
892.962	18993
893.085	19065
893.207	19129
893.33	19027
893.452	19015
893.575	18996
893.697	19126
893.819	19209
893.941	19266
894.064	19160
894.186	19034
894.308	18920
894.43	19213
894.552	19118
894.674	19190
894.796	19038
894.918	19152
895.04	19061
895.161	19164
895.283	19141
895.405	19057
895.526	19148
895.648	19015
895.769	19160
895.891	19175
896.012	19137
896.134	19027
896.255	19232
896.376	19072
896.498	19198
896.619	19183
896.74	19122
896.861	19095
896.982	19445
897.103	19563
897.224	19468
897.345	19308
897.466	19312
897.587	19251
897.708	19343
897.828	19346
897.949	19255
898.07	19244
898.19	19221
898.311	19346
898.431	19206
898.552	19255
898.672	19354
898.792	19343
898.913	19282
899.033	19213
899.153	19095
899.273	19012
899.393	19122
899.513	19084
899.633	19095
899.753	19069
899.873	18981
899.993	19080
900.113	18939
900.232	19099
900.352	18913
900.472	18916
900.591	18810
900.711	18928
900.83	18859
900.95	18920
901.069	18916
901.189	18871
901.308	18547
901.427	18433
901.546	18502
901.665	18544
901.784	18536
901.904	18201
902.023	18144
902.141	18079
902.26	18019
902.379	17977
902.498	18011
902.617	17874
902.735	17973
902.854	17923
902.973	17752
903.091	17630
903.21	17756
903.328	17714
903.446	17554
903.565	17376
903.683	17566
903.801	17372
903.919	17463
904.038	17315
904.156	17231
904.274	17330
904.392	17292
904.51	17132
904.627	17185
904.745	17174
904.863	17132
904.981	17090
905.098	17083
905.216	16930
905.334	16976
905.451	16866
905.569	16774
905.686	16877
905.803	16793
905.921	16763
906.038	16763
906.155	16630
906.272	16656
906.389	16508
906.506	16447
906.623	16402
906.74	16409
906.857	16398
906.974	16265
907.091	16459
907.208	16592
907.324	16508
907.441	16284
907.557	16158
907.674	16105
907.79	16112
907.907	16128
908.023	16143
908.139	16090
908.256	16101
908.372	16021
908.488	16090
908.604	15838
908.72	15774
908.836	15770
908.952	15751
909.068	15827
909.184	15926
909.3	15800
909.415	15709
909.531	15770
909.647	15682
909.762	15534
909.878	15523
909.993	15526
910.108	15462
910.224	15462
910.339	15561
910.454	15408
910.57	15389
910.685	15218
910.8	15439
910.915	15523
911.03	15252
911.145	15154
911.259	15138
911.374	15180
911.489	14967
911.604	14925
911.718	14853
911.833	14845
911.947	14731
912.062	14689
912.176	14963
912.291	14800
912.405	14823
912.519	15013
912.633	15039
912.748	14883
912.862	14838
912.976	14727
913.09	14648
913.204	14712
913.318	14712
913.431	14686
913.545	14792
913.659	14762
913.772	14701
913.886	14625
914	14541
914.113	14617
914.226	14579
914.34	14549
914.453	14351
914.566	14606
914.68	14389
914.793	14423
914.906	14195
915.019	14149
915.132	14027
915.245	14142
915.358	14084
915.47	14161
915.583	14202
915.696	14248
915.809	14339
915.921	14332
916.034	14164
916.146	14050
916.259	14073
916.371	14107
916.483	14138
916.595	14016
916.708	13940
916.82	14039
916.932	14008
917.044	13925
917.156	13970
917.268	13879
917.38	13902
917.491	13799
917.603	13925
917.715	13860
917.826	13913
917.938	13731
918.049	13681
918.161	13822
918.272	13989
918.384	13921
918.495	13795
918.606	13712
918.717	13518
918.828	13674
918.939	13624
919.05	13540
919.161	13521
919.272	13373
919.383	13381
919.494	13590
919.604	13799
919.715	13540
919.826	13544
919.936	13601
920.047	13636
920.157	13578
920.267	13772
920.378	13537
920.488	13514
920.598	13677
920.708	13902
920.818	13696
920.928	13727
921.038	13734
921.148	13830
921.258	13510
921.368	13495
921.477	13297
921.587	13343
921.697	13145
921.806	13255
921.916	13141
922.025	13107
922.134	12985
922.244	12882
922.353	13004
922.462	12875
922.571	12810
922.68	12601
922.789	12597
922.898	12688
923.007	12563
923.116	12639
923.224	12578
923.333	12528
923.442	12403
923.55	12467
923.659	12509
923.767	12486
923.876	12361
923.984	12475
924.092	12372
924.201	12429
924.309	12350
924.417	12277
924.525	12285
924.633	12270
924.741	13061
924.849	12095
924.956	12323
925.064	12106
925.172	12022
925.279	12045
925.387	12121
925.494	12072
925.602	12186
925.709	12175
925.816	11920
925.924	12011
926.031	12106
926.138	11977
926.245	12114
926.352	11939
926.459	12098
926.566	12106
926.673	11958
926.779	11824
926.886	11832
926.993	11661
927.099	11737
927.206	11657
927.312	11684
927.419	11649
927.525	11745
927.631	11665
927.737	11543
927.843	11535
927.95	11417
928.056	11501
928.162	11463
928.267	11570
928.373	12133
928.479	11600
928.585	11360
928.69	11433
928.796	11505
928.901	11334
929.007	11239
929.112	11406
929.218	11322
929.323	11322
929.428	11124
929.533	11406
929.638	11201
929.743	11166
929.848	11269
929.953	11159
930.058	11124
930.163	10858
930.267	11048
930.372	11121
930.477	10869
930.581	11212
930.685	11037
930.79	10759
930.894	10892
930.998	10748
931.103	10957
931.207	10637
931.311	10478
931.415	10421
931.519	10200
931.623	10185
