Data from test_V78500241_1332.txt Node
Date: Fri Mar 25 15:19:07 CST 2022
User: usil
Spectrometer: V785-0024
Trigger mode: 0
Integration Time (sec): 4.000000E-1
Scans to average: 1
Nonlinearity correction enabled: false
Boxcar width: 0
Storing dark spectrum: false
XAxis mode: Wavelengths
Number of Pixels in Spectrum: 1024
>>>>>Begin Spectral Data<<<<<
801.071	28055
801.214	27895
801.356	27694
801.499	27599
801.641	27393
801.783	27504
801.926	27530
802.068	27462
802.211	27515
802.353	27386
802.496	27180
802.638	27233
802.78	27294
802.923	27222
803.065	27024
803.208	27207
803.35	27131
803.492	27180
803.635	27367
803.777	27154
803.919	27214
804.061	27709
804.204	27450
804.346	27481
804.488	27279
804.63	27386
804.773	27237
804.915	27230
805.057	27462
805.199	27336
805.341	27458
805.483	27568
805.626	27656
805.768	27340
805.91	27397
806.052	27507
806.194	27401
806.336	27671
806.478	27557
806.62	27545
806.762	27572
806.904	27778
807.046	28070
807.188	27987
807.33	27876
807.472	28059
807.614	27892
807.756	28002
807.898	27766
808.04	27656
808.182	27698
808.324	27816
808.465	27781
808.607	28116
808.749	28139
808.891	28150
809.033	28192
809.174	28135
809.316	28154
809.458	28055
809.6	28112
809.741	28169
809.883	28409
810.025	28485
810.166	28401
810.308	28451
810.45	28344
810.591	28436
810.733	28086
810.875	28196
811.016	28105
811.158	27918
811.299	28371
811.441	28295
811.582	28405
811.724	28029
811.865	28295
812.007	28082
812.148	28147
812.29	28230
812.431	28223
812.573	28512
812.714	28580
812.855	28660
812.997	28885
813.138	28854
813.279	28793
813.421	28584
813.562	28649
813.703	28664
813.845	28314
813.986	28143
814.127	28021
814.268	27975
814.41	27838
814.551	27755
814.692	27892
814.833	27884
814.974	27884
815.115	27884
815.256	27736
815.397	27831
815.539	27743
815.68	27637
815.821	27633
815.962	27774
816.103	27675
816.244	27568
816.385	27435
816.526	27348
816.666	27283
816.807	27203
816.948	27043
817.089	27313
817.23	27291
817.371	27241
817.512	27116
817.653	27157
817.793	27116
817.934	27127
818.075	27184
818.216	27336
818.356	27233
818.497	27150
818.638	26823
818.778	26948
818.919	26933
819.06	27058
819.2	26963
819.341	27024
819.481	27169
819.622	27389
819.762	27504
819.903	27500
820.043	27275
820.184	27260
820.324	27279
820.465	27348
820.605	27260
820.746	27287
820.886	27161
821.026	27157
821.167	27245
821.307	27252
821.447	27108
821.588	27070
821.728	27051
821.868	26781
822.008	26564
822.149	26598
822.289	26587
822.429	26366
822.569	26233
822.709	26305
822.849	26210
822.99	26077
823.13	26225
823.27	26092
823.41	25925
823.55	25940
823.69	25966
823.83	26046
823.97	25944
824.11	25689
824.25	25746
824.389	25757
824.529	25769
824.669	25795
824.809	25951
824.949	25822
825.089	25898
825.228	25837
825.368	25708
825.508	25609
825.648	25727
825.787	25791
825.927	25708
826.067	25765
826.206	25575
826.346	25727
826.485	25597
826.625	25563
826.765	25715
826.904	25826
827.044	25392
827.183	25506
827.323	25426
827.462	25445
827.601	25358
827.741	25339
827.88	25460
828.02	25346
828.159	25316
828.298	25415
828.437	25289
828.577	25190
828.716	25426
828.855	25312
828.994	25164
829.134	24875
829.273	25000
829.412	24935
829.551	25034
829.69	25065
829.829	25168
829.968	25145
830.107	25217
830.246	24985
830.385	24844
830.524	24951
830.663	24848
830.802	24745
830.941	24669
831.08	24597
831.219	24715
831.357	24901
831.496	24833
831.635	24578
831.774	24627
831.913	24502
832.051	24490
832.19	24376
832.329	24429
832.467	24369
832.606	24239
832.744	24235
832.883	24323
833.022	24235
833.16	24243
833.299	24399
833.437	24429
833.576	24311
833.714	24414
833.852	24448
833.991	24475
834.129	24635
834.267	24464
834.406	24441
834.544	24544
834.682	24369
834.821	24395
834.959	24730
835.097	24422
835.235	24388
835.373	24330
835.511	24327
835.65	24277
835.788	24277
835.926	24060
836.064	23958
836.202	24015
836.34	24213
836.478	24338
836.615	24205
836.753	24133
836.891	24133
837.029	24258
837.167	24121
837.305	24102
837.443	24133
837.58	24155
837.718	24083
837.856	24125
837.993	24140
838.131	24133
838.269	23999
838.406	24110
838.544	23942
838.681	23714
838.819	23771
838.956	23581
839.094	23573
839.231	23653
839.369	23718
839.506	23969
839.643	23714
839.781	23680
839.918	23604
840.055	23585
840.193	23539
840.33	23433
840.467	23414
840.604	23421
840.742	23821
840.879	23280
841.016	23395
841.153	23429
841.29	23516
841.427	23448
841.564	23436
841.701	23444
841.838	23391
841.975	23387
842.112	23269
842.249	23273
842.385	23189
842.522	23471
842.659	23239
842.796	23200
842.933	23254
843.069	23143
843.206	23162
843.343	23200
843.479	23155
843.616	23242
843.752	23006
843.889	22904
844.025	23159
844.162	23147
844.298	23003
844.435	22961
844.571	22965
844.708	23090
844.844	23098
844.98	23216
845.117	23140
845.253	22866
845.389	22873
845.525	22835
845.661	22828
845.798	22744
845.934	22862
846.07	22706
846.206	22736
846.342	22793
846.478	22763
846.614	22470
846.75	22451
846.886	22409
847.022	22588
847.158	22417
847.294	22535
847.429	22462
847.565	22409
847.701	22740
847.837	22135
847.972	22173
848.108	22173
848.244	22382
848.379	22059
848.515	21998
848.65	21987
848.786	21953
848.921	21960
849.057	22196
849.192	22055
849.328	22078
849.463	22067
849.598	22048
849.734	21869
849.869	21899
850.004	21937
850.14	21709
850.275	21793
850.41	21709
850.545	21675
850.68	21793
850.815	21831
850.95	21804
851.085	22010
851.22	21941
851.355	21922
851.49	21816
851.625	21732
851.76	21831
851.895	21778
852.03	21667
852.165	21808
852.299	21789
852.434	21846
852.569	21793
852.703	21637
852.838	21873
852.973	21979
853.107	21937
853.242	21880
853.376	21709
853.511	21408
853.645	21568
853.78	21732
853.914	21728
854.048	21500
854.183	21591
854.317	21694
854.451	21797
854.585	21610
854.72	21572
854.854	21713
854.988	21492
855.122	21618
855.256	21549
855.39	21660
855.524	21770
855.658	21679
855.792	21595
855.926	21477
856.06	21580
856.194	21648
856.327	21648
856.461	21477
856.595	21545
856.729	21538
856.862	21743
856.996	21641
857.13	21686
857.263	21812
857.397	21816
857.53	21606
857.664	21739
857.797	21599
857.931	21629
858.064	21819
858.197	21618
858.331	21519
858.464	21500
858.597	21526
858.731	21557
858.864	21583
858.997	21561
859.13	21663
859.263	21614
859.396	21667
859.529	21564
859.662	21466
859.795	21564
859.928	21576
860.061	21667
860.194	21793
860.327	21675
860.46	21701
860.592	21717
860.725	21755
860.858	21789
860.99	21709
861.123	21553
861.256	21469
861.388	21701
861.521	22329
861.653	21553
861.786	21283
861.918	21500
862.05	21492
862.183	21496
862.315	21553
862.447	21561
862.58	21553
862.712	21367
862.844	21351
862.976	21332
863.108	21382
863.24	21698
863.372	21256
863.504	21264
863.636	21332
863.768	21405
863.9	21283
864.032	21321
864.164	21329
864.296	21378
864.428	21443
864.559	21386
864.691	21332
864.823	21298
864.954	21340
865.086	21313
865.217	21226
865.349	21195
865.48	21302
865.612	21241
865.743	21336
865.875	21226
866.006	21123
866.137	21176
866.269	21180
866.4	21142
866.531	21066
866.662	21207
866.793	21218
866.924	21112
867.055	21214
867.186	21192
867.317	21207
867.448	21062
867.579	20982
867.71	21138
867.841	21112
867.972	21062
868.103	21245
868.233	21184
868.364	21173
868.495	21214
868.625	21359
868.756	21412
868.886	21317
869.017	21378
869.147	21458
869.278	21519
869.408	21329
869.539	21397
869.669	21447
869.799	21378
869.929	21572
870.06	21519
870.19	21656
870.32	21625
870.45	21755
870.58	21720
870.71	21766
870.84	21831
870.97	21743
871.1	21907
871.23	22059
871.36	22017
871.489	21956
871.619	21922
871.749	21865
871.879	22124
872.008	22093
872.138	21979
872.267	21994
872.397	21949
872.526	21835
872.656	21846
872.785	21793
872.915	22082
873.044	22044
873.173	22002
873.303	22059
873.432	22074
873.561	22101
873.69	22032
873.819	21850
873.948	21983
874.077	21956
874.206	21945
874.335	22059
874.464	22013
874.593	22173
874.722	22226
874.851	22147
874.979	22322
875.108	22325
875.237	22280
875.365	22059
875.494	22158
875.623	22272
875.751	22265
875.88	22219
876.008	22211
876.136	22413
876.265	22630
876.393	22771
876.521	22729
876.65	22573
876.778	22546
876.906	22580
877.034	22523
877.162	22466
877.29	22443
877.418	22607
877.546	22523
877.674	22512
877.802	22500
877.93	22432
878.058	22474
878.185	22455
878.313	22519
878.441	22641
878.568	22295
878.696	22341
878.824	22599
878.951	22653
879.079	22771
879.206	22744
879.333	22710
879.461	22618
879.588	22656
879.715	22641
879.842	22881
879.97	22603
880.097	22299
880.224	22379
880.351	22455
880.478	22432
880.605	22230
880.732	22325
880.859	22577
880.986	22234
881.112	22459
881.239	22310
881.366	22078
881.493	22021
881.619	21979
881.746	21975
881.872	22086
881.999	21831
882.125	21960
882.252	22040
882.378	21949
882.505	22086
882.631	21785
882.757	21762
882.883	21785
883.01	21667
883.136	21663
883.262	21488
883.388	21481
883.514	21682
883.64	21690
883.766	21496
883.892	21420
884.018	21431
884.143	21568
884.269	21625
884.395	21374
884.52	21302
884.646	21264
884.772	21199
884.897	21161
885.023	21310
885.148	21306
885.274	21264
885.399	21363
885.524	21203
885.65	21412
885.775	21283
885.9	21199
886.025	21310
886.15	21249
886.275	21287
886.4	21207
886.525	21321
886.65	21188
886.775	21195
886.9	21344
887.025	21485
887.149	21222
887.274	21066
887.399	20971
887.523	20963
887.648	20937
887.773	20895
887.897	21131
888.021	21100
888.146	21112
888.27	21123
888.395	21055
888.519	21154
888.643	21032
888.767	21024
888.891	20895
889.015	20811
889.139	20921
889.263	20739
889.387	21066
889.511	21070
889.635	20914
889.759	20807
889.883	20883
890.006	20849
890.13	20864
890.254	20792
890.377	20674
890.501	20503
890.624	20480
890.748	20697
890.871	20533
890.995	20408
891.118	20419
891.241	20366
891.364	20484
891.488	20431
891.611	20366
891.734	20412
891.857	20404
891.98	20446
892.103	20431
892.226	20393
892.349	20339
892.471	20145
892.594	20313
892.717	20317
892.839	20347
892.962	20339
893.085	20278
893.207	20244
893.33	20199
893.452	20263
893.575	20282
893.697	20336
893.819	20492
893.941	20518
894.064	20476
894.186	20294
894.308	20237
894.43	20446
894.552	20469
894.674	20412
894.796	20122
894.918	20267
895.04	20191
895.161	20377
895.283	20229
895.405	20259
895.526	20358
895.648	20267
895.769	20355
895.891	20476
896.012	20377
896.134	20324
896.255	20271
896.376	20317
896.498	20301
896.619	20309
896.74	20343
896.861	20282
896.982	20598
897.103	20720
897.224	20530
897.345	20560
897.466	20438
897.587	20621
897.708	20590
897.828	20598
897.949	20423
898.07	20309
898.19	20492
898.311	20530
898.431	20457
898.552	20530
898.672	20724
898.792	20579
898.913	20613
899.033	20244
899.153	20298
899.273	20195
899.393	20267
899.513	20374
899.633	20332
899.753	20271
899.873	20157
899.993	20248
900.113	20237
900.232	20233
900.352	20180
900.472	20081
900.591	19993
900.711	20020
900.83	20077
900.95	20073
901.069	20043
901.189	19811
901.308	19628
901.427	19609
901.546	19674
901.665	19666
901.784	19597
901.904	19441
902.023	19419
902.141	19190
902.26	19110
902.379	19228
902.498	19118
902.617	19175
902.735	19114
902.854	19110
902.973	19053
903.091	18772
903.21	18844
903.328	18776
903.446	18703
903.565	18555
903.683	18608
903.801	18509
903.919	18570
904.038	18479
904.156	18448
904.274	18429
904.392	18315
904.51	18296
904.627	18296
904.745	18433
904.863	18426
904.981	18346
905.098	18121
905.216	18095
905.334	18087
905.451	18125
905.569	18072
905.686	18045
905.803	17885
905.921	17874
906.038	17878
906.155	17889
906.272	17756
906.389	17722
906.506	17474
906.623	17585
906.74	17512
906.857	17482
906.974	17516
907.091	17676
907.208	17642
907.324	17589
907.441	17547
907.557	17299
907.674	17254
907.79	17193
907.907	17174
908.023	17322
908.139	17326
908.256	17258
908.372	17204
908.488	17223
908.604	17170
908.72	17060
908.836	16984
908.952	17094
909.068	17033
909.184	17147
909.3	16934
909.415	17083
909.531	16900
909.647	16767
909.762	16706
909.878	16729
909.993	16797
910.108	16615
910.224	16599
910.339	16710
910.454	16630
910.57	16569
910.685	16481
910.8	16679
910.915	16656
911.03	16542
911.145	16402
911.259	16257
911.374	16238
911.489	16105
911.604	16242
911.718	16044
911.833	16063
911.947	15983
912.062	15823
912.176	15987
912.291	16010
912.405	15873
912.519	16246
912.633	16280
912.748	16090
912.862	16017
912.976	15934
913.09	15785
913.204	15682
913.318	15945
913.431	15987
913.545	15949
913.659	15968
913.772	15911
913.886	15629
914	15713
914.113	15739
914.226	15850
914.34	15667
914.453	15500
914.566	15568
914.68	15519
914.793	15389
914.906	15382
915.019	15283
915.132	15123
915.245	15287
915.358	15245
915.47	15268
915.583	15119
915.696	15218
915.809	15405
915.921	15348
916.034	15142
916.146	15062
916.259	15203
916.371	15203
916.483	15169
916.595	15062
916.708	15028
916.82	15112
916.932	15123
917.044	15119
917.156	15001
917.268	14826
917.38	14967
917.491	14937
917.603	14929
917.715	14948
917.826	14975
917.938	14830
918.049	14788
918.161	14834
918.272	14948
918.384	14941
918.495	14781
918.606	14697
918.717	14659
918.828	14674
918.939	14651
919.05	14552
919.161	14625
919.272	14461
919.383	14480
919.494	14663
919.604	14823
919.715	14632
919.826	14431
919.936	14594
920.047	14689
920.157	14632
920.267	14731
920.378	14659
920.488	14636
920.598	14781
920.708	14876
920.818	14796
920.928	14670
921.038	14982
921.148	14910
921.258	14514
921.368	14568
921.477	14282
921.587	14343
921.697	14221
921.806	14389
921.916	14221
922.025	14077
922.134	14069
922.244	13986
922.353	13982
922.462	13936
922.571	13845
922.68	13636
922.789	13636
922.898	13704
923.007	13655
923.116	13666
923.224	13620
923.333	13552
923.442	13499
923.55	13521
923.659	13537
923.767	13483
923.876	13396
923.984	13460
924.092	13301
924.201	13419
924.309	13403
924.417	13396
924.525	13339
924.633	13316
924.741	14225
924.849	13133
924.956	13247
925.064	13091
925.172	13061
925.279	13008
925.387	13004
925.494	13080
925.602	13202
925.709	13061
925.816	12863
925.924	13080
926.031	13053
926.138	13072
926.245	13084
926.352	12924
926.459	13034
926.566	13084
926.673	12935
926.779	12833
926.886	12825
926.993	12658
927.099	12517
927.206	12585
927.312	12578
927.419	12726
927.525	12559
927.631	12585
927.737	12555
927.843	12471
927.95	12334
928.056	12414
928.162	12422
928.267	12509
928.373	13076
928.479	12544
928.585	12304
928.69	12422
928.796	12479
928.901	12346
929.007	12129
929.112	12277
929.218	12243
929.323	12182
929.428	12201
929.533	12273
929.638	12102
929.743	12102
929.848	12175
929.953	12083
930.058	11969
930.163	11824
930.267	11737
930.372	11916
930.477	11824
930.581	12087
930.685	11870
930.79	11703
930.894	11741
930.998	11764
931.103	11847
931.207	11490
931.311	11417
931.415	11341
931.519	11079
931.623	11052
