Data from test_V78500241_1894.txt Node
Date: Fri Mar 25 15:23:02 CST 2022
User: usil
Spectrometer: V785-0024
Trigger mode: 0
Integration Time (sec): 4.000000E-1
Scans to average: 1
Nonlinearity correction enabled: false
Boxcar width: 0
Storing dark spectrum: false
XAxis mode: Wavelengths
Number of Pixels in Spectrum: 1024
>>>>>Begin Spectral Data<<<<<
801.071	27781
801.214	27778
801.356	27625
801.499	27344
801.641	27370
801.783	27252
801.926	27222
802.068	27332
802.211	27367
802.353	27150
802.496	26994
802.638	26994
802.78	26986
802.923	26914
803.065	26906
803.208	26842
803.35	26940
803.492	27138
803.635	27116
803.777	27013
803.919	27039
804.061	27618
804.204	27150
804.346	27329
804.488	27173
804.63	27131
804.773	27074
804.915	27020
805.057	27249
805.199	27184
805.341	27272
805.483	27176
805.626	27268
805.768	27184
805.91	27184
806.052	27203
806.194	27165
806.336	27454
806.478	27336
806.62	27252
806.762	27427
806.904	27545
807.046	27968
807.188	27686
807.33	27724
807.472	27717
807.614	27576
807.756	27614
807.898	27652
808.04	27549
808.182	27458
808.324	27663
808.465	27622
808.607	27732
808.749	27850
808.891	28105
809.033	27987
809.174	28010
809.316	27789
809.458	27964
809.6	27854
809.741	27991
809.883	28230
810.025	28215
810.166	28032
810.308	28204
810.45	28181
810.591	28158
810.733	27972
810.875	27739
811.016	27781
811.158	27755
811.299	27964
811.441	28063
811.582	28032
811.724	27998
811.865	27941
812.007	27968
812.148	27804
812.29	28036
812.431	28055
812.573	28230
812.714	28246
812.855	28424
812.997	28607
813.138	28584
813.279	28523
813.421	28459
813.562	28386
813.703	28230
813.845	28284
813.986	27857
814.127	27739
814.268	27622
814.41	27770
814.551	27572
814.692	27599
814.833	27671
814.974	27663
815.115	27774
815.256	27667
815.397	27469
815.539	27477
815.68	27424
815.821	27275
815.962	27401
816.103	27329
816.244	27302
816.385	27138
816.526	27291
816.666	27013
816.807	26872
816.948	26948
817.089	26986
817.23	26952
817.371	27017
817.512	26960
817.653	26769
817.793	26727
817.934	26902
818.075	26914
818.216	26853
818.356	26872
818.497	26754
818.638	26731
818.778	26579
818.919	26602
819.06	26606
819.2	26670
819.341	27020
819.481	26883
819.622	27104
819.762	27230
819.903	27157
820.043	27138
820.184	26994
820.324	27005
820.465	27032
820.605	27043
820.746	26963
820.886	26811
821.026	26887
821.167	26902
821.307	26933
821.447	26906
821.588	26804
821.728	26796
821.868	26396
822.008	26362
822.149	26237
822.289	26374
822.429	26088
822.569	26134
822.709	25997
822.849	25860
822.99	25811
823.13	25803
823.27	25830
823.41	25708
823.55	25586
823.69	25715
823.83	25696
823.97	25620
824.11	25582
824.25	25438
824.389	25590
824.529	25544
824.669	25491
824.809	25647
824.949	25582
825.089	25552
825.228	25597
825.368	25358
825.508	25335
825.648	25514
825.787	25460
825.927	25449
826.067	25274
826.206	25529
826.346	25453
826.485	25373
826.625	25236
826.765	25358
826.904	25445
827.044	25175
827.183	25179
827.323	25088
827.462	25129
827.601	25072
827.741	25175
827.88	25122
828.02	24909
828.159	25072
828.298	25095
828.437	25301
828.577	25008
828.716	25190
828.855	25027
828.994	24871
829.134	24844
829.273	24722
829.412	24665
829.551	24791
829.69	24745
829.829	24837
829.968	24894
830.107	24863
830.246	24886
830.385	24772
830.524	24753
830.663	24608
830.802	24456
830.941	24479
831.08	24391
831.219	24437
831.357	24464
831.496	24738
831.635	24429
831.774	24186
831.913	24384
832.051	24174
832.19	24258
832.329	24315
832.467	24136
832.606	24049
832.744	24186
832.883	24095
833.022	24091
833.16	24098
833.299	24110
833.437	24190
833.576	24262
833.714	24186
833.852	24163
833.991	24220
834.129	24388
834.267	24243
834.406	24201
834.544	24163
834.682	24140
834.821	24285
834.959	24319
835.097	24129
835.235	24311
835.373	24155
835.511	24186
835.65	24041
835.788	23999
835.926	23935
836.064	23878
836.202	23843
836.34	23973
836.478	24174
836.615	23984
836.753	24125
836.891	24144
837.029	24072
837.167	23969
837.305	23920
837.443	23885
837.58	23897
837.718	23977
837.856	23737
837.993	23756
838.131	23798
838.269	23802
838.406	23889
838.544	23676
838.681	23592
838.819	23493
838.956	23299
839.094	23398
839.231	23315
839.369	23493
839.506	23676
839.643	23566
839.781	23402
839.918	23200
840.055	23341
840.193	23273
840.33	23231
840.467	23193
840.604	23277
840.742	23638
840.879	23098
841.016	23162
841.153	23155
841.29	23360
841.427	23296
841.564	23288
841.701	23189
841.838	23185
841.975	23174
842.112	23239
842.249	23159
842.385	23018
842.522	23242
842.659	23064
842.796	23010
842.933	23003
843.069	23037
843.206	22725
843.343	23003
843.479	23083
843.616	23006
843.752	22843
843.889	22740
844.025	22896
844.162	22706
844.298	22904
844.435	22828
844.571	22653
844.708	22786
844.844	22938
844.98	22911
845.117	22877
845.253	22782
845.389	22694
845.525	22687
845.661	22516
845.798	22557
845.934	22599
846.07	22428
846.206	22516
846.342	22660
846.478	22634
846.614	22386
846.75	22219
846.886	22276
847.022	22390
847.158	22223
847.294	22257
847.429	22299
847.565	22356
847.701	22436
847.837	21972
847.972	21937
848.108	21998
848.244	21998
848.379	21865
848.515	21846
848.65	21717
848.786	21903
848.921	21831
849.057	22040
849.192	21949
849.328	21857
849.463	21930
849.598	21816
849.734	21682
849.869	21652
850.004	21625
850.14	21610
850.275	21629
850.41	21553
850.545	21606
850.68	21629
850.815	21614
850.95	21526
851.085	21785
851.22	21652
851.355	21709
851.49	21652
851.625	21492
851.76	21515
851.895	21458
852.03	21458
852.165	21542
852.299	21580
852.434	21557
852.569	21610
852.703	21667
852.838	21625
852.973	21652
853.107	21774
853.242	21431
853.376	21500
853.511	21260
853.645	21447
853.78	21507
853.914	21450
854.048	21416
854.183	21454
854.317	21424
854.451	21599
854.585	21496
854.72	21393
854.854	21549
854.988	21294
855.122	21469
855.256	21214
855.39	21302
855.524	21469
855.658	21511
855.792	21374
855.926	21393
856.06	21466
856.194	21485
856.327	21496
856.461	21462
856.595	21416
856.729	21469
856.862	21466
856.996	21485
857.13	21447
857.263	21557
857.397	21572
857.53	21443
857.664	21530
857.797	21492
857.931	21572
858.064	21420
858.197	21488
858.331	21443
858.464	21397
858.597	21340
858.731	21424
858.864	21412
858.997	21321
859.13	21443
859.263	21473
859.396	21549
859.529	21428
859.662	21462
859.795	21393
859.928	21359
860.061	21534
860.194	21587
860.327	21420
860.46	21393
860.592	21583
860.725	21614
860.858	21515
860.99	21591
861.123	21454
861.256	21332
861.388	21538
861.521	22059
861.653	21351
861.786	21142
861.918	21218
862.05	21466
862.183	21393
862.315	21374
862.447	21264
862.58	21268
862.712	21161
862.844	21161
862.976	21218
863.108	21294
863.24	21587
863.372	21135
863.504	21108
863.636	21127
863.768	21123
863.9	21070
864.032	21055
864.164	21009
864.296	21184
864.428	21268
864.559	21241
864.691	21203
864.823	21180
864.954	21039
865.086	21123
865.217	21074
865.349	20929
865.48	21013
865.612	21074
865.743	21127
865.875	21001
866.006	20998
866.137	21108
866.269	21001
866.4	21020
866.531	21039
866.662	20823
866.793	20880
866.924	20960
867.055	20941
867.186	20998
867.317	20960
867.448	20899
867.579	20891
867.71	20834
867.841	20876
867.972	20876
868.103	20925
868.233	20937
868.364	20899
868.495	21005
868.625	21112
868.756	21283
868.886	21195
869.017	21252
869.147	21203
869.278	21283
869.408	21176
869.539	21165
869.669	21226
869.799	21298
869.929	21332
870.06	21310
870.19	21466
870.32	21511
870.45	21492
870.58	21534
870.71	21675
870.84	21739
870.97	21759
871.1	21485
871.23	21831
871.36	21679
871.489	21762
871.619	21633
871.749	21747
871.879	21884
872.008	21975
872.138	21747
872.267	21686
872.397	21751
872.526	21671
872.656	21599
872.785	21675
872.915	21838
873.044	21907
873.173	21865
873.303	21838
873.432	21812
873.561	21873
873.69	21907
873.819	21819
873.948	21907
874.077	21850
874.206	21770
874.335	21831
874.464	22010
874.593	21922
874.722	22013
874.851	22112
874.979	22063
875.108	22021
875.237	21911
875.365	21850
875.494	21956
875.623	22188
875.751	21991
875.88	22086
876.008	22253
876.136	22147
876.265	22462
876.393	22455
876.521	22462
876.65	22611
876.778	22485
876.906	22432
877.034	22379
877.162	22462
877.29	22375
877.418	22379
877.546	22299
877.674	22276
877.802	22360
877.93	22398
878.058	22344
878.185	22242
878.313	22367
878.441	22402
878.568	22166
878.696	22360
878.824	22398
878.951	22424
879.079	22554
879.206	22767
879.333	22504
879.461	22557
879.588	22493
879.715	22611
879.842	22615
879.97	22470
880.097	22249
880.224	22230
880.351	22238
880.478	22337
880.605	22196
880.732	22303
880.859	22379
880.986	22322
881.112	22173
881.239	22158
881.366	21842
881.493	21827
881.619	21793
881.746	21728
881.872	21835
881.999	21789
882.125	21568
882.252	21747
882.378	21804
882.505	21888
882.631	21564
882.757	21618
882.883	21564
883.01	21526
883.136	21534
883.262	21393
883.388	21332
883.514	21473
883.64	21561
883.766	21447
883.892	21378
884.018	21233
884.143	21424
884.269	21504
884.395	21279
884.52	21070
884.646	21279
884.772	21093
884.897	21013
885.023	21157
885.148	21161
885.274	21272
885.399	21222
885.524	21070
885.65	21188
885.775	21104
885.9	21062
886.025	21226
886.15	21233
886.275	21020
886.4	20990
886.525	21096
886.65	21089
886.775	20994
886.9	21169
887.025	21336
887.149	21154
887.274	20842
887.399	20804
887.523	21036
887.648	20792
887.773	20724
887.897	21032
888.021	20899
888.146	20743
888.27	20944
888.395	21001
888.519	20887
888.643	20845
888.767	21001
888.891	20701
889.015	20644
889.139	20731
889.263	20735
889.387	20853
889.511	20788
889.635	20819
889.759	20716
889.883	20708
890.006	20678
890.13	20853
890.254	20579
890.377	20594
890.501	20518
890.624	20457
890.748	20461
890.871	20259
890.995	20240
891.118	20252
891.241	20313
891.364	20275
891.488	20347
891.611	20252
891.734	20233
891.857	20362
891.98	20199
892.103	20339
892.226	20195
892.349	20252
892.471	20096
892.594	20202
892.717	20168
892.839	20050
892.962	20267
893.085	20244
893.207	20195
893.33	20065
893.452	20073
893.575	20195
893.697	20081
893.819	20366
893.941	20423
894.064	20153
894.186	20039
894.308	20077
894.43	20199
894.552	20290
894.674	20328
894.796	20039
894.918	20149
895.04	20172
895.161	20187
895.283	20313
895.405	20138
895.526	20046
895.648	20084
895.769	20176
895.891	20259
896.012	20301
896.134	20153
896.255	20149
896.376	20058
896.498	20191
896.619	20130
896.74	20183
896.861	20191
896.982	20412
897.103	20552
897.224	20408
897.345	20396
897.466	20221
897.587	20415
897.708	20396
897.828	20450
897.949	20278
898.07	20286
898.19	20233
898.311	20438
898.431	20446
898.552	20412
898.672	20419
898.792	20450
898.913	20294
899.033	20240
899.153	20142
899.273	20012
899.393	20115
899.513	20145
899.633	20115
899.753	20088
899.873	19970
899.993	20031
900.113	19989
900.232	20012
900.352	19978
900.472	19955
900.591	19761
900.711	20005
900.83	19883
900.95	20050
901.069	19906
901.189	19818
901.308	19559
901.427	19354
901.546	19373
901.665	19449
901.784	19453
901.904	19282
902.023	19255
902.141	19107
902.26	18985
902.379	19038
902.498	18882
902.617	18977
902.735	19027
902.854	18973
902.973	19072
903.091	18722
903.21	18631
903.328	18544
903.446	18669
903.565	18506
903.683	18422
903.801	18270
903.919	18441
904.038	18494
904.156	18213
904.274	18289
904.392	18133
904.51	18251
904.627	18281
904.745	18235
904.863	18174
904.981	18117
905.098	17805
905.216	17847
905.334	17984
905.451	17923
905.569	17897
905.686	17908
905.803	17851
905.921	17748
906.038	17764
906.155	17748
906.272	17649
906.389	17646
906.506	17444
906.623	17395
906.74	17410
906.857	17379
906.974	17345
907.091	17547
907.208	17455
907.324	17364
907.441	17429
907.557	17181
907.674	17212
907.79	17105
907.907	17102
908.023	17132
908.139	17132
908.256	17117
908.372	17064
908.488	17022
908.604	16892
908.72	16812
908.836	16786
908.952	16911
909.068	16862
909.184	16923
909.3	16877
909.415	16904
909.531	16793
909.647	16577
909.762	16649
909.878	16615
909.993	16527
910.108	16519
910.224	16656
910.339	16535
910.454	16508
910.57	16325
910.685	16352
910.8	16596
910.915	16558
911.03	16436
911.145	16299
911.259	16139
911.374	16124
911.489	16078
911.604	16055
911.718	15956
911.833	15968
911.947	15739
912.062	15713
912.176	15770
912.291	15873
912.405	15907
912.519	16013
912.633	16002
912.748	15873
912.862	15983
912.976	15675
913.09	15610
913.204	15698
913.318	15724
913.431	15762
913.545	15892
913.659	15850
913.772	15736
913.886	15614
914	15538
914.113	15648
914.226	15667
914.34	15530
914.453	15397
914.566	15614
914.68	15370
914.793	15397
914.906	15249
915.019	15173
915.132	15146
915.245	15146
915.358	15207
915.47	15093
915.583	15169
915.696	15203
915.809	15180
915.921	15241
916.034	15013
916.146	15089
916.259	15005
916.371	15123
916.483	15058
916.595	14956
916.708	14994
916.82	14883
916.932	14914
917.044	14971
917.156	14895
917.268	14830
917.38	14792
917.491	14773
917.603	14842
917.715	14899
917.826	14914
917.938	14785
918.049	14552
918.161	14758
918.272	14899
918.384	14800
918.495	14796
918.606	14587
918.717	14552
918.828	14636
918.939	14602
919.05	14507
919.161	14495
919.272	14362
919.383	14457
919.494	14648
919.604	14739
919.715	14552
919.826	14389
919.936	14488
920.047	14606
920.157	14556
920.267	14674
920.378	14484
920.488	14480
920.598	14651
920.708	14823
920.818	14655
920.928	14651
921.038	14842
921.148	14781
921.258	14415
921.368	14298
921.477	14298
921.587	14183
921.697	14126
921.806	14210
921.916	14001
922.025	13986
922.134	13913
922.244	13852
922.353	13967
922.462	13807
922.571	13708
922.68	13502
922.789	13559
922.898	13502
923.007	13460
923.116	13647
923.224	13472
923.333	13411
923.442	13396
923.55	13400
923.659	13308
923.767	13502
923.876	13278
923.984	13426
924.092	13274
924.201	13377
924.309	13270
924.417	13274
924.525	13190
924.633	13160
924.741	14100
924.849	12985
924.956	13110
925.064	13031
925.172	12924
925.279	12916
925.387	13000
925.494	12875
925.602	13012
925.709	13023
925.816	12844
925.924	12909
926.031	12920
926.138	12916
926.245	12962
926.352	12779
926.459	12985
926.566	12932
926.673	12749
926.779	12730
926.886	12623
926.993	12547
927.099	12521
927.206	12467
927.312	12464
927.419	12467
927.525	12551
927.631	12532
927.737	12369
927.843	12330
927.95	12239
928.056	12315
928.162	12323
928.267	12357
928.373	12901
928.479	12372
928.585	12144
928.69	12266
928.796	12311
928.901	12205
929.007	12049
929.112	12167
929.218	12155
929.323	12114
929.428	12102
929.533	12121
929.638	12015
929.743	11973
929.848	12091
929.953	12057
930.058	11912
930.163	11790
930.267	11748
930.372	11908
930.477	11741
930.581	11961
930.685	11866
930.79	11570
930.894	11688
930.998	11619
931.103	11802
931.207	11387
931.311	11277
931.415	11250
931.519	11033
931.623	10980
