Data from test_V78500241_3474.txt Node
Date: Fri Mar 25 15:34:03 CST 2022
User: usil
Spectrometer: V785-0024
Trigger mode: 0
Integration Time (sec): 4.000000E-1
Scans to average: 1
Nonlinearity correction enabled: false
Boxcar width: 0
Storing dark spectrum: false
XAxis mode: Wavelengths
Number of Pixels in Spectrum: 1024
>>>>>Begin Spectral Data<<<<<
801.071	27279
801.214	27310
801.356	26921
801.499	27077
801.641	26971
801.783	26876
801.926	26948
802.068	26758
802.211	26731
802.353	26667
802.496	26480
802.638	26545
802.78	26343
802.923	26332
803.065	26271
803.208	26366
803.35	26530
803.492	26518
803.635	26621
803.777	26423
803.919	26636
804.061	26929
804.204	26674
804.346	26621
804.488	26446
804.63	26606
804.773	26446
804.915	26644
805.057	26705
805.199	26682
805.341	26720
805.483	26739
805.626	26739
805.768	26579
805.91	26739
806.052	26617
806.194	26636
806.336	26937
806.478	26716
806.62	26686
806.762	26925
806.904	27013
807.046	27184
807.188	27135
807.33	27005
807.472	27203
807.614	27028
807.756	27112
807.898	26990
808.04	26834
808.182	26929
808.324	26937
808.465	27089
808.607	27135
808.749	27306
808.891	27439
809.033	27580
809.174	27340
809.316	27348
809.458	27283
809.6	27161
809.741	27332
809.883	27431
810.025	27504
810.166	27576
810.308	27618
810.45	27652
810.591	27538
810.733	27466
810.875	27192
811.016	27218
811.158	27397
811.299	27424
811.441	27526
811.582	27534
811.724	27283
811.865	27439
812.007	27389
812.148	27313
812.29	27252
812.431	27504
812.573	27534
812.714	27709
812.855	27854
812.997	27869
813.138	27884
813.279	27876
813.421	27835
813.562	27797
813.703	27492
813.845	27408
813.986	27154
814.127	27104
814.268	26937
814.41	27055
814.551	26944
814.692	27058
814.833	26944
814.974	26971
815.115	26979
815.256	26807
815.397	26864
815.539	26891
815.68	26720
815.821	26651
815.962	26716
816.103	26598
816.244	26720
816.385	26522
816.526	26453
816.666	26336
816.807	26278
816.948	26328
817.089	26328
817.23	26256
817.371	26161
817.512	26103
817.653	26214
817.793	26244
817.934	26134
818.075	26164
818.216	26191
818.356	26267
818.497	26103
818.638	25902
818.778	25890
818.919	25830
819.06	25852
819.2	26062
819.341	26267
819.481	26035
819.622	26309
819.762	26495
819.903	26446
820.043	26294
820.184	26347
820.324	26233
820.465	26328
820.605	26202
820.746	26438
820.886	26259
821.026	26214
821.167	26233
821.307	26362
821.447	26237
821.588	26275
821.728	25909
821.868	25753
822.008	25666
822.149	25624
822.289	25761
822.429	25396
822.569	25362
822.709	25362
822.849	25198
822.99	25031
823.13	25225
823.27	25141
823.41	25057
823.55	24920
823.69	25050
823.83	24985
823.97	24905
824.11	24913
824.25	24753
824.389	24772
824.529	25000
824.669	24802
824.809	24909
824.949	24951
825.089	24897
825.228	24863
825.368	24620
825.508	24650
825.648	24654
825.787	24783
825.927	24837
826.067	24544
826.206	24677
826.346	24715
826.485	24730
826.625	24681
826.765	24837
826.904	24810
827.044	24456
827.183	24525
827.323	24407
827.462	24483
827.601	24494
827.741	24471
827.88	24399
828.02	24292
828.159	24399
828.298	24429
828.437	24467
828.577	24407
828.716	24585
828.855	24433
828.994	24155
829.134	24144
829.273	24258
829.412	24106
829.551	24136
829.69	24197
829.829	24110
829.968	24311
830.107	24102
830.246	24106
830.385	24155
830.524	24022
830.663	23908
830.802	23870
830.941	23672
831.08	23805
831.219	23855
831.357	23927
831.496	23847
831.635	23687
831.774	23684
831.913	23684
832.051	23535
832.19	23531
832.329	23672
832.467	23433
832.606	23330
832.744	23299
832.883	23436
833.022	23444
833.16	23452
833.299	23547
833.437	23425
833.576	23459
833.714	23577
833.852	23493
833.991	23604
834.129	23611
834.267	23646
834.406	23585
834.544	23680
834.682	23623
834.821	23444
834.959	23630
835.097	23368
835.235	23539
835.373	23482
835.511	23395
835.65	23345
835.788	23311
835.926	23216
836.064	23094
836.202	23250
836.34	23444
836.478	23398
836.615	23330
836.753	23318
836.891	23440
837.029	23334
837.167	23265
837.305	23364
837.443	23147
837.58	23261
837.718	23372
837.856	23178
837.993	23102
838.131	23060
838.269	23029
838.406	23147
838.544	23140
838.681	22919
838.819	22949
838.956	22733
839.094	22626
839.231	22763
839.369	22835
839.506	23132
839.643	22820
839.781	22577
839.918	22626
840.055	22710
840.193	22660
840.33	22664
840.467	22611
840.604	22649
840.742	22885
840.879	22489
841.016	22470
841.153	22580
841.29	22828
841.427	22626
841.564	22630
841.701	22569
841.838	22637
841.975	22478
842.112	22493
842.249	22523
842.385	22341
842.522	22584
842.659	22497
842.796	22447
842.933	22306
843.069	22398
843.206	22333
843.343	22405
843.479	22379
843.616	22440
843.752	22147
843.889	22139
844.025	22268
844.162	22230
844.298	22257
844.435	22147
844.571	22059
844.708	22253
844.844	22337
844.98	22303
845.117	22303
845.253	22128
845.389	21953
845.525	22032
845.661	22006
845.798	21819
845.934	21930
846.07	21930
846.206	21960
846.342	22032
846.478	21983
846.614	21713
846.75	21526
846.886	21599
847.022	21644
847.158	21557
847.294	21633
847.429	21633
847.565	21462
847.701	21842
847.837	21416
847.972	21245
848.108	21523
848.244	21424
848.379	21294
848.515	21283
848.65	21096
848.786	21176
848.921	21192
849.057	21233
849.192	21329
849.328	21310
849.463	21226
849.598	21173
849.734	21028
849.869	21157
850.004	21036
850.14	21108
850.275	21009
850.41	20872
850.545	20925
850.68	20941
850.815	21093
850.95	20937
851.085	21173
851.22	20994
851.355	21112
851.49	20902
851.625	20899
851.76	20868
851.895	20868
852.03	21009
852.165	21043
852.299	21039
852.434	21020
852.569	20982
852.703	20838
852.838	20979
852.973	21024
853.107	21138
853.242	20872
853.376	20990
853.511	20815
853.645	20800
853.78	20838
853.914	20883
854.048	20701
854.183	20792
854.317	20880
854.451	21108
854.585	20910
854.72	20785
854.854	20819
854.988	20823
855.122	20762
855.256	20708
855.39	20727
855.524	20941
855.658	20914
855.792	20826
855.926	20819
856.06	20796
856.194	20899
856.327	20823
856.461	20788
856.595	20785
856.729	20781
856.862	20804
856.996	20743
857.13	20819
857.263	20899
857.397	20895
857.53	20746
857.664	20834
857.797	20956
857.931	20944
858.064	20883
858.197	20861
858.331	20815
858.464	20731
858.597	20701
858.731	20769
858.864	20796
858.997	20686
859.13	20750
859.263	20899
859.396	20815
859.529	20708
859.662	20785
859.795	20773
859.928	20781
860.061	20929
860.194	20963
860.327	20800
860.46	20872
860.592	20796
860.725	20872
860.858	20902
860.99	20864
861.123	20739
861.256	20583
861.388	20872
861.521	21606
861.653	20678
861.786	20568
861.918	20686
862.05	20807
862.183	20845
862.315	20750
862.447	20891
862.58	20735
862.712	20663
862.844	20457
862.976	20670
863.108	20583
863.24	21017
863.372	20389
863.504	20583
863.636	20480
863.768	20602
863.9	20617
864.032	20423
864.164	20545
864.296	20507
864.428	20724
864.559	20613
864.691	20613
864.823	20541
864.954	20427
865.086	20648
865.217	20587
865.349	20381
865.48	20454
865.612	20374
865.743	20697
865.875	20404
866.006	20328
866.137	20480
866.269	20423
866.4	20404
866.531	20396
866.662	20343
866.793	20355
866.924	20408
867.055	20362
867.186	20412
867.317	20355
867.448	20415
867.579	20298
867.71	20263
867.841	20320
867.972	20336
868.103	20412
868.233	20389
868.364	20404
868.495	20431
868.625	20667
868.756	20682
868.886	20511
869.017	20636
869.147	20644
869.278	20716
869.408	20594
869.539	20514
869.669	20693
869.799	20648
869.929	20705
870.06	20750
870.19	20845
870.32	20765
870.45	20971
870.58	21013
870.71	21024
870.84	21077
870.97	21005
871.1	21077
871.23	21241
871.36	21317
871.489	21135
871.619	21195
871.749	21272
871.879	21230
872.008	21306
872.138	21310
872.267	21275
872.397	21127
872.526	21032
872.656	21047
872.785	21093
872.915	21169
873.044	21367
873.173	21355
873.303	21310
873.432	21313
873.561	21348
873.69	21249
873.819	21173
873.948	21454
874.077	21279
874.206	21157
874.335	21184
874.464	21348
874.593	21458
874.722	21450
874.851	21424
874.979	21507
875.108	21572
875.237	21485
875.365	21313
875.494	21454
875.623	21587
875.751	21511
875.88	21447
876.008	21515
876.136	21564
876.265	21850
876.393	21945
876.521	22006
876.65	21911
876.778	21865
876.906	21934
877.034	21759
877.162	21835
877.29	21785
877.418	21819
877.546	21823
877.674	21892
877.802	21705
877.93	21850
878.058	21736
878.185	21812
878.313	21743
878.441	21793
878.568	21595
878.696	21778
878.824	21808
878.951	21911
879.079	21903
879.206	22120
879.333	22013
879.461	21899
879.588	21987
879.715	22093
879.842	22173
879.97	21895
880.097	21595
880.224	21694
880.351	21717
880.478	21637
880.605	21656
880.732	21679
880.859	21884
880.986	21694
881.112	21538
881.239	21606
881.366	21351
881.493	21298
881.619	21241
881.746	21348
881.872	21279
881.999	21119
882.125	21222
882.252	21180
882.378	21283
882.505	21447
882.631	21195
882.757	21017
882.883	21116
883.01	20990
883.136	20994
883.262	20754
883.388	20693
883.514	21013
883.64	20880
883.766	20891
883.892	20663
884.018	20743
884.143	21009
884.269	20986
884.395	20644
884.52	20499
884.646	20613
884.772	20629
884.897	20450
885.023	20511
885.148	20735
885.274	20716
885.399	20629
885.524	20560
885.65	20625
885.775	20556
885.9	20579
886.025	20682
886.15	20644
886.275	20609
886.4	20503
886.525	20552
886.65	20530
886.775	20568
886.9	20613
887.025	20765
887.149	20492
887.274	20332
887.399	20358
887.523	20301
887.648	20278
887.773	20256
887.897	20495
888.021	20374
888.146	20320
888.27	20469
888.395	20480
888.519	20393
888.643	20374
888.767	20332
888.891	20282
889.015	20240
889.139	20252
889.263	20187
889.387	20187
889.511	20355
889.635	20282
889.759	20172
889.883	20214
890.006	20138
890.13	20237
890.254	20024
890.377	20024
890.501	19959
890.624	19955
890.748	20012
890.871	19807
890.995	19700
891.118	19685
891.241	19738
891.364	19746
891.488	19811
891.611	19830
891.734	19712
891.857	19845
891.98	19769
892.103	19830
892.226	19738
892.349	19681
892.471	19430
892.594	19658
892.717	19666
892.839	19613
892.962	19567
893.085	19651
893.207	19742
893.33	19647
893.452	19567
893.575	19727
893.697	19609
893.819	19742
893.941	19955
894.064	19734
894.186	19620
894.308	19514
894.43	19681
894.552	19753
894.674	19738
894.796	19594
894.918	19582
895.04	19582
895.161	19750
895.283	19738
895.405	19518
895.526	19655
895.648	19632
895.769	19712
895.891	19651
896.012	19715
896.134	19655
896.255	19651
896.376	19594
896.498	19719
896.619	19776
896.74	19696
896.861	19712
896.982	20046
897.103	20202
897.224	20054
897.345	19807
897.466	19845
897.587	19902
897.708	20024
897.828	19947
897.949	19868
898.07	19693
898.19	19826
898.311	19814
898.431	19803
898.552	19894
898.672	19928
898.792	19989
898.913	19898
899.033	19674
899.153	19635
899.273	19685
899.393	19658
899.513	19712
899.633	19693
899.753	19719
899.873	19632
899.993	19746
900.113	19597
900.232	19613
900.352	19552
900.472	19396
900.591	19407
900.711	19388
900.83	19396
900.95	19487
901.069	19693
901.189	19331
901.308	19046
901.427	18943
901.546	18954
901.665	19076
901.784	19084
901.904	18741
902.023	18696
902.141	18757
902.26	18490
902.379	18540
902.498	18479
902.617	18547
902.735	18494
902.854	18608
902.973	18448
903.091	18308
903.21	18251
903.328	18232
903.446	18106
903.565	18095
903.683	17992
903.801	17912
903.919	17893
904.038	18011
904.156	17752
904.274	17859
904.392	17779
904.51	17653
904.627	17775
904.745	17817
904.863	17946
904.981	17524
905.098	17471
905.216	17387
905.334	17436
905.451	17474
905.569	17421
905.686	17436
905.803	17402
905.921	17269
906.038	17334
906.155	17330
906.272	17269
906.389	17132
906.506	17022
906.623	17037
906.74	16991
906.857	16915
906.974	16885
907.091	17159
907.208	17143
907.324	17029
907.441	16896
907.557	16790
907.674	16698
907.79	16698
907.907	16607
908.023	16877
908.139	16858
908.256	16702
908.372	16653
908.488	16668
908.604	16565
908.72	16284
908.836	16443
908.952	16436
909.068	16402
909.184	16531
909.3	16443
909.415	16390
909.531	16398
909.647	16265
909.762	16207
909.878	16249
909.993	16166
910.108	16097
910.224	16166
910.339	16181
910.454	16002
910.57	15987
910.685	15823
910.8	16242
910.915	16051
911.03	15941
911.145	15884
911.259	15705
911.374	15709
911.489	15709
911.604	15701
911.718	15351
911.833	15606
911.947	15458
912.062	15367
912.176	15492
912.291	15538
912.405	15485
912.519	15606
912.633	15709
912.748	15561
912.862	15435
912.976	15306
913.09	15252
913.204	15317
913.318	15370
913.431	15416
913.545	15386
913.659	15363
913.772	15188
913.886	15184
914	15085
914.113	15165
914.226	15180
914.34	15245
914.453	15081
914.566	15127
914.68	15024
914.793	15028
914.906	14918
915.019	14754
915.132	14727
915.245	14674
915.358	14834
915.47	14811
915.583	14792
915.696	14785
915.809	14788
915.921	14918
916.034	14678
916.146	14686
916.259	14697
916.371	14807
916.483	14746
916.595	14644
916.708	14655
916.82	14644
916.932	14541
917.044	14655
917.156	14587
917.268	14415
917.38	14408
917.491	14408
917.603	14473
917.715	14549
917.826	14454
917.938	14393
918.049	14336
918.161	14438
918.272	14533
918.384	14613
918.495	14412
918.606	14199
918.717	14199
918.828	14320
918.939	14256
919.05	14191
919.161	14237
919.272	14077
919.383	14096
919.494	14320
919.604	14469
919.715	14210
919.826	14103
919.936	14164
920.047	14286
920.157	14176
920.267	14301
920.378	14202
920.488	14218
920.598	14442
920.708	14499
920.818	14294
920.928	14290
921.038	14446
921.148	14454
921.258	14191
921.368	14103
921.477	14016
921.587	13917
921.697	13803
921.806	13970
921.916	13795
922.025	13742
922.134	13548
922.244	13571
922.353	13662
922.462	13563
922.571	13460
922.68	13301
922.789	13304
922.898	13320
923.007	13206
923.116	13247
923.224	13156
923.333	13168
923.442	13046
923.55	13114
923.659	13152
923.767	13145
923.876	12996
923.984	13095
924.092	12954
924.201	12996
924.309	13027
924.417	13034
924.525	12916
924.633	12924
924.741	13704
924.849	12684
924.956	12856
925.064	12665
925.172	12658
925.279	12646
925.387	12730
925.494	12642
925.602	12825
925.709	12722
925.816	12555
925.924	12635
926.031	12681
926.138	12631
926.245	12616
926.352	12486
926.459	12623
926.566	12715
926.673	12563
926.779	12441
926.886	12418
926.993	12357
927.099	12308
927.206	12140
927.312	12228
927.419	12194
927.525	12197
927.631	12292
927.737	12178
927.843	12026
927.95	12022
928.056	11996
928.162	12026
928.267	12159
928.373	12749
928.479	12136
928.585	11866
928.69	11996
928.796	11999
928.901	11954
929.007	11775
929.112	11851
929.218	11920
929.323	11798
929.428	11813
929.533	11961
929.638	11733
929.743	11790
929.848	11798
929.953	11840
930.058	11600
930.163	11520
930.267	11364
930.372	11653
930.477	11417
930.581	11752
930.685	11543
930.79	11379
930.894	11474
930.998	11486
931.103	11501
931.207	11071
931.311	11041
931.415	10987
931.519	10759
931.623	10793
