Data from test_V78500241_1019.txt Node
Date: Fri Mar 25 15:16:57 CST 2022
User: usil
Spectrometer: V785-0024
Trigger mode: 0
Integration Time (sec): 4.000000E-1
Scans to average: 1
Nonlinearity correction enabled: false
Boxcar width: 0
Storing dark spectrum: false
XAxis mode: Wavelengths
Number of Pixels in Spectrum: 1024
>>>>>Begin Spectral Data<<<<<
801.071	28512
801.214	28352
801.356	28211
801.499	27998
801.641	27934
801.783	28063
801.926	28029
802.068	28010
802.211	27926
802.353	27781
802.496	27747
802.638	27568
802.78	27599
802.923	27561
803.065	27534
803.208	27545
803.35	27739
803.492	27610
803.635	27838
803.777	27717
803.919	27895
804.061	27998
804.204	27979
804.346	27701
804.488	27888
804.63	27899
804.773	27857
804.915	27903
805.057	27926
805.199	27857
805.341	27922
805.483	28109
805.626	27972
805.768	27926
805.91	27911
806.052	27956
806.194	27964
806.336	28128
806.478	28177
806.62	28097
806.762	28101
806.904	28261
807.046	28535
807.188	28474
807.33	28401
807.472	28497
807.614	28268
807.756	28459
807.898	28284
808.04	28238
808.182	28291
808.324	28188
808.465	28169
808.607	28622
808.749	28580
808.891	28767
809.033	28866
809.174	28687
809.316	28580
809.458	28660
809.6	28866
809.741	28713
809.883	28847
810.025	29136
810.166	28930
810.308	28915
810.45	28961
810.591	28835
810.733	28706
810.875	28740
811.016	28592
811.158	28584
811.299	28748
811.441	28717
811.582	28797
811.724	28755
811.865	28512
812.007	28675
812.148	28733
812.29	28713
812.431	28771
812.573	29041
812.714	29189
812.855	29242
812.997	29326
813.138	29429
813.279	29387
813.421	29318
813.562	29258
813.703	29003
813.845	28862
813.986	28607
814.127	28694
814.268	28451
814.41	28386
814.551	28390
814.692	28443
814.833	28268
814.974	28363
815.115	28261
815.256	28398
815.397	28070
815.539	28424
815.68	28314
815.821	28177
815.962	28192
816.103	28154
816.244	28032
816.385	27975
816.526	27884
816.666	27770
816.807	27739
816.948	27751
817.089	27827
817.23	27781
817.371	27800
817.512	27831
817.653	27667
817.793	27759
817.934	27656
818.075	27785
818.216	27614
818.356	27774
818.497	27530
818.638	27454
818.778	27496
818.919	27466
819.06	27363
819.2	27591
819.341	27842
819.481	27686
819.622	27876
819.762	27975
819.903	27956
820.043	27781
820.184	27816
820.324	27785
820.465	27903
820.605	27850
820.746	27857
820.886	27679
821.026	27838
821.167	27797
821.307	27880
821.447	27739
821.588	27701
821.728	27515
821.868	27336
822.008	27233
822.149	27169
822.289	27184
822.429	26830
822.569	26800
822.709	26868
822.849	26842
822.99	26720
823.13	26609
823.27	26629
823.41	26602
823.55	26347
823.69	26465
823.83	26549
823.97	26518
824.11	26404
824.25	26275
824.389	26355
824.529	26518
824.669	26419
824.809	26644
824.949	26473
825.089	26488
825.228	26507
825.368	26180
825.508	26347
825.648	26256
825.787	26256
825.927	26396
826.067	26275
826.206	26149
826.346	26191
826.485	26199
826.625	26081
826.765	26324
826.904	26142
827.044	26065
827.183	25921
827.323	25917
827.462	26149
827.601	26088
827.741	25936
827.88	25982
828.02	25921
828.159	26016
828.298	26020
828.437	26096
828.577	25921
828.716	26172
828.855	25803
828.994	25723
829.134	25563
829.273	25784
829.412	25689
829.551	25575
829.69	25757
829.829	25639
829.968	25784
830.107	25750
830.246	25845
830.385	25655
830.524	25441
830.663	25559
830.802	25434
830.941	25411
831.08	25373
831.219	25308
831.357	25377
831.496	25487
831.635	25247
831.774	25194
831.913	25080
832.051	25179
832.19	25095
832.329	25042
832.467	24951
832.606	24783
832.744	25008
832.883	25103
833.022	24951
833.16	24977
833.299	25072
833.437	24947
833.576	25145
833.714	24901
833.852	25027
833.991	25091
834.129	25247
834.267	25190
834.406	25194
834.544	25015
834.682	25076
834.821	24897
834.959	25289
835.097	24859
835.235	25133
835.373	24973
835.511	24996
835.65	24878
835.788	24901
835.926	24738
836.064	24654
836.202	24696
836.34	24810
836.478	24939
836.615	24909
836.753	24840
836.891	24875
837.029	24947
837.167	24848
837.305	24821
837.443	24760
837.58	24772
837.718	24715
837.856	24650
837.993	24642
838.131	24760
838.269	24677
838.406	24601
838.544	24502
838.681	24327
838.819	24376
838.956	24144
839.094	24224
839.231	24243
839.369	24270
839.506	24677
839.643	24323
839.781	24216
839.918	24144
840.055	24224
840.193	24194
840.33	24064
840.467	24060
840.604	24239
840.742	24304
840.879	24015
841.016	24095
841.153	24095
841.29	24258
841.427	24022
841.564	24133
841.701	24038
841.838	24041
841.975	24026
842.112	24125
842.249	23885
842.385	23718
842.522	24007
842.659	23878
842.796	23771
842.933	23828
843.069	23813
843.206	23775
843.343	23783
843.479	23783
843.616	23813
843.752	23592
843.889	23733
844.025	23653
844.162	23516
844.298	23691
844.435	23562
844.571	23585
844.708	23634
844.844	23866
844.98	23771
845.117	23657
845.253	23444
845.389	23573
845.525	23649
845.661	23543
845.798	23318
845.934	23501
846.07	23345
846.206	23307
846.342	23406
846.478	23296
846.614	23121
846.75	23018
846.886	22987
847.022	23010
847.158	23140
847.294	23147
847.429	23083
847.565	23079
847.701	23429
847.837	22831
847.972	22725
848.108	22904
848.244	22953
848.379	22630
848.515	22687
848.65	22542
848.786	22721
848.921	22668
849.057	22710
849.192	22812
849.328	22820
849.463	22538
849.598	22588
849.734	22470
849.869	22519
850.004	22436
850.14	22527
850.275	22489
850.41	22421
850.545	22360
850.68	22348
850.815	22451
850.95	22402
851.085	22565
851.22	22493
851.355	22440
851.49	22455
851.625	22379
851.76	22333
851.895	22246
852.03	22341
852.165	22386
852.299	22531
852.434	22497
852.569	22546
852.703	22398
852.838	22443
852.973	22596
853.107	22565
853.242	22379
853.376	22379
853.511	22139
853.645	22219
853.78	22333
853.914	22390
854.048	22158
854.183	22211
854.317	22386
854.451	22284
854.585	22242
854.72	22253
854.854	22363
854.988	22177
855.122	22226
855.256	22150
855.39	22207
855.524	22310
855.658	22322
855.792	22207
855.926	22211
856.06	22341
856.194	22291
856.327	22287
856.461	22093
856.595	22162
856.729	22234
856.862	22295
856.996	22280
857.13	22299
857.263	22379
857.397	22207
857.53	22329
857.664	22352
857.797	22207
857.931	22405
858.064	22337
858.197	22367
858.331	22253
858.464	22173
858.597	22162
858.731	22329
858.864	22181
858.997	22196
859.13	22154
859.263	22196
859.396	22402
859.529	22360
859.662	22223
859.795	22207
859.928	22211
860.061	22390
860.194	22402
860.327	22382
860.46	22257
860.592	22390
860.725	22443
860.858	22352
860.99	22306
861.123	22169
861.256	22234
861.388	22375
861.521	22873
861.653	22196
861.786	22029
861.918	22032
862.05	22082
862.183	22226
862.315	22177
862.447	22188
862.58	22010
862.712	22025
862.844	21983
862.976	22002
863.108	22078
863.24	22341
863.372	21823
863.504	21934
863.636	21979
863.768	21953
863.9	21975
864.032	21835
864.164	21857
864.296	21850
864.428	21983
864.559	22017
864.691	21975
864.823	21880
864.954	21865
865.086	21876
865.217	21842
865.349	21709
865.48	21705
865.612	21774
865.743	22059
865.875	21895
866.006	21884
866.137	21816
866.269	21968
866.4	21869
866.531	21728
866.662	21656
866.793	21663
866.924	21835
867.055	21622
867.186	21770
867.317	21770
867.448	21717
867.579	21720
867.71	21724
867.841	21648
867.972	21751
868.103	21747
868.233	21709
868.364	21739
868.495	21789
868.625	22002
868.756	22048
868.886	21922
869.017	21899
869.147	22067
869.278	22147
869.408	22059
869.539	21991
869.669	21899
869.799	22044
869.929	22147
870.06	22147
870.19	22177
870.32	22299
870.45	22238
870.58	22432
870.71	22386
870.84	22550
870.97	22352
871.1	22455
871.23	22675
871.36	22622
871.489	22523
871.619	22565
871.749	22660
871.879	22542
872.008	22611
872.138	22577
872.267	22485
872.397	22474
872.526	22348
872.656	22287
872.785	22333
872.915	22611
873.044	22664
873.173	22538
873.303	22519
873.432	22698
873.561	22778
873.69	22451
873.819	22557
873.948	22694
874.077	22554
874.206	22554
874.335	22584
874.464	22698
874.593	22797
874.722	22919
874.851	22839
874.979	22801
875.108	22957
875.237	22733
875.365	22771
875.494	22710
875.623	22889
875.751	22831
875.88	22786
876.008	23003
876.136	22946
876.265	23246
876.393	23376
876.521	23200
876.65	23288
876.778	23254
876.906	23090
877.034	23056
877.162	23147
877.29	23102
877.418	23204
877.546	23140
877.674	23246
877.802	23124
877.93	23136
878.058	23136
878.185	23037
878.313	23003
878.441	23239
878.568	22900
878.696	23075
878.824	23349
878.951	23288
879.079	23227
879.206	23474
879.333	23326
879.461	23147
879.588	23269
879.715	23303
879.842	23497
879.97	23235
880.097	23010
880.224	22869
880.351	22991
880.478	22839
880.605	22972
880.732	22961
880.859	23159
880.986	22930
881.112	22755
881.239	22854
881.366	22850
881.493	22687
881.619	22535
881.746	22440
881.872	22580
881.999	22485
882.125	22538
882.252	22596
882.378	22451
882.505	22493
882.631	22295
882.757	22390
882.883	22211
883.01	22280
883.136	22097
883.262	22063
883.388	22109
883.514	22173
883.64	22238
883.766	22120
883.892	21937
884.018	21979
884.143	22124
884.269	22135
884.395	21876
884.52	21880
884.646	21945
884.772	21846
884.897	21831
885.023	21869
885.148	21941
885.274	22067
885.399	21876
885.524	21819
885.65	21857
885.775	21865
885.9	21804
886.025	21941
886.15	21926
886.275	21800
886.4	21614
886.525	21842
886.65	21774
886.775	21854
886.9	22002
887.025	21975
887.149	21857
887.274	21705
887.399	21637
887.523	21648
887.648	21515
887.773	21545
887.897	21690
888.021	21595
888.146	21526
888.27	21732
888.395	21720
888.519	21633
888.643	21660
888.767	21610
888.891	21530
889.015	21298
889.139	21576
889.263	21408
889.387	21553
889.511	21660
889.635	21473
889.759	21340
889.883	21370
890.006	21348
890.13	21545
890.254	21344
890.377	21264
890.501	21188
890.624	21131
890.748	21138
890.871	21039
890.995	20979
891.118	20982
891.241	21001
891.364	20918
891.488	21074
891.611	21036
891.734	20891
891.857	20914
891.98	20891
892.103	21020
892.226	20857
892.349	20758
892.471	20632
892.594	20845
892.717	20891
892.839	20834
892.962	20796
893.085	20933
893.207	20758
893.33	20781
893.452	21005
893.575	20925
893.697	20750
893.819	21005
893.941	21131
894.064	20967
894.186	20720
894.308	20781
894.43	20933
894.552	20956
894.674	20952
894.796	20765
894.918	20765
895.04	20727
895.161	20883
895.283	20914
895.405	20792
895.526	20880
895.648	20705
895.769	20807
895.891	20861
896.012	20853
896.134	20830
896.255	20739
896.376	20750
896.498	20838
896.619	20830
896.74	20891
896.861	20811
896.982	21005
897.103	21180
897.224	21112
897.345	20986
897.466	20872
897.587	21081
897.708	21066
897.828	21085
897.949	20979
898.07	20868
898.19	20937
898.311	21074
898.431	20990
898.552	21116
898.672	21058
898.792	21119
898.913	20956
899.033	20982
899.153	20785
899.273	20667
899.393	20773
899.513	20678
899.633	20765
899.753	20811
899.873	20731
899.993	20724
900.113	20648
900.232	20712
900.352	20651
900.472	20568
900.591	20537
900.711	20522
900.83	20507
900.95	20651
901.069	20686
901.189	20381
901.308	20263
901.427	20126
901.546	20054
901.665	20191
901.784	20119
901.904	19940
902.023	19944
902.141	19647
902.26	19662
902.379	19723
902.498	19559
902.617	19480
902.735	19609
902.854	19582
902.973	19495
903.091	19270
903.21	19255
903.328	19183
903.446	19107
903.565	19027
903.683	19038
903.801	18962
903.919	18985
904.038	19053
904.156	18863
904.274	18962
904.392	18791
904.51	18806
904.627	18814
904.745	18897
904.863	18954
904.981	18597
905.098	18582
905.216	18494
905.334	18521
905.451	18506
905.569	18441
905.686	18498
905.803	18471
905.921	18327
906.038	18426
906.155	18315
906.272	18254
906.389	18270
906.506	18117
906.623	18064
906.74	18095
906.857	17988
906.974	17977
907.091	18205
907.208	18129
907.324	18053
907.441	17927
907.557	17889
907.674	17630
907.79	17695
907.907	17726
908.023	17668
908.139	17771
908.256	17570
908.372	17547
908.488	17581
908.604	17592
908.72	17440
908.836	17490
908.952	17429
909.068	17558
909.184	17535
909.3	17448
909.415	17562
909.531	17554
909.647	17216
909.762	17067
909.878	17143
909.993	17136
910.108	17090
910.224	17098
910.339	17117
910.454	17037
910.57	17003
910.685	16968
910.8	17258
910.915	17041
911.03	16930
911.145	16782
911.259	16721
911.374	16725
911.489	16710
911.604	16596
911.718	16470
911.833	16474
911.947	16356
912.062	16280
912.176	16447
912.291	16386
912.405	16356
912.519	16675
912.633	16649
912.748	16470
912.862	16573
912.976	16234
913.09	16082
913.204	16379
913.318	16424
913.431	16371
913.545	16310
913.659	16455
913.772	16276
913.886	16071
914	16051
914.113	16147
914.226	16139
914.34	16185
914.453	15941
914.566	16048
914.68	15892
914.793	15945
914.906	15774
915.019	15686
915.132	15667
915.245	15648
915.358	15770
915.47	15743
915.583	15644
915.696	15766
915.809	15793
915.921	15819
916.034	15595
916.146	15625
916.259	15538
916.371	15618
916.483	15660
916.595	15545
916.708	15458
916.82	15473
916.932	15378
917.044	15469
917.156	15382
917.268	15245
917.38	15279
917.491	15188
917.603	15340
917.715	15408
917.826	15344
917.938	15135
918.049	15184
918.161	15294
918.272	15431
918.384	15351
918.495	15233
918.606	15020
918.717	15001
918.828	15089
918.939	15028
919.05	14952
919.161	14982
919.272	14781
919.383	14929
919.494	15188
919.604	15241
919.715	15028
919.826	15009
919.936	14918
920.047	15013
920.157	15001
920.267	15112
920.378	15017
920.488	14998
920.598	15176
920.708	15298
920.818	15116
920.928	15138
921.038	15268
921.148	15233
921.258	14960
921.368	14872
921.477	14834
921.587	14640
921.697	14610
921.806	14678
921.916	14598
922.025	14351
922.134	14393
922.244	14309
922.353	14400
922.462	14210
922.571	14244
922.68	14031
922.789	13993
922.898	14046
923.007	13898
923.116	14058
923.224	14043
923.333	13940
923.442	13879
923.55	13868
923.659	13818
923.767	13837
923.876	13704
923.984	13811
924.092	13696
924.201	13746
924.309	13769
924.417	13750
924.525	13616
924.633	13616
924.741	14575
924.849	13430
924.956	13605
925.064	13422
925.172	13304
925.279	13335
925.387	13373
925.494	13365
925.602	13544
925.709	13438
925.816	13327
925.924	13400
926.031	13491
926.138	13244
926.245	13373
926.352	13209
926.459	13415
926.566	13464
926.673	13240
926.779	13129
926.886	13088
926.993	12901
927.099	12859
927.206	12920
927.312	12958
927.419	13012
927.525	12924
927.631	12913
927.737	12817
927.843	12688
927.95	12593
928.056	12654
928.162	12642
928.267	12738
928.373	13240
928.479	12886
928.585	12509
928.69	12688
928.796	12650
928.901	12597
929.007	12388
929.112	12677
929.218	12566
929.323	12467
929.428	12429
929.533	12639
929.638	12437
929.743	12433
929.848	12452
929.953	12334
930.058	12315
930.163	12171
930.267	12175
930.372	12209
930.477	12102
930.581	12327
930.685	12216
930.79	11988
930.894	12060
930.998	11988
931.103	12144
931.207	11764
931.311	11707
931.415	11596
931.519	11421
931.623	11360
