Data from test_V78500241_1003.txt Node
Date: Fri Mar 25 15:16:50 CST 2022
User: usil
Spectrometer: V785-0024
Trigger mode: 0
Integration Time (sec): 4.000000E-1
Scans to average: 1
Nonlinearity correction enabled: false
Boxcar width: 0
Storing dark spectrum: false
XAxis mode: Wavelengths
Number of Pixels in Spectrum: 1024
>>>>>Begin Spectral Data<<<<<
801.071	28421
801.214	28356
801.356	28105
801.499	28200
801.641	28021
801.783	27987
801.926	28040
802.068	27994
802.211	27884
802.353	27960
802.496	27671
802.638	27736
802.78	27675
802.923	27686
803.065	27587
803.208	27553
803.35	27671
803.492	27644
803.635	27907
803.777	27835
803.919	27876
804.061	28268
804.204	28090
804.346	27846
804.488	27774
804.63	27781
804.773	27812
804.915	27876
805.057	28124
805.199	27953
805.341	27987
805.483	28002
805.626	27926
805.768	27838
805.91	28097
806.052	28021
806.194	27937
806.336	28143
806.478	28063
806.62	28131
806.762	28169
806.904	28352
807.046	28531
807.188	28561
807.33	28466
807.472	28580
807.614	28462
807.756	28352
807.898	28401
808.04	28207
808.182	28348
808.324	28413
808.465	28493
808.607	28481
808.749	28611
808.891	28881
809.033	28835
809.174	28847
809.316	28596
809.458	28497
809.6	28645
809.741	28805
809.883	28824
810.025	28999
810.166	29025
810.308	28877
810.45	28911
810.591	28923
810.733	28717
810.875	28679
811.016	28634
811.158	28649
811.299	28793
811.441	28869
811.582	28729
811.724	28771
811.865	28774
812.007	28599
812.148	28752
812.29	28862
812.431	28919
812.573	29064
812.714	29052
812.855	29105
812.997	29307
813.138	29566
813.279	29528
813.421	29372
813.562	29261
813.703	29193
813.845	28984
813.986	28793
814.127	28474
814.268	28428
814.41	28497
814.551	28390
814.692	28485
814.833	28550
814.974	28375
815.115	28516
815.256	28253
815.397	28352
815.539	28337
815.68	28215
815.821	28238
815.962	28360
816.103	28409
816.244	28074
816.385	28010
816.526	28044
816.666	27994
816.807	27778
816.948	27846
817.089	28029
817.23	27926
817.371	27880
817.512	27732
817.653	27827
817.793	27876
817.934	27850
818.075	27888
818.216	27949
818.356	27736
818.497	27694
818.638	27488
818.778	27511
818.919	27545
819.06	27427
819.2	27568
819.341	27614
819.481	27781
819.622	27960
819.762	28192
819.903	27979
820.043	27964
820.184	27918
820.324	27953
820.465	28013
820.605	27911
820.746	27857
820.886	27793
821.026	27819
821.167	27789
821.307	27880
821.447	27838
821.588	27663
821.728	27580
821.868	27313
822.008	27283
822.149	27146
822.289	27222
822.429	26944
822.569	26815
822.709	27051
822.849	26956
822.99	26762
823.13	26644
823.27	26693
823.41	26495
823.55	26453
823.69	26640
823.83	26602
823.97	26469
824.11	26385
824.25	26355
824.389	26404
824.529	26434
824.669	26549
824.809	26663
824.949	26518
825.089	26549
825.228	26473
825.368	26434
825.508	26328
825.648	26309
825.787	26370
825.927	26290
826.067	26301
826.206	26218
826.346	26362
826.485	26275
826.625	26404
826.765	26355
826.904	26301
827.044	25997
827.183	26134
827.323	26111
827.462	26145
827.601	25997
827.741	26073
827.88	25986
828.02	26001
828.159	26008
828.298	25997
828.437	25963
828.577	25917
828.716	26149
828.855	25784
828.994	25772
829.134	25670
829.273	25807
829.412	25700
829.551	25689
829.69	25875
829.829	25784
829.968	25849
830.107	25601
830.246	25868
830.385	25594
830.524	25586
830.663	25506
830.802	25487
830.941	25274
831.08	25350
831.219	25392
831.357	25400
831.496	25537
831.635	25228
831.774	25362
831.913	25221
832.051	25187
832.19	25023
832.329	25156
832.467	24973
832.606	25015
832.744	24951
832.883	25084
833.022	24897
833.16	25175
833.299	25080
833.437	25080
833.576	25118
833.714	25065
833.852	25213
833.991	25141
834.129	25133
834.267	25187
834.406	25050
834.544	25198
834.682	25038
834.821	24897
834.959	25171
835.097	24954
835.235	25107
835.373	25175
835.511	25168
835.65	25061
835.788	24962
835.926	24772
836.064	24768
836.202	24817
836.34	24947
836.478	24966
836.615	24905
836.753	24920
836.891	24970
837.029	24939
837.167	24932
837.305	24924
837.443	24741
837.58	24814
837.718	24939
837.856	24814
837.993	24745
838.131	24593
838.269	24589
838.406	24646
838.544	24582
838.681	24361
838.819	24300
838.956	24216
839.094	24323
839.231	24216
839.369	24258
839.506	24669
839.643	24502
839.781	24232
839.918	24228
840.055	24350
840.193	24209
840.33	24254
840.467	24197
840.604	24239
840.742	24460
840.879	24117
841.016	23931
841.153	23984
841.29	24266
841.427	24026
841.564	24121
841.701	24049
841.838	24140
841.975	24110
842.112	24186
842.249	23809
842.385	23817
842.522	24041
842.659	23847
842.796	23813
842.933	23973
843.069	23961
843.206	23832
843.343	23923
843.479	23802
843.616	23912
843.752	23615
843.889	23684
844.025	23893
844.162	23619
844.298	23790
844.435	23562
844.571	23619
844.708	23600
844.844	23817
844.98	23764
845.117	23779
845.253	23718
845.389	23600
845.525	23676
845.661	23433
845.798	23311
845.934	23455
846.07	23387
846.206	23414
846.342	23497
846.478	23402
846.614	23318
846.75	22972
846.886	22995
847.022	23128
847.158	23102
847.294	23204
847.429	23246
847.565	22965
847.701	23235
847.837	22942
847.972	22812
848.108	22942
848.244	22854
848.379	22710
848.515	22755
848.65	22687
848.786	22634
848.921	22698
849.057	22881
849.192	22858
849.328	22721
849.463	22752
849.598	22584
849.734	22660
849.869	22455
850.004	22485
850.14	22413
850.275	22500
850.41	22360
850.545	22470
850.68	22489
850.815	22474
850.95	22500
851.085	22603
851.22	22531
851.355	22379
851.49	22440
851.625	22428
851.76	22394
851.895	22325
852.03	22360
852.165	22512
852.299	22459
852.434	22481
852.569	22550
852.703	22382
852.838	22577
852.973	22649
853.107	22527
853.242	22310
853.376	22249
853.511	22325
853.645	22242
853.78	22440
853.914	22352
854.048	22185
854.183	22310
854.317	22291
854.451	22436
854.585	22398
854.72	22337
854.854	22375
854.988	22379
855.122	22207
855.256	22120
855.39	22318
855.524	22322
855.658	22226
855.792	22325
855.926	22386
856.06	22158
856.194	22371
856.327	22150
856.461	22200
856.595	22249
856.729	22200
856.862	22440
856.996	22337
857.13	22325
857.263	22318
857.397	22432
857.53	22360
857.664	22314
857.797	22261
857.931	22459
858.064	22242
858.197	22478
858.331	22360
858.464	22207
858.597	22147
858.731	22188
858.864	22196
858.997	22284
859.13	22329
859.263	22291
859.396	22314
859.529	22211
859.662	22196
859.795	22291
859.928	22375
860.061	22428
860.194	22481
860.327	22371
860.46	22310
860.592	22371
860.725	22405
860.858	22386
860.99	22287
861.123	22257
861.256	22204
861.388	22276
861.521	22930
861.653	22211
861.786	22059
861.918	22097
862.05	22131
862.183	22257
862.315	22344
862.447	22280
862.58	22128
862.712	22139
862.844	21835
862.976	21960
863.108	22029
863.24	22333
863.372	21983
863.504	21903
863.636	21903
863.768	21945
863.9	22002
864.032	21861
864.164	21918
864.296	21960
864.428	22188
864.559	22131
864.691	22074
864.823	21979
864.954	21911
865.086	21903
865.217	21884
865.349	21770
865.48	21797
865.612	21846
865.743	22040
865.875	21876
866.006	21857
866.137	21865
866.269	21797
866.4	21842
866.531	21739
866.662	21690
866.793	21682
866.924	21835
867.055	21781
867.186	21930
867.317	21743
867.448	21774
867.579	21781
867.71	21736
867.841	21732
867.972	21838
868.103	21663
868.233	21804
868.364	21743
868.495	21774
868.625	22090
868.756	22150
868.886	21903
869.017	21994
869.147	22090
869.278	22101
869.408	22006
869.539	22093
869.669	22059
869.799	22013
869.929	22150
870.06	22162
870.19	22337
870.32	22207
870.45	22402
870.58	22497
870.71	22462
870.84	22535
870.97	22390
871.1	22474
871.23	22485
871.36	22672
871.489	22481
871.619	22573
871.749	22546
871.879	22599
872.008	22653
872.138	22615
872.267	22542
872.397	22508
872.526	22379
872.656	22470
872.785	22508
872.915	22763
873.044	22672
873.173	22626
873.303	22584
873.432	22740
873.561	22721
873.69	22641
873.819	22618
873.948	22790
874.077	22599
874.206	22527
874.335	22733
874.464	22900
874.593	22805
874.722	22854
874.851	22801
874.979	22911
875.108	22900
875.237	22847
875.365	22835
875.494	22850
875.623	22843
875.751	22748
875.88	22911
876.008	22900
876.136	23006
876.265	23273
876.393	23573
876.521	23208
876.65	23296
876.778	23223
876.906	23166
877.034	23132
877.162	23235
877.29	23166
877.418	23067
877.546	23200
877.674	23197
877.802	23212
877.93	23143
878.058	23189
878.185	23014
878.313	23155
878.441	23193
878.568	23025
878.696	23048
878.824	23162
878.951	23307
879.079	23360
879.206	23379
879.333	23303
879.461	23223
879.588	23250
879.715	23322
879.842	23577
879.97	23269
880.097	23071
880.224	23010
880.351	23136
880.478	23071
880.605	22812
880.732	23140
880.859	23322
880.986	23083
881.112	23006
881.239	22892
881.366	22694
881.493	22607
881.619	22493
881.746	22546
881.872	22668
881.999	22451
882.125	22432
882.252	22596
882.378	22550
882.505	22641
882.631	22360
882.757	22272
882.883	22386
883.01	22341
883.136	22188
883.262	22006
883.388	22093
883.514	22185
883.64	22314
883.766	22219
883.892	22021
884.018	21972
884.143	22223
884.269	22329
884.395	22063
884.52	21903
884.646	21876
884.772	21861
884.897	21804
885.023	21937
885.148	22017
885.274	22120
885.399	21953
885.524	21918
885.65	21953
885.775	21922
885.9	21838
886.025	21998
886.15	22013
886.275	21873
886.4	21766
886.525	21888
886.65	21880
886.775	21884
886.9	21968
887.025	21991
887.149	21827
887.274	21663
887.399	21679
887.523	21728
887.648	21633
887.773	21568
887.897	21770
888.021	21671
888.146	21656
888.27	21781
888.395	21701
888.519	21667
888.643	21709
888.767	21694
888.891	21458
889.015	21458
889.139	21580
889.263	21386
889.387	21523
889.511	21736
889.635	21583
889.759	21420
889.883	21401
890.006	21405
890.13	21481
890.254	21450
890.377	21401
890.501	21142
890.624	21214
890.748	21355
890.871	21074
890.995	20971
891.118	20956
891.241	20979
891.364	21013
891.488	21119
891.611	20998
891.734	21001
891.857	21058
891.98	21089
892.103	20933
892.226	21096
892.349	20906
892.471	20724
892.594	20842
892.717	20937
892.839	20864
892.962	20891
893.085	20952
893.207	20868
893.33	20811
893.452	20823
893.575	21017
893.697	20811
893.819	21108
893.941	20990
894.064	20944
894.186	20857
894.308	20834
894.43	21108
894.552	20933
894.674	20944
894.796	20712
894.918	20880
895.04	20891
895.161	20971
895.283	20902
895.405	20788
895.526	20785
895.648	20849
895.769	20887
895.891	20864
896.012	21009
896.134	20861
896.255	20887
896.376	20845
896.498	20895
896.619	20952
896.74	20914
896.861	20971
896.982	21275
897.103	21169
897.224	21108
897.345	21119
897.466	20960
897.587	21058
897.708	21275
897.828	21013
897.949	21089
898.07	20937
898.19	20956
898.311	21043
898.431	20960
898.552	21017
898.672	21066
898.792	21241
898.913	21020
899.033	21024
899.153	20819
899.273	20796
899.393	20667
899.513	20883
899.633	20895
899.753	20765
899.873	20811
899.993	20693
900.113	20724
900.232	20716
900.352	20617
900.472	20587
900.591	20537
900.711	20686
900.83	20484
900.95	20689
901.069	20697
901.189	20499
901.308	20237
901.427	20233
901.546	20073
901.665	20084
901.784	20221
901.904	20031
902.023	19906
902.141	19647
902.26	19685
902.379	19712
902.498	19639
902.617	19670
902.735	19662
902.854	19544
902.973	19483
903.091	19236
903.21	19266
903.328	19346
903.446	19244
903.565	19088
903.683	19122
903.801	19008
903.919	18989
904.038	19057
904.156	18882
904.274	18981
904.392	18783
904.51	18878
904.627	18753
904.745	18882
904.863	18875
904.981	18726
905.098	18471
905.216	18639
905.334	18536
905.451	18601
905.569	18471
905.686	18601
905.803	18418
905.921	18266
906.038	18490
906.155	18361
906.272	18254
906.389	18220
906.506	18079
906.623	18072
906.74	18038
906.857	17935
906.974	17813
907.091	18136
907.208	18213
907.324	18007
907.441	17889
907.557	17771
907.674	17695
907.79	17710
907.907	17691
908.023	17874
908.139	17828
908.256	17745
908.372	17657
908.488	17634
908.604	17566
908.72	17566
908.836	17471
908.952	17543
909.068	17554
909.184	17463
909.3	17467
909.415	17524
909.531	17562
909.647	17246
909.762	17204
909.878	17117
909.993	17128
910.108	17128
910.224	17113
910.339	17189
910.454	16995
910.57	16953
910.685	16900
910.8	17124
910.915	17056
911.03	17018
911.145	16839
911.259	16767
911.374	16824
911.489	16660
911.604	16649
911.718	16538
911.833	16451
911.947	16402
912.062	16344
912.176	16398
912.291	16451
912.405	16497
912.519	16778
912.633	16744
912.748	16523
912.862	16485
912.976	16413
913.09	16295
913.204	16196
913.318	16375
913.431	16379
913.545	16360
913.659	16409
913.772	16249
913.886	16131
914	16078
914.113	16154
914.226	16325
914.34	16215
914.453	16067
914.566	16147
914.68	15998
914.793	15998
914.906	15713
915.019	15705
915.132	15625
915.245	15618
915.358	15739
915.47	15743
915.583	15759
915.696	15690
915.809	15827
915.921	15762
916.034	15641
916.146	15511
916.259	15515
916.371	15701
916.483	15629
916.595	15576
916.708	15553
916.82	15466
916.932	15443
917.044	15466
917.156	15439
917.268	15401
917.38	15317
917.491	15351
917.603	15351
917.715	15412
917.826	15340
917.938	15283
918.049	15138
918.161	15344
918.272	15386
918.384	15355
918.495	15252
918.606	15085
918.717	15036
918.828	15081
918.939	15123
919.05	14998
919.161	15089
919.272	14880
919.383	14986
919.494	15081
919.604	15272
919.715	15104
919.826	14956
919.936	14952
920.047	15062
920.157	15077
920.267	15192
920.378	15039
920.488	15001
920.598	15135
920.708	15279
920.818	15142
920.928	15226
921.038	15279
921.148	15207
921.258	14925
921.368	14823
921.477	14769
921.587	14644
921.697	14541
921.806	14739
921.916	14663
922.025	14419
922.134	14324
922.244	14248
922.353	14377
922.462	14343
922.571	14145
922.68	14065
922.789	14024
922.898	13898
923.007	13989
923.116	14027
923.224	14008
923.333	13989
923.442	13845
923.55	13807
923.659	13830
923.767	13936
923.876	13772
923.984	13925
924.092	13822
924.201	13776
924.309	13769
924.417	13818
924.525	13681
924.633	13651
924.741	14587
924.849	13468
924.956	13601
925.064	13460
925.172	13373
925.279	13445
925.387	13441
925.494	13506
925.602	13514
925.709	13491
925.816	13320
925.924	13335
926.031	13415
926.138	13297
926.245	13434
926.352	13324
926.459	13350
926.566	13384
926.673	13312
926.779	13213
926.886	13168
926.993	12973
927.099	12973
927.206	12928
927.312	12806
927.419	12993
927.525	12916
927.631	12947
927.737	12833
927.843	12821
927.95	12692
928.056	12779
928.162	12719
928.267	12825
928.373	13362
928.479	12840
928.585	12646
928.69	12692
928.796	12753
928.901	12669
929.007	12517
929.112	12703
929.218	12578
929.323	12441
929.428	12502
929.533	12570
929.638	12426
929.743	12422
929.848	12448
929.953	12414
930.058	12266
930.163	12125
930.267	12243
930.372	12327
930.477	12091
930.581	12296
930.685	12129
930.79	11988
930.894	12060
930.998	11999
931.103	12175
931.207	11832
931.311	11619
931.415	11577
931.519	11391
931.623	11467
