Data from test_V78500241_3032.txt Node
Date: Fri Mar 25 15:30:58 CST 2022
User: usil
Spectrometer: V785-0024
Trigger mode: 0
Integration Time (sec): 4.000000E-1
Scans to average: 1
Nonlinearity correction enabled: false
Boxcar width: 0
Storing dark spectrum: false
XAxis mode: Wavelengths
Number of Pixels in Spectrum: 1024
>>>>>Begin Spectral Data<<<<<
801.071	27252
801.214	27180
801.356	27013
801.499	27020
801.641	26785
801.783	26887
801.926	26902
802.068	26693
802.211	26667
802.353	26640
802.496	26446
802.638	26469
802.78	26446
802.923	26256
803.065	26404
803.208	26313
803.35	26256
803.492	26526
803.635	26663
803.777	26480
803.919	26625
804.061	26868
804.204	26727
804.346	26492
804.488	26343
804.63	26587
804.773	26453
804.915	26663
805.057	26804
805.199	26594
805.341	26602
805.483	26765
805.626	26834
805.768	26602
805.91	26754
806.052	26705
806.194	26689
806.336	26906
806.478	26724
806.62	26621
806.762	26765
806.904	26895
807.046	27199
807.188	27058
807.33	27157
807.472	27123
807.614	27100
807.756	26960
807.898	26963
808.04	26773
808.182	26826
808.324	27001
808.465	26963
808.607	27142
808.749	27180
808.891	27355
809.033	27370
809.174	27332
809.316	27336
809.458	27222
809.6	27291
809.741	27279
809.883	27504
810.025	27572
810.166	27622
810.308	27614
810.45	27507
810.591	27351
810.733	27473
810.875	27306
811.016	27329
811.158	27233
811.299	27370
811.441	27519
811.582	27447
811.724	27348
811.865	27283
812.007	27188
812.148	27302
812.29	27298
812.431	27427
812.573	27595
812.714	27629
812.855	27797
812.997	27819
813.138	28010
813.279	27831
813.421	27751
813.562	27717
813.703	27614
813.845	27431
813.986	27214
814.127	26929
814.268	26826
814.41	26944
814.551	26925
814.692	26918
814.833	26788
814.974	26933
815.115	26914
815.256	26891
815.397	26887
815.539	26861
815.68	26800
815.821	26594
815.962	26739
816.103	26826
816.244	26518
816.385	26568
816.526	26313
816.666	26221
816.807	26161
816.948	26145
817.089	26275
817.23	26187
817.371	26046
817.512	26172
817.653	26027
817.793	26103
817.934	26286
818.075	26092
818.216	26286
818.356	26218
818.497	26103
818.638	25769
818.778	26005
818.919	25982
819.06	26008
819.2	26043
819.341	26210
819.481	26180
819.622	26275
819.762	26415
819.903	26393
820.043	26385
820.184	26385
820.324	26237
820.465	26423
820.605	26362
820.746	26358
820.886	25974
821.026	26240
821.167	26214
821.307	26237
821.447	26172
821.588	26077
821.728	25993
821.868	25791
822.008	25685
822.149	25643
822.289	25662
822.429	25324
822.569	25263
822.709	25358
822.849	25236
822.99	25240
823.13	25012
823.27	25038
823.41	25008
823.55	25046
823.69	24981
823.83	24970
823.97	24966
824.11	24753
824.25	24795
824.389	24749
824.529	24825
824.669	24817
824.809	24810
824.949	24939
825.089	24776
825.228	24798
825.368	24707
825.508	24502
825.648	24627
825.787	24658
825.927	24688
826.067	24544
826.206	24688
826.346	24589
826.485	24703
826.625	24555
826.765	24783
826.904	24700
827.044	24445
827.183	24369
827.323	24376
827.462	24498
827.601	24391
827.741	24346
827.88	24285
828.02	24194
828.159	24365
828.298	24300
828.437	24464
828.577	24350
828.716	24346
828.855	24243
828.994	24098
829.134	24060
829.273	24285
829.412	24053
829.551	24155
829.69	23931
829.829	24114
829.968	24041
830.107	24213
830.246	24064
830.385	23935
830.524	23999
830.663	23912
830.802	23840
830.941	23729
831.08	23733
831.219	23809
831.357	23798
831.496	23893
831.635	23657
831.774	23615
831.913	23520
832.051	23554
832.19	23372
832.329	23585
832.467	23353
832.606	23231
832.744	23288
832.883	23364
833.022	23356
833.16	23356
833.299	23455
833.437	23440
833.576	23402
833.714	23493
833.852	23410
833.991	23516
834.129	23615
834.267	23433
834.406	23478
834.544	23425
834.682	23315
834.821	23433
834.959	23630
835.097	23326
835.235	23551
835.373	23440
835.511	23318
835.65	23220
835.788	23356
835.926	23029
836.064	22938
836.202	23033
836.34	23273
836.478	23292
836.615	23284
836.753	23261
836.891	23387
837.029	23242
837.167	23220
837.305	23185
837.443	23140
837.58	23170
837.718	23242
837.856	23128
837.993	23029
838.131	23041
838.269	22957
838.406	23006
838.544	22908
838.681	22752
838.819	22809
838.956	22668
839.094	22588
839.231	22607
839.369	22835
839.506	22877
839.643	22809
839.781	22481
839.918	22561
840.055	22607
840.193	22550
840.33	22466
840.467	22440
840.604	22584
840.742	22786
840.879	22443
841.016	22386
841.153	22352
841.29	22668
841.427	22451
841.564	22504
841.701	22497
841.838	22474
841.975	22481
842.112	22337
842.249	22500
842.385	22287
842.522	22573
842.659	22310
842.796	22219
842.933	22234
843.069	22169
843.206	22169
843.343	22303
843.479	22318
843.616	22268
843.752	22086
843.889	22093
844.025	22147
844.162	21968
844.298	22055
844.435	22029
844.571	21998
844.708	22048
844.844	22246
844.98	22059
845.117	22131
845.253	22048
845.389	21934
845.525	21907
845.661	21850
845.798	21755
845.934	21831
846.07	21797
846.206	21922
846.342	21842
846.478	21778
846.614	21549
846.75	21435
846.886	21488
847.022	21682
847.158	21447
847.294	21580
847.429	21473
847.565	21485
847.701	21667
847.837	21283
847.972	21157
848.108	21298
848.244	21260
848.379	21150
848.515	21028
848.65	21081
848.786	21180
848.921	21089
849.057	21230
849.192	21096
849.328	21138
849.463	21138
849.598	20967
849.734	20986
849.869	20948
850.004	20868
850.14	20891
850.275	20937
850.41	20746
850.545	20807
850.68	20842
850.815	20914
850.95	20895
851.085	21070
851.22	20963
851.355	20971
851.49	20800
851.625	20701
851.76	20807
851.895	20811
852.03	20754
852.165	20918
852.299	20872
852.434	20906
852.569	20906
852.703	20899
852.838	20891
852.973	21024
853.107	20956
853.242	20769
853.376	20800
853.511	20705
853.645	20575
853.78	20724
853.914	20708
854.048	20629
854.183	20609
854.317	20697
854.451	20861
854.585	20556
854.72	20693
854.854	20796
854.988	20636
855.122	20701
855.256	20587
855.39	20697
855.524	20750
855.658	20735
855.792	20629
855.926	20712
856.06	20686
856.194	20727
856.327	20636
856.461	20636
856.595	20670
856.729	20575
856.862	20686
856.996	20648
857.13	20678
857.263	20765
857.397	20644
857.53	20613
857.664	20701
857.797	20708
857.931	20788
858.064	20758
858.197	20792
858.331	20777
858.464	20609
858.597	20575
858.731	20697
858.864	20518
858.997	20644
859.13	20667
859.263	20648
859.396	20811
859.529	20579
859.662	20701
859.795	20533
859.928	20659
860.061	20937
860.194	20861
860.327	20655
860.46	20724
860.592	20731
860.725	20861
860.858	20663
860.99	20590
861.123	20632
861.256	20571
861.388	20708
861.521	21203
861.653	20621
861.786	20419
861.918	20484
862.05	20632
862.183	20678
862.315	20720
862.447	20648
862.58	20602
862.712	20507
862.844	20343
862.976	20419
863.108	20450
863.24	20929
863.372	20339
863.504	20377
863.636	20332
863.768	20408
863.9	20499
864.032	20404
864.164	20290
864.296	20461
864.428	20457
864.559	20514
864.691	20511
864.823	20438
864.954	20404
865.086	20374
865.217	20275
865.349	20202
865.48	20278
865.612	20229
865.743	20442
865.875	20271
866.006	20191
866.137	20176
866.269	20339
866.4	20355
866.531	20240
866.662	20237
866.793	20214
866.924	20161
867.055	20233
867.186	20130
867.317	20199
867.448	20259
867.579	20233
867.71	20191
867.841	20157
867.972	20191
868.103	20237
868.233	20240
868.364	20229
868.495	20358
868.625	20492
868.756	20549
868.886	20526
869.017	20461
869.147	20678
869.278	20636
869.408	20587
869.539	20438
869.669	20564
869.799	20499
869.929	20640
870.06	20659
870.19	20819
870.32	20811
870.45	20838
870.58	20872
870.71	21032
870.84	21017
870.97	20830
871.1	20891
871.23	21093
871.36	21081
871.489	21108
871.619	20967
871.749	21028
871.879	20998
872.008	21252
872.138	21043
872.267	21058
872.397	20925
872.526	20982
872.656	20960
872.785	20918
872.915	21161
873.044	21108
873.173	21085
873.303	21165
873.432	21062
873.561	21260
873.69	21108
873.819	21104
873.948	21184
874.077	21093
874.206	21001
874.335	21119
874.464	21249
874.593	21386
874.722	21279
874.851	21439
874.979	21306
875.108	21348
875.237	21370
875.365	21169
875.494	21275
875.623	21447
875.751	21302
875.88	21405
876.008	21511
876.136	21504
876.265	21827
876.393	21831
876.521	21854
876.65	21880
876.778	21686
876.906	21701
877.034	21724
877.162	21743
877.29	21709
877.418	21682
877.546	21793
877.674	21709
877.802	21633
877.93	21709
878.058	21644
878.185	21515
878.313	21606
878.441	21633
878.568	21523
878.696	21542
878.824	21751
878.951	21842
879.079	21846
879.206	21876
879.333	21762
879.461	21732
879.588	21694
879.715	21831
879.842	21842
879.97	21785
880.097	21534
880.224	21504
880.351	21690
880.478	21466
880.605	21443
880.732	21545
880.859	21819
880.986	21469
881.112	21504
881.239	21317
881.366	21329
881.493	21184
881.619	21100
881.746	21047
881.872	21131
881.999	21085
882.125	20990
882.252	21161
882.378	21066
882.505	21085
882.631	20963
882.757	20891
882.883	20883
883.01	20792
883.136	20754
883.262	20655
883.388	20663
883.514	20800
883.64	20807
883.766	20727
883.892	20552
884.018	20758
884.143	20880
884.269	20876
884.395	20579
884.52	20537
884.646	20423
884.772	20404
884.897	20317
885.023	20499
885.148	20602
885.274	20640
885.399	20541
885.524	20434
885.65	20419
885.775	20564
885.9	20393
886.025	20640
886.15	20648
886.275	20476
886.4	20412
886.525	20366
886.65	20324
886.775	20385
886.9	20469
887.025	20708
887.149	20393
887.274	20107
887.399	20183
887.523	20191
887.648	20084
887.773	20176
887.897	20366
888.021	20134
888.146	20115
888.27	20366
888.395	20282
888.519	20320
888.643	20347
888.767	20240
888.891	20172
889.015	20100
889.139	20081
889.263	20046
889.387	20149
889.511	20263
889.635	20103
889.759	20027
889.883	19959
890.006	20008
890.13	20103
890.254	19928
890.377	19936
890.501	19879
890.624	19712
890.748	19852
890.871	19727
890.995	19605
891.118	19575
891.241	19594
891.364	19643
891.488	19719
891.611	19647
891.734	19556
891.857	19616
891.98	19544
892.103	19639
892.226	19704
892.349	19559
892.471	19434
892.594	19476
892.717	19487
892.839	19548
892.962	19624
893.085	19696
893.207	19529
893.33	19381
893.452	19384
893.575	19510
893.697	19540
893.819	19658
893.941	19780
894.064	19651
894.186	19525
894.308	19415
894.43	19567
894.552	19693
894.674	19521
894.796	19430
894.918	19540
895.04	19521
895.161	19620
895.283	19502
895.405	19441
895.526	19537
895.648	19613
895.769	19666
895.891	19514
896.012	19605
896.134	19529
896.255	19521
896.376	19476
896.498	19388
896.619	19430
896.74	19597
896.861	19609
896.982	19780
897.103	19993
897.224	19708
897.345	19693
897.466	19647
897.587	19753
897.708	19860
897.828	19830
897.949	19655
898.07	19643
898.19	19700
898.311	19845
898.431	19624
898.552	19837
898.672	19860
898.792	19940
898.913	19761
899.033	19662
899.153	19533
899.273	19335
899.393	19499
899.513	19537
899.633	19483
899.753	19537
899.873	19491
899.993	19544
900.113	19441
900.232	19460
900.352	19346
900.472	19350
900.591	19266
900.711	19301
900.83	19236
900.95	19441
901.069	19384
901.189	19164
901.308	18871
901.427	18867
901.546	19019
901.665	18993
901.784	18852
901.904	18658
902.023	18612
902.141	18517
902.26	18441
902.379	18612
902.498	18460
902.617	18391
902.735	18361
902.854	18418
902.973	18273
903.091	18228
903.21	17939
903.328	18140
903.446	18030
903.565	17958
903.683	17843
903.801	17847
903.919	17946
904.038	17946
904.156	17783
904.274	17718
904.392	17672
904.51	17699
904.627	17581
904.745	17596
904.863	17745
904.981	17592
905.098	17364
905.216	17288
905.334	17345
905.451	17429
905.569	17189
905.686	17391
905.803	17368
905.921	17227
906.038	17197
906.155	17185
906.272	17083
906.389	17102
906.506	16942
906.623	16881
906.74	16972
906.857	16782
906.974	16866
907.091	16923
907.208	17014
907.324	16949
907.441	16660
907.557	16698
907.674	16717
907.79	16592
907.907	16618
908.023	16641
908.139	16626
908.256	16512
908.372	16592
908.488	16459
908.604	16440
908.72	16341
908.836	16230
908.952	16265
909.068	16280
909.184	16360
909.3	16356
909.415	16356
909.531	16303
909.647	16128
909.762	16078
909.878	16097
909.993	16086
910.108	15972
910.224	16010
910.339	15998
910.454	15892
910.57	15861
910.685	15835
910.8	16010
910.915	16025
911.03	15873
911.145	15713
911.259	15667
911.374	15663
911.489	15606
911.604	15542
911.718	15382
911.833	15420
911.947	15272
912.062	15344
912.176	15408
912.291	15542
912.405	15454
912.519	15618
912.633	15671
912.748	15428
912.862	15283
912.976	15249
913.09	15123
913.204	15169
913.318	15336
913.431	15329
913.545	15370
913.659	15313
913.772	15097
913.886	14971
914	14998
914.113	15119
914.226	15119
914.34	15127
914.453	14891
914.566	15020
914.68	14960
914.793	14819
914.906	14785
915.019	14739
915.132	14560
915.245	14663
915.358	14667
915.47	14575
915.583	14632
915.696	14644
915.809	14785
915.921	14754
916.034	14613
916.146	14549
916.259	14514
916.371	14610
916.483	14606
916.595	14461
916.708	14495
916.82	14450
916.932	14324
917.044	14522
917.156	14393
917.268	14298
917.38	14415
917.491	14324
917.603	14275
917.715	14442
917.826	14377
917.938	14259
918.049	14115
918.161	14183
918.272	14423
918.384	14415
918.495	14290
918.606	14161
918.717	13997
918.828	14157
918.939	14111
919.05	14024
919.161	14103
919.272	13845
919.383	13917
919.494	14100
919.604	14221
919.715	14005
919.826	13944
919.936	14005
920.047	14111
920.157	14092
920.267	14191
920.378	14027
920.488	14031
920.598	14202
920.708	14317
920.818	14149
920.928	14126
921.038	14343
921.148	14210
921.258	14005
921.368	13974
921.477	13894
921.587	13845
921.697	13715
921.806	13750
921.916	13620
922.025	13506
922.134	13499
922.244	13487
922.353	13445
922.462	13343
922.571	13259
922.68	13053
922.789	13149
922.898	13114
923.007	13103
923.116	13095
923.224	13072
923.333	12993
923.442	13057
923.55	12970
923.659	12924
923.767	13023
923.876	12909
923.984	13031
924.092	12821
924.201	12867
924.309	12916
924.417	12856
924.525	12760
924.633	12719
924.741	13639
924.849	12635
924.956	12726
925.064	12627
925.172	12486
925.279	12544
925.387	12574
925.494	12532
925.602	12646
925.709	12551
925.816	12467
925.924	12547
926.031	12566
926.138	12559
926.245	12441
926.352	12414
926.459	12608
926.566	12498
926.673	12376
926.779	12296
926.886	12315
926.993	12197
927.099	12228
927.206	12102
927.312	12144
927.419	12186
927.525	12076
927.631	12144
927.737	12026
927.843	11973
927.95	11840
928.056	11980
928.162	11939
928.267	12057
928.373	12536
928.479	12068
928.585	11855
928.69	12022
928.796	11961
928.901	11843
929.007	11729
929.112	11821
929.218	11790
929.323	11726
929.428	11672
929.533	11870
929.638	11619
929.743	11653
929.848	11729
929.953	11634
930.058	11566
930.163	11421
930.267	11372
930.372	11611
930.477	11341
930.581	11554
930.685	11448
930.79	11277
930.894	11311
930.998	11242
931.103	11429
931.207	11056
931.311	10923
931.415	10915
931.519	10778
931.623	10645
