Data from test_V78500241_2416.txt Node
Date: Fri Mar 25 15:26:40 CST 2022
User: usil
Spectrometer: V785-0024
Trigger mode: 0
Integration Time (sec): 4.000000E-1
Scans to average: 1
Nonlinearity correction enabled: false
Boxcar width: 0
Storing dark spectrum: false
XAxis mode: Wavelengths
Number of Pixels in Spectrum: 1024
>>>>>Begin Spectral Data<<<<<
801.071	27252
801.214	27211
801.356	27085
801.499	26910
801.641	26682
801.783	26655
801.926	26826
802.068	26693
802.211	26640
802.353	26670
802.496	26355
802.638	26339
802.78	26332
802.923	26199
803.065	26317
803.208	26313
803.35	26408
803.492	26613
803.635	26625
803.777	26343
803.919	26526
804.061	26804
804.204	26598
804.346	26438
804.488	26415
804.63	26488
804.773	26579
804.915	26564
805.057	26568
805.199	26469
805.341	26545
805.483	26438
805.626	26678
805.768	26522
805.91	26705
806.052	26587
806.194	26648
806.336	26731
806.478	26488
806.62	26670
806.762	26720
806.904	26845
807.046	27017
807.188	27039
807.33	27211
807.472	27165
807.614	27096
807.756	27047
807.898	26918
808.04	26960
808.182	26838
808.324	26868
808.465	26872
808.607	27024
808.749	27241
808.891	27332
809.033	27424
809.174	27348
809.316	27119
809.458	27245
809.6	27310
809.741	27370
809.883	27447
810.025	27401
810.166	27504
810.308	27454
810.45	27580
810.591	27283
810.733	27260
810.875	27058
811.016	27005
811.158	27157
811.299	27264
811.441	27393
811.582	27329
811.724	27287
811.865	27222
812.007	27180
812.148	27154
812.29	27173
812.431	27408
812.573	27431
812.714	27549
812.855	27831
812.997	27804
813.138	27934
813.279	28044
813.421	27914
813.562	27701
813.703	27523
813.845	27306
813.986	27230
814.127	27005
814.268	26895
814.41	26868
814.551	26975
814.692	26948
814.833	26834
814.974	26792
815.115	26937
815.256	26830
815.397	26769
815.539	26826
815.68	26716
815.821	26594
815.962	26701
816.103	26678
816.244	26473
816.385	26484
816.526	26511
816.666	26218
816.807	26191
816.948	26218
817.089	26267
817.23	26164
817.371	26248
817.512	26138
817.653	26122
817.793	26221
817.934	26062
818.075	26191
818.216	26298
818.356	26267
818.497	26069
818.638	25898
818.778	25909
818.919	25906
819.06	26001
819.2	26111
819.341	26195
819.481	26115
819.622	26206
819.762	26400
819.903	26332
820.043	26290
820.184	26400
820.324	26442
820.465	26275
820.605	26317
820.746	26240
820.886	26050
821.026	26282
821.167	26244
821.307	26351
821.447	26096
821.588	26134
821.728	25978
821.868	25879
822.008	25757
822.149	25674
822.289	25578
822.429	25369
822.569	25282
822.709	25297
822.849	25160
822.99	25091
823.13	25069
823.27	25110
823.41	24954
823.55	24814
823.69	25034
823.83	24939
823.97	24890
824.11	24760
824.25	24749
824.389	24734
824.529	24863
824.669	24711
824.809	24939
824.949	24909
825.089	24863
825.228	24867
825.368	24566
825.508	24673
825.648	24597
825.787	24547
825.927	24688
826.067	24665
826.206	24623
826.346	24719
826.485	24715
826.625	24665
826.765	24661
826.904	24703
827.044	24361
827.183	24509
827.323	24315
827.462	24414
827.601	24330
827.741	24426
827.88	24429
828.02	24262
828.159	24285
828.298	24330
828.437	24338
828.577	24258
828.716	24296
828.855	24296
828.994	24125
829.134	24007
829.273	24102
829.412	23977
829.551	23980
829.69	24083
829.829	24015
829.968	24106
830.107	24163
830.246	24155
830.385	23927
830.524	23893
830.663	23859
830.802	23805
830.941	23600
831.08	23604
831.219	23775
831.357	23623
831.496	23870
831.635	23668
831.774	23592
831.913	23630
832.051	23440
832.19	23410
832.329	23417
832.467	23414
832.606	23360
832.744	23250
832.883	23311
833.022	23258
833.16	23410
833.299	23402
833.437	23349
833.576	23398
833.714	23383
833.852	23436
833.991	23452
834.129	23387
834.267	23509
834.406	23471
834.544	23360
834.682	23471
834.821	23414
834.959	23581
835.097	23360
835.235	23486
835.373	23326
835.511	23330
835.65	23402
835.788	23296
835.926	23090
836.064	23143
836.202	23159
836.34	23208
836.478	23269
836.615	23227
836.753	23170
836.891	23322
837.029	23212
837.167	23151
837.305	23128
837.443	23155
837.58	23124
837.718	23159
837.856	23212
837.993	23075
838.131	23090
838.269	23041
838.406	22999
838.544	22923
838.681	22805
838.819	22824
838.956	22637
839.094	22535
839.231	22611
839.369	22835
839.506	22976
839.643	22812
839.781	22527
839.918	22508
840.055	22611
840.193	22485
840.33	22443
840.467	22402
840.604	22561
840.742	22858
840.879	22375
841.016	22386
841.153	22382
841.29	22710
841.427	22485
841.564	22367
841.701	22531
841.838	22428
841.975	22405
842.112	22398
842.249	22242
842.385	22272
842.522	22409
842.659	22379
842.796	22230
842.933	22253
843.069	22223
843.206	22261
843.343	22112
843.479	22329
843.616	22284
843.752	22029
843.889	21972
844.025	22207
844.162	22036
844.298	22128
844.435	22048
844.571	22021
844.708	22181
844.844	22291
844.98	22200
845.117	22074
845.253	22055
845.389	21846
845.525	22032
845.661	21937
845.798	21770
845.934	21823
846.07	21797
846.206	21785
846.342	21876
846.478	21797
846.614	21595
846.75	21401
846.886	21428
847.022	21663
847.158	21553
847.294	21599
847.429	21473
847.565	21492
847.701	21781
847.837	21230
847.972	21351
848.108	21291
848.244	21374
848.379	21169
848.515	21199
848.65	21077
848.786	21131
848.921	21138
849.057	21150
849.192	21237
849.328	21173
849.463	21165
849.598	21138
849.734	20998
849.869	20975
850.004	20754
850.14	20971
850.275	20838
850.41	20765
850.545	20830
850.68	20861
850.815	20883
850.95	20902
851.085	21017
851.22	21005
851.355	20880
851.49	20670
851.625	20891
851.76	20876
851.895	20686
852.03	20746
852.165	20868
852.299	20921
852.434	20868
852.569	20906
852.703	20933
852.838	21001
852.973	21089
853.107	20880
853.242	20762
853.376	20701
853.511	20575
853.645	20606
853.78	20739
853.914	20807
854.048	20613
854.183	20629
854.317	20686
854.451	20811
854.585	20762
854.72	20720
854.854	20788
854.988	20731
855.122	20724
855.256	20560
855.39	20743
855.524	20826
855.658	20746
855.792	20750
855.926	20743
856.06	20712
856.194	20811
856.327	20724
856.461	20632
856.595	20674
856.729	20636
856.862	20682
856.996	20697
857.13	20765
857.263	20788
857.397	20739
857.53	20708
857.664	20788
857.797	20746
857.931	20902
858.064	20796
858.197	20823
858.331	20644
858.464	20712
858.597	20659
858.731	20686
858.864	20686
858.997	20659
859.13	20769
859.263	20743
859.396	20739
859.529	20724
859.662	20651
859.795	20712
859.928	20697
860.061	20823
860.194	20861
860.327	20739
860.46	20716
860.592	20743
860.725	20887
860.858	20929
860.99	20716
861.123	20568
861.256	20636
861.388	20678
861.521	21226
861.653	20552
861.786	20480
861.918	20564
862.05	20579
862.183	20655
862.315	20735
862.447	20678
862.58	20636
862.712	20427
862.844	20404
862.976	20530
863.108	20461
863.24	20834
863.372	20328
863.504	20434
863.636	20389
863.768	20370
863.9	20339
864.032	20218
864.164	20355
864.296	20404
864.428	20583
864.559	20587
864.691	20427
864.823	20590
864.954	20457
865.086	20404
865.217	20332
865.349	20240
865.48	20233
865.612	20457
865.743	20488
865.875	20351
866.006	20339
866.137	20317
866.269	20263
866.4	20286
866.531	20199
866.662	20237
866.793	20294
866.924	20282
867.055	20332
867.186	20309
867.317	20229
867.448	20191
867.579	20065
867.71	20199
867.841	20168
867.972	20278
868.103	20145
868.233	20282
868.364	20240
868.495	20237
868.625	20488
868.756	20560
868.886	20454
869.017	20473
869.147	20541
869.278	20613
869.408	20571
869.539	20469
869.669	20560
869.799	20511
869.929	20640
870.06	20560
870.19	20792
870.32	20834
870.45	20899
870.58	20944
870.71	21005
870.84	21001
870.97	20891
871.1	20914
871.23	21028
871.36	21081
871.489	20975
871.619	20971
871.749	21047
871.879	21169
872.008	21272
872.138	21051
872.267	21100
872.397	20902
872.526	20853
872.656	21058
872.785	20861
872.915	21116
873.044	21245
873.173	20994
873.303	21135
873.432	21230
873.561	21306
873.69	21058
873.819	21165
873.948	21074
874.077	21081
874.206	21024
874.335	21173
874.464	21199
874.593	21447
874.722	21287
874.851	21401
874.979	21485
875.108	21462
875.237	21188
875.365	21241
875.494	21412
875.623	21443
875.751	21245
875.88	21462
876.008	21420
876.136	21557
876.265	21717
876.393	21903
876.521	21732
876.65	21705
876.778	21838
876.906	21720
877.034	21793
877.162	21679
877.29	21610
877.418	21682
877.546	21861
877.674	21690
877.802	21694
877.93	21759
878.058	21595
878.185	21614
878.313	21827
878.441	21648
878.568	21462
878.696	21595
878.824	21770
878.951	21759
879.079	21903
879.206	22166
879.333	22013
879.461	21797
879.588	21846
879.715	21960
879.842	21960
879.97	21888
880.097	21606
880.224	21606
880.351	21656
880.478	21633
880.605	21477
880.732	21595
880.859	21869
880.986	21572
881.112	21698
881.239	21450
881.366	21344
881.493	21256
881.619	21218
881.746	21230
881.872	21108
881.999	21260
882.125	21161
882.252	21108
882.378	21070
882.505	21237
882.631	21085
882.757	20990
882.883	20849
883.01	20880
883.136	20762
883.262	20663
883.388	20609
883.514	20921
883.64	20880
883.766	20731
883.892	20651
884.018	20708
884.143	20792
884.269	20857
884.395	20632
884.52	20571
884.646	20480
884.772	20602
884.897	20423
885.023	20450
885.148	20560
885.274	20648
885.399	20545
885.524	20556
885.65	20473
885.775	20393
885.9	20564
886.025	20594
886.15	20556
886.275	20503
886.4	20355
886.525	20434
886.65	20347
886.775	20507
886.9	20590
887.025	20594
887.149	20469
887.274	20278
887.399	20317
887.523	20313
887.648	20221
887.773	20180
887.897	20248
888.021	20267
888.146	20240
888.27	20374
888.395	20423
888.519	20320
888.643	20313
888.767	20332
888.891	20107
889.015	20081
889.139	20225
889.263	19963
889.387	20313
889.511	20282
889.635	20210
889.759	19947
889.883	20183
890.006	20050
890.13	20180
890.254	20046
890.377	20012
890.501	19841
890.624	19807
890.748	19860
890.871	19719
890.995	19712
891.118	19525
891.241	19651
891.364	19666
891.488	19856
891.611	19742
891.734	19693
891.857	19757
891.98	19651
892.103	19666
892.226	19567
892.349	19571
892.471	19422
892.594	19556
892.717	19514
892.839	19537
892.962	19533
893.085	19594
893.207	19590
893.33	19518
893.452	19499
893.575	19658
893.697	19464
893.819	19788
893.941	19780
894.064	19674
894.186	19483
894.308	19506
894.43	19734
894.552	19742
894.674	19586
894.796	19483
894.918	19453
895.04	19525
895.161	19575
895.283	19677
895.405	19620
895.526	19590
895.648	19559
895.769	19674
895.891	19719
896.012	19605
896.134	19590
896.255	19537
896.376	19719
896.498	19483
896.619	19696
896.74	19590
896.861	19628
896.982	19951
897.103	19997
897.224	19811
897.345	19814
897.466	19666
897.587	19856
897.708	19906
897.828	19860
897.949	19731
898.07	19643
898.19	19799
898.311	19936
898.431	19769
898.552	19887
898.672	19959
898.792	19837
898.913	19837
899.033	19795
899.153	19529
899.273	19556
899.393	19594
899.513	19571
899.633	19594
899.753	19556
899.873	19491
899.993	19582
900.113	19582
900.232	19411
900.352	19369
900.472	19396
900.591	19259
900.711	19289
900.83	19331
900.95	19487
901.069	19537
901.189	19164
901.308	18951
901.427	18958
901.546	18977
901.665	18928
901.784	18981
901.904	18844
902.023	18749
902.141	18445
902.26	18502
902.379	18593
902.498	18365
902.617	18403
902.735	18506
902.854	18403
902.973	18414
903.091	18228
903.21	18273
903.328	18068
903.446	18049
903.565	17908
903.683	18015
903.801	17726
903.919	17977
904.038	17790
904.156	17764
904.274	17809
904.392	17703
904.51	17680
904.627	17604
904.745	17771
904.863	17771
904.981	17497
905.098	17402
905.216	17493
905.334	17463
905.451	17349
905.569	17326
905.686	17326
905.803	17448
905.921	17231
906.038	17288
906.155	17155
906.272	17105
906.389	17181
906.506	16930
906.623	16881
906.74	16930
906.857	16869
906.974	16885
907.091	16919
907.208	17056
907.324	16995
907.441	16805
907.557	16759
907.674	16626
907.79	16637
907.907	16481
908.023	16660
908.139	16752
908.256	16538
908.372	16489
908.488	16550
908.604	16356
908.72	16276
908.836	16440
908.952	16318
909.068	16402
909.184	16459
909.3	16341
909.415	16417
909.531	16443
909.647	16173
909.762	16112
909.878	15991
909.993	16063
910.108	16112
910.224	15998
910.339	16002
910.454	16013
910.57	15819
910.685	15861
910.8	16143
910.915	16078
911.03	15880
911.145	15736
911.259	15667
911.374	15667
911.489	15637
911.604	15511
911.718	15473
911.833	15424
911.947	15233
912.062	15283
912.176	15382
912.291	15511
912.405	15542
912.519	15561
912.633	15580
912.748	15504
912.862	15515
912.976	15264
913.09	15165
913.204	15188
913.318	15291
913.431	15252
913.545	15302
913.659	15275
913.772	15249
913.886	15112
914	15036
914.113	15226
914.226	15237
914.34	15104
914.453	14880
914.566	15112
914.68	14910
914.793	14918
914.906	14762
915.019	14807
915.132	14617
915.245	14644
915.358	14724
915.47	14655
915.583	14670
915.696	14765
915.809	14773
915.921	14826
916.034	14590
916.146	14545
916.259	14617
916.371	14598
916.483	14640
916.595	14556
916.708	14465
916.82	14537
916.932	14412
917.044	14511
917.156	14465
917.268	14377
917.38	14366
917.491	14320
917.603	14415
917.715	14438
917.826	14450
917.938	14385
918.049	14263
918.161	14233
918.272	14450
918.384	14423
918.495	14237
918.606	14149
918.717	14138
918.828	14161
918.939	14168
919.05	14043
919.161	14100
919.272	13951
919.383	14016
919.494	14134
919.604	14362
919.715	14172
919.826	13936
919.936	14050
920.047	14050
920.157	14161
920.267	14202
920.378	14081
920.488	14123
920.598	14218
920.708	14396
920.818	14256
920.928	14229
921.038	14415
921.148	14332
921.258	13986
921.368	13982
921.477	13864
921.587	13784
921.697	13715
921.806	13822
921.916	13780
922.025	13510
922.134	13483
922.244	13464
922.353	13609
922.462	13415
922.571	13232
922.68	13194
922.789	13160
922.898	13225
923.007	13031
923.116	13247
923.224	13187
923.333	13202
923.442	13019
923.55	12989
923.659	12867
923.767	13076
923.876	12943
923.984	12951
924.092	12867
924.201	13038
924.309	12966
924.417	12840
924.525	12783
924.633	12859
924.741	13696
924.849	12585
924.956	12753
925.064	12646
925.172	12589
925.279	12578
925.387	12631
925.494	12509
925.602	12684
925.709	12635
925.816	12437
925.924	12517
926.031	12639
926.138	12494
926.245	12669
926.352	12410
926.459	12574
926.566	12608
926.673	12486
926.779	12365
926.886	12426
926.993	12186
927.099	12235
927.206	12076
927.312	12125
927.419	12178
927.525	12121
927.631	12155
927.737	12102
927.843	12038
927.95	11973
928.056	11969
928.162	11931
928.267	12068
928.373	12692
928.479	12098
928.585	11775
928.69	11973
928.796	11992
928.901	11828
929.007	11745
929.112	11897
929.218	11802
929.323	11802
929.428	11729
929.533	11878
929.638	11600
929.743	11653
929.848	11714
929.953	11592
930.058	11547
930.163	11368
930.267	11486
930.372	11649
930.477	11455
930.581	11596
930.685	11471
930.79	11387
930.894	11376
930.998	11296
931.103	11326
931.207	11075
931.311	10987
931.415	10896
931.519	10740
931.623	10679
