Data from test_V78500241_2883.txt Node
Date: Fri Mar 25 15:29:56 CST 2022
User: usil
Spectrometer: V785-0024
Trigger mode: 0
Integration Time (sec): 4.000000E-1
Scans to average: 1
Nonlinearity correction enabled: false
Boxcar width: 0
Storing dark spectrum: false
XAxis mode: Wavelengths
Number of Pixels in Spectrum: 1024
>>>>>Begin Spectral Data<<<<<
801.071	27203
801.214	27195
801.356	26994
801.499	26956
801.641	26876
801.783	26686
801.926	26823
802.068	26727
802.211	26777
802.353	26590
802.496	26469
802.638	26317
802.78	26366
802.923	26313
803.065	26081
803.208	26286
803.35	26400
803.492	26480
803.635	26541
803.777	26457
803.919	26632
804.061	26845
804.204	26667
804.346	26609
804.488	26434
804.63	26469
804.773	26499
804.915	26476
805.057	26606
805.199	26632
805.341	26606
805.483	26670
805.626	26689
805.768	26617
805.91	26640
806.052	26545
806.194	26621
806.336	26708
806.478	26640
806.62	26583
806.762	26682
806.904	26899
807.046	27252
807.188	27093
807.33	27024
807.472	27252
807.614	26925
807.756	27108
807.898	26933
808.04	26807
808.182	26960
808.324	27017
808.465	27028
808.607	27241
808.749	27249
808.891	27481
809.033	27454
809.174	27268
809.316	27260
809.458	27275
809.6	27298
809.741	27355
809.883	27325
810.025	27603
810.166	27561
810.308	27530
810.45	27344
810.591	27393
810.733	27351
810.875	27184
811.016	27169
811.158	27313
811.299	27351
811.441	27427
811.582	27580
811.724	27302
811.865	27203
812.007	27275
812.148	27184
812.29	27245
812.431	27466
812.573	27462
812.714	27618
812.855	27785
812.997	27774
813.138	27804
813.279	27797
813.421	27724
813.562	27774
813.703	27637
813.845	27405
813.986	27020
814.127	26952
814.268	26994
814.41	26918
814.551	26823
814.692	26925
814.833	26948
814.974	26800
815.115	26986
815.256	26853
815.397	26796
815.539	26834
815.68	26792
815.821	26648
815.962	26701
816.103	26708
816.244	26495
816.385	26473
816.526	26511
816.666	26347
816.807	26180
816.948	26218
817.089	26282
817.23	26164
817.371	26172
817.512	26187
817.653	26142
817.793	26088
817.934	26035
818.075	26195
818.216	26115
818.356	26142
818.497	26081
818.638	25917
818.778	25909
818.919	25860
819.06	26012
819.2	26027
819.341	26157
819.481	26103
819.622	26320
819.762	26617
819.903	26408
820.043	26431
820.184	26115
820.324	26339
820.465	26343
820.605	26282
820.746	26119
820.886	26233
821.026	26199
821.167	26202
821.307	26248
821.447	26161
821.588	25974
821.728	25944
821.868	25845
822.008	25590
822.149	25616
822.289	25620
822.429	25483
822.569	25384
822.709	25255
822.849	25084
822.99	25141
823.13	25084
823.27	25076
823.41	24951
823.55	24856
823.69	25023
823.83	24973
823.97	24897
824.11	24661
824.25	24738
824.389	24726
824.529	24787
824.669	24745
824.809	24867
824.949	24890
825.089	24787
825.228	24730
825.368	24616
825.508	24677
825.648	24734
825.787	24616
825.927	24650
826.067	24623
826.206	24665
826.346	24658
826.485	24642
826.625	24650
826.765	24726
826.904	24730
827.044	24334
827.183	24467
827.323	24391
827.462	24445
827.601	24410
827.741	24281
827.88	24441
828.02	24319
828.159	24464
828.298	24281
828.437	24380
828.577	24350
828.716	24376
828.855	24247
828.994	23999
829.134	24114
829.273	24129
829.412	24034
829.551	23908
829.69	24060
829.829	23939
829.968	24144
830.107	24045
830.246	24087
830.385	24072
830.524	23878
830.663	23882
830.802	23885
830.941	23722
831.08	23551
831.219	23840
831.357	23771
831.496	23843
831.635	23589
831.774	23493
831.913	23592
832.051	23379
832.19	23387
832.329	23539
832.467	23265
832.606	23303
832.744	23170
832.883	23395
833.022	23364
833.16	23269
833.299	23444
833.437	23345
833.576	23383
833.714	23330
833.852	23520
833.991	23402
834.129	23410
834.267	23429
834.406	23360
834.544	23448
834.682	23303
834.821	23334
834.959	23505
835.097	23204
835.235	23421
835.373	23261
835.511	23250
835.65	23216
835.788	23227
835.926	23181
836.064	23052
836.202	23037
836.34	23170
836.478	23200
836.615	23200
836.753	23178
836.891	23242
837.029	23288
837.167	22987
837.305	23193
837.443	22995
837.58	23083
837.718	23136
837.856	23109
837.993	22911
838.131	23052
838.269	22987
838.406	23033
838.544	22904
838.681	22774
838.819	22634
838.956	22512
839.094	22554
839.231	22550
839.369	22752
839.506	22976
839.643	22767
839.781	22538
839.918	22398
840.055	22455
840.193	22402
840.33	22500
840.467	22569
840.604	22622
840.742	22672
840.879	22314
841.016	22459
841.153	22329
841.29	22698
841.427	22436
841.564	22348
841.701	22379
841.838	22394
841.975	22344
842.112	22360
842.249	22192
842.385	22375
842.522	22561
842.659	22329
842.796	22166
842.933	22131
843.069	22169
843.206	22215
843.343	22143
843.479	22135
843.616	22226
843.752	22006
843.889	21994
844.025	22131
844.162	22109
844.298	22101
844.435	21975
844.571	22070
844.708	22055
844.844	22063
844.98	22063
845.117	21987
845.253	21979
845.389	21994
845.525	21865
845.661	21804
845.798	21686
845.934	21762
846.07	21701
846.206	21797
846.342	21755
846.478	21713
846.614	21504
846.75	21393
846.886	21458
847.022	21511
847.158	21412
847.294	21485
847.429	21500
847.565	21431
847.701	21644
847.837	21188
847.972	21100
848.108	21169
848.244	21214
848.379	21157
848.515	21150
848.65	21024
848.786	21108
848.921	21165
849.057	21081
849.192	21161
849.328	21036
849.463	21051
849.598	20963
849.734	21077
849.869	20826
850.004	20823
850.14	20819
850.275	20823
850.41	20788
850.545	20815
850.68	20788
850.815	20811
850.95	20743
851.085	20899
851.22	21024
851.355	20864
851.49	20815
851.625	20773
851.76	20701
851.895	20648
852.03	20773
852.165	20887
852.299	20754
852.434	20986
852.569	20796
852.703	20811
852.838	20842
852.973	20952
853.107	20979
853.242	20815
853.376	20651
853.511	20545
853.645	20556
853.78	20708
853.914	20769
854.048	20552
854.183	20438
854.317	20781
854.451	20883
854.585	20686
854.72	20598
854.854	20777
854.988	20564
855.122	20587
855.256	20484
855.39	20583
855.524	20659
855.658	20689
855.792	20625
855.926	20663
856.06	20720
856.194	20735
856.327	20663
856.461	20579
856.595	20598
856.729	20571
856.862	20781
856.996	20758
857.13	20724
857.263	20689
857.397	20682
857.53	20644
857.664	20708
857.797	20754
857.931	20689
858.064	20541
858.197	20678
858.331	20609
858.464	20533
858.597	20480
858.731	20609
858.864	20667
858.997	20617
859.13	20670
859.263	20693
859.396	20754
859.529	20568
859.662	20587
859.795	20518
859.928	20663
860.061	20792
860.194	20929
860.327	20769
860.46	20670
860.592	20773
860.725	20689
860.858	20705
860.99	20644
861.123	20530
861.256	20511
861.388	20568
861.521	21264
861.653	20476
861.786	20423
861.918	20415
862.05	20594
862.183	20476
862.315	20556
862.447	20720
862.58	20537
862.712	20328
862.844	20305
862.976	20438
863.108	20393
863.24	20785
863.372	20339
863.504	20317
863.636	20305
863.768	20355
863.9	20389
864.032	20218
864.164	20278
864.296	20305
864.428	20549
864.559	20484
864.691	20454
864.823	20244
864.954	20400
865.086	20286
865.217	20298
865.349	20172
865.48	20142
865.612	20267
865.743	20438
865.875	20225
866.006	20168
866.137	20339
866.269	20187
866.4	20259
866.531	20088
866.662	20107
866.793	20111
866.924	20244
867.055	20210
867.186	20183
867.317	20225
867.448	20065
867.579	20145
867.71	20153
867.841	20111
867.972	20244
868.103	20191
868.233	20096
868.364	20298
868.495	20290
868.625	20484
868.756	20530
868.886	20259
869.017	20438
869.147	20492
869.278	20396
869.408	20328
869.539	20454
869.669	20476
869.799	20484
869.929	20613
870.06	20609
870.19	20708
870.32	20796
870.45	20792
870.58	20868
870.71	20834
870.84	20853
870.97	20842
871.1	20849
871.23	20929
871.36	21108
871.489	20929
871.619	21032
871.749	21001
871.879	21089
872.008	21146
872.138	21009
872.267	21055
872.397	20887
872.526	20842
872.656	20960
872.785	20838
872.915	21009
873.044	21024
873.173	21051
873.303	21135
873.432	20952
873.561	21256
873.69	21093
873.819	21192
873.948	21195
874.077	21043
874.206	21043
874.335	21089
874.464	21199
874.593	21237
874.722	21226
874.851	21195
874.979	21359
875.108	21500
875.237	21260
875.365	21313
875.494	21428
875.623	21374
875.751	21268
875.88	21310
876.008	21351
876.136	21443
876.265	21713
876.393	21720
876.521	21671
876.65	21831
876.778	21686
876.906	21610
877.034	21720
877.162	21648
877.29	21614
877.418	21675
877.546	21690
877.674	21690
877.802	21637
877.93	21641
878.058	21542
878.185	21504
878.313	21648
878.441	21580
878.568	21367
878.696	21587
878.824	21698
878.951	21728
879.079	21816
879.206	21930
879.333	21793
879.461	21561
879.588	21732
879.715	21804
879.842	21930
879.97	21682
880.097	21447
880.224	21466
880.351	21507
880.478	21492
880.605	21485
880.732	21458
880.859	21675
880.986	21500
881.112	21545
881.239	21279
881.366	21203
881.493	21100
881.619	21085
881.746	21039
881.872	21058
881.999	21131
882.125	20963
882.252	21085
882.378	20998
882.505	21161
882.631	20777
882.757	20826
882.883	20876
883.01	20769
883.136	20686
883.262	20590
883.388	20617
883.514	20754
883.64	20746
883.766	20746
883.892	20583
884.018	20495
884.143	20674
884.269	20785
884.395	20594
884.52	20412
884.646	20415
884.772	20343
884.897	20267
885.023	20332
885.148	20408
885.274	20648
885.399	20499
885.524	20446
885.65	20442
885.775	20366
885.9	20415
886.025	20507
886.15	20469
886.275	20419
886.4	20290
886.525	20438
886.65	20355
886.775	20282
886.9	20476
887.025	20579
887.149	20465
887.274	20275
887.399	20275
887.523	20145
887.648	20142
887.773	20126
887.897	20157
888.021	20126
888.146	20027
888.27	20244
888.395	20343
888.519	20195
888.643	20172
888.767	20122
888.891	20084
889.015	19978
889.139	20107
889.263	20043
889.387	20164
889.511	20206
889.635	20115
889.759	19917
889.883	20012
890.006	19932
890.13	20100
890.254	19784
890.377	19951
890.501	19681
890.624	19879
890.748	19814
890.871	19594
890.995	19521
891.118	19449
891.241	19685
891.364	19544
891.488	19727
891.611	19674
891.734	19567
891.857	19594
891.98	19567
892.103	19525
892.226	19506
892.349	19510
892.471	19339
892.594	19521
892.717	19506
892.839	19495
892.962	19441
893.085	19575
893.207	19495
893.33	19419
893.452	19457
893.575	19518
893.697	19400
893.819	19525
893.941	19765
894.064	19563
894.186	19472
894.308	19400
894.43	19544
894.552	19590
894.674	19544
894.796	19430
894.918	19487
895.04	19575
895.161	19525
895.283	19525
895.405	19403
895.526	19419
895.648	19468
895.769	19449
895.891	19491
896.012	19586
896.134	19464
896.255	19540
896.376	19411
896.498	19480
896.619	19491
896.74	19514
896.861	19552
896.982	19814
897.103	19982
897.224	19731
897.345	19681
897.466	19575
897.587	19575
897.708	19864
897.828	19620
897.949	19628
898.07	19586
898.19	19666
898.311	19788
898.431	19696
898.552	19799
898.672	19909
898.792	19887
898.913	19803
899.033	19670
899.153	19590
899.273	19476
899.393	19487
899.513	19537
899.633	19601
899.753	19552
899.873	19438
899.993	19441
900.113	19358
900.232	19419
900.352	19297
900.472	19365
900.591	19251
900.711	19263
900.83	19278
900.95	19411
901.069	19369
901.189	19126
901.308	18882
901.427	18749
901.546	18856
901.665	18977
901.784	18890
901.904	18753
902.023	18612
902.141	18452
902.26	18452
902.379	18464
902.498	18429
902.617	18330
902.735	18380
902.854	18376
902.973	18376
903.091	18117
903.21	18087
903.328	18079
903.446	17958
903.565	17901
903.683	17980
903.801	17828
903.919	17760
904.038	17809
904.156	17699
904.274	17752
904.392	17684
904.51	17672
904.627	17581
904.745	17668
904.863	17756
904.981	17315
905.098	17296
905.216	17379
905.334	17318
905.451	17307
905.569	17292
905.686	17417
905.803	17204
905.921	17075
906.038	17113
906.155	17181
906.272	16987
906.389	17075
906.506	16877
906.623	16869
906.74	16839
906.857	16809
906.974	16740
907.091	16862
907.208	16919
907.324	16911
907.441	16782
907.557	16706
907.674	16561
907.79	16538
907.907	16558
908.023	16588
908.139	16577
908.256	16561
908.372	16474
908.488	16466
908.604	16287
908.72	16276
908.836	16421
908.952	16253
909.068	16341
909.184	16337
909.3	16303
909.415	16299
909.531	16299
909.647	16105
909.762	15979
909.878	15983
909.993	16002
910.108	16021
910.224	15918
910.339	15930
910.454	15876
910.57	15774
910.685	15751
910.8	16013
910.915	15930
911.03	15861
911.145	15686
911.259	15667
911.374	15625
911.489	15473
911.604	15523
911.718	15298
911.833	15401
911.947	15344
912.062	15245
912.176	15374
912.291	15435
912.405	15412
912.519	15591
912.633	15584
912.748	15386
912.862	15260
912.976	15237
913.09	15085
913.204	15108
913.318	15211
913.431	15279
913.545	15207
913.659	15260
913.772	15173
913.886	15047
914	14906
914.113	15085
914.226	15154
914.34	15051
914.453	14769
914.566	14979
914.68	14925
914.793	14796
914.906	14765
915.019	14644
915.132	14514
915.245	14689
915.358	14571
915.47	14640
915.583	14682
915.696	14651
915.809	14701
915.921	14796
916.034	14579
916.146	14499
916.259	14575
916.371	14598
916.483	14644
916.595	14488
916.708	14518
916.82	14495
916.932	14362
917.044	14488
917.156	14431
917.268	14290
917.38	14351
917.491	14259
917.603	14301
917.715	14328
917.826	14351
917.938	14176
918.049	14126
918.161	14199
918.272	14301
918.384	14408
918.495	14172
918.606	14092
918.717	14016
918.828	14103
918.939	14081
919.05	14016
919.161	13978
919.272	13898
919.383	13913
919.494	14050
919.604	14267
919.715	14088
919.826	13986
919.936	13997
920.047	14103
920.157	14111
920.267	14191
920.378	14039
920.488	13921
920.598	14164
920.708	14381
920.818	14240
920.928	14077
921.038	14286
921.148	14278
921.258	14046
921.368	13856
921.477	13864
921.587	13719
921.697	13700
921.806	13772
921.916	13620
922.025	13480
922.134	13487
922.244	13362
922.353	13392
922.462	13320
922.571	13156
922.68	13103
922.789	13133
922.898	13057
923.007	12966
923.116	13072
923.224	13091
923.333	13061
923.442	12932
923.55	12977
923.659	12954
923.767	12924
923.876	12920
923.984	12958
924.092	12791
924.201	12863
924.309	12886
924.417	12806
924.525	12749
924.633	12669
924.741	13662
924.849	12528
924.956	12719
925.064	12544
925.172	12486
925.279	12525
925.387	12589
925.494	12502
925.602	12574
925.709	12536
925.816	12395
925.924	12513
926.031	12536
926.138	12445
926.245	12513
926.352	12338
926.459	12437
926.566	12490
926.673	12300
926.779	12209
926.886	12353
926.993	12152
927.099	12129
927.206	12038
927.312	12072
927.419	12106
927.525	12152
927.631	12117
927.737	11992
927.843	11999
927.95	11847
928.056	11901
928.162	12026
928.267	11958
928.373	12589
928.479	11931
928.585	11817
928.69	11855
928.796	11847
928.901	11805
929.007	11634
929.112	11805
929.218	11771
929.323	11710
929.428	11688
929.533	11813
929.638	11653
929.743	11630
929.848	11627
929.953	11638
930.058	11490
930.163	11452
930.267	11414
930.372	11482
930.477	11284
930.581	11474
930.685	11440
930.79	11261
930.894	11326
930.998	11277
931.103	11459
931.207	11010
931.311	10949
931.415	10908
931.519	10694
931.623	10611
