Data from test_V78500241_621.txt Node
Date: Fri Mar 25 15:14:11 CST 2022
User: usil
Spectrometer: V785-0024
Trigger mode: 0
Integration Time (sec): 4.000000E-1
Scans to average: 1
Nonlinearity correction enabled: false
Boxcar width: 0
Storing dark spectrum: false
XAxis mode: Wavelengths
Number of Pixels in Spectrum: 1024
>>>>>Begin Spectral Data<<<<<
801.071	27682
801.214	27698
801.356	27325
801.499	27469
801.641	27195
801.783	27218
801.926	27348
802.068	27024
802.211	27104
802.353	27058
802.496	27001
802.638	26925
802.78	26769
802.923	26914
803.065	26971
803.208	26872
803.35	26910
803.492	27028
803.635	27017
803.777	26895
803.919	26940
804.061	27150
804.204	27066
804.346	27024
804.488	26815
804.63	27028
804.773	26918
804.915	27081
805.057	27093
805.199	27074
805.341	27112
805.483	27211
805.626	27020
805.768	26990
805.91	27096
806.052	27119
806.194	27085
806.336	27378
806.478	27108
806.62	27127
806.762	27279
806.904	27450
807.046	27709
807.188	27557
807.33	27545
807.472	27724
807.614	27511
807.756	27591
807.898	27462
808.04	27348
808.182	27408
808.324	27523
808.465	27447
808.607	27591
808.749	27736
808.891	27739
809.033	27968
809.174	27774
809.316	27953
809.458	27797
809.6	27797
809.741	27850
809.883	27953
810.025	28021
810.166	28013
810.308	28200
810.45	28040
810.591	28006
810.733	27880
810.875	27709
811.016	27660
811.158	27717
811.299	27854
811.441	27907
811.582	27975
811.724	27713
811.865	27873
812.007	27720
812.148	27850
812.29	27789
812.431	27945
812.573	28318
812.714	28291
812.855	28257
812.997	28546
813.138	28603
813.279	28542
813.421	28493
813.562	28409
813.703	28261
813.845	27945
813.986	27717
814.127	27549
814.268	27515
814.41	27587
814.551	27625
814.692	27603
814.833	27515
814.974	27462
815.115	27431
815.256	27401
815.397	27492
815.539	27393
815.68	27348
815.821	27173
815.962	27272
816.103	27249
816.244	27211
816.385	27165
816.526	27161
816.666	27017
816.807	26708
816.948	26849
817.089	26948
817.23	26937
817.371	26864
817.512	26781
817.653	26701
817.793	26788
817.934	26857
818.075	26845
818.216	26739
818.356	26743
818.497	26849
818.638	26552
818.778	26708
818.919	26568
819.06	26720
819.2	26693
819.341	26788
819.481	26811
819.622	27036
819.762	27119
819.903	27055
820.043	26887
820.184	26781
820.324	26933
820.465	27104
820.605	27020
820.746	26864
820.886	26899
821.026	26967
821.167	26834
821.307	26960
821.447	26792
821.588	26689
821.728	26667
821.868	26473
822.008	26275
822.149	26176
822.289	26423
822.429	26073
822.569	25944
822.709	25849
822.849	25788
822.99	25849
823.13	25856
823.27	25742
823.41	25533
823.55	25434
823.69	25563
823.83	25689
823.97	25502
824.11	25251
824.25	25274
824.389	25350
824.529	25415
824.669	25407
824.809	25594
824.949	25453
825.089	25487
825.228	25472
825.368	25232
825.508	25209
825.648	25236
825.787	25206
825.927	25453
826.067	25217
826.206	25304
826.346	25411
826.485	25327
826.625	25255
826.765	25499
826.904	25350
827.044	25076
827.183	25031
827.323	25027
827.462	24958
827.601	24973
827.741	24935
827.88	24958
828.02	24882
828.159	24954
828.298	25034
828.437	25137
828.577	24894
828.716	25141
828.855	24852
828.994	24696
829.134	24711
829.273	24738
829.412	24692
829.551	24650
829.69	24639
829.829	24848
829.968	24703
830.107	24772
830.246	24726
830.385	24593
830.524	24616
830.663	24536
830.802	24464
830.941	24353
831.08	24323
831.219	24281
831.357	24357
831.496	24502
831.635	24273
831.774	24334
831.913	24292
832.051	24102
832.19	23996
832.329	24220
832.467	23984
832.606	23859
832.744	23893
832.883	23973
833.022	23920
833.16	24087
833.299	24110
833.437	24060
833.576	23980
833.714	24034
833.852	24136
833.991	24140
834.129	24133
834.267	24038
834.406	24011
834.544	24190
834.682	24045
834.821	24038
834.959	24254
835.097	23961
835.235	24007
835.373	24030
835.511	24144
835.65	23984
835.788	23851
835.926	23741
836.064	23790
836.202	23710
836.34	23893
836.478	23870
836.615	23897
836.753	23939
836.891	23999
837.029	23824
837.167	23805
837.305	23745
837.443	23783
837.58	23767
837.718	23809
837.856	23798
837.993	23714
838.131	23672
838.269	23661
838.406	23680
838.544	23528
838.681	23398
838.819	23463
838.956	23284
839.094	23170
839.231	23181
839.369	23269
839.506	23646
839.643	23497
839.781	23189
839.918	23231
840.055	23136
840.193	23071
840.33	23124
840.467	23090
840.604	23159
840.742	23170
840.879	22946
841.016	22987
841.153	23227
841.29	23121
841.427	22946
841.564	23136
841.701	23124
841.838	23216
841.975	23014
842.112	22991
842.249	22961
842.385	22850
842.522	23075
842.659	22995
842.796	22934
842.933	22938
843.069	22812
843.206	22733
843.343	22873
843.479	22763
843.616	22801
843.752	22713
843.889	22740
844.025	22892
844.162	22778
844.298	22790
844.435	22721
844.571	22668
844.708	22843
844.844	22820
844.98	22740
845.117	22869
845.253	22641
845.389	22523
845.525	22656
845.661	22527
845.798	22409
845.934	22493
846.07	22466
846.206	22451
846.342	22573
846.478	22230
846.614	22284
846.75	21907
846.886	22181
847.022	22280
847.158	22120
847.294	22143
847.429	22078
847.565	22173
847.701	22314
847.837	21945
847.972	21854
848.108	21975
848.244	21918
848.379	21838
848.515	21747
848.65	21660
848.786	21679
848.921	21743
849.057	21922
849.192	21808
849.328	21720
849.463	21644
849.598	21580
849.734	21599
849.869	21523
850.004	21561
850.14	21450
850.275	21424
850.41	21466
850.545	21336
850.68	21439
850.815	21545
850.95	21507
851.085	21739
851.22	21526
851.355	21519
851.49	21454
851.625	21507
851.76	21321
851.895	21279
852.03	21401
852.165	21450
852.299	21469
852.434	21606
852.569	21549
852.703	21591
852.838	21553
852.973	21629
853.107	21663
853.242	21378
853.376	21439
853.511	21226
853.645	21329
853.78	21367
853.914	21233
854.048	21241
854.183	21272
854.317	21359
854.451	21504
854.585	21287
854.72	21351
854.854	21382
854.988	21256
855.122	21230
855.256	21237
855.39	21351
855.524	21310
855.658	21252
855.792	21363
855.926	21382
856.06	21306
856.194	21386
856.327	21252
856.461	21214
856.595	21241
856.729	21344
856.862	21382
856.996	21291
857.13	21306
857.263	21519
857.397	21401
857.53	21447
857.664	21332
857.797	21428
857.931	21310
858.064	21275
858.197	21393
858.331	21252
858.464	21344
858.597	21096
858.731	21241
858.864	21230
858.997	21298
859.13	21283
859.263	21313
859.396	21370
859.529	21283
859.662	21351
859.795	21207
859.928	21336
860.061	21488
860.194	21576
860.327	21458
860.46	21325
860.592	21473
860.725	21477
860.858	21302
860.99	21291
861.123	21116
861.256	21203
861.388	21279
861.521	22166
861.653	21096
861.786	21108
861.918	21119
862.05	21184
862.183	21207
862.315	21226
862.447	21435
862.58	21241
862.712	20941
862.844	20948
862.976	21013
863.108	21119
863.24	21561
863.372	20891
863.504	21051
863.636	21009
863.768	21081
863.9	20994
864.032	20906
864.164	21081
864.296	21085
864.428	21241
864.559	21085
864.691	21112
864.823	20948
864.954	20963
865.086	20960
865.217	20994
865.349	20826
865.48	20906
865.612	20902
865.743	21047
865.875	20941
866.006	20982
866.137	20872
866.269	20944
866.4	20982
866.531	20876
866.662	20868
866.793	20830
866.924	20773
867.055	20872
867.186	20811
867.317	20823
867.448	20807
867.579	20830
867.71	20727
867.841	20769
867.972	20902
868.103	20777
868.233	20785
868.364	20758
868.495	20849
868.625	21074
868.756	21161
868.886	21024
869.017	20910
869.147	21150
869.278	21256
869.408	21017
869.539	21150
869.669	21176
869.799	21176
869.929	21226
870.06	21096
870.19	21256
870.32	21386
870.45	21389
870.58	21542
870.71	21572
870.84	21450
870.97	21515
871.1	21485
871.23	21679
871.36	21641
871.489	21507
871.619	21549
871.749	21610
871.879	21576
872.008	21838
872.138	21751
872.267	21599
872.397	21496
872.526	21466
872.656	21561
872.785	21492
872.915	21660
873.044	21759
873.173	21709
873.303	21823
873.432	21713
873.561	21774
873.69	21793
873.819	21720
873.948	21797
874.077	21728
874.206	21709
874.335	21663
874.464	21816
874.593	21869
874.722	21895
874.851	21994
874.979	21907
875.108	21964
875.237	21861
875.365	21827
875.494	21895
875.623	22051
875.751	21991
875.88	22067
876.008	21949
876.136	22112
876.265	22329
876.393	22455
876.521	22284
876.65	22375
876.778	22207
876.906	22147
877.034	22173
877.162	22310
877.29	22143
877.418	22402
877.546	22337
877.674	22303
877.802	22230
877.93	22344
878.058	22185
878.185	22135
878.313	22375
878.441	22291
878.568	22139
878.696	22181
878.824	22276
878.951	22337
879.079	22485
879.206	22596
879.333	22329
879.461	22341
879.588	22390
879.715	22455
879.842	22557
879.97	22314
880.097	22196
880.224	22150
880.351	22070
880.478	22162
880.605	22070
880.732	22055
880.859	22352
880.986	22032
881.112	22101
881.239	21869
881.366	21800
881.493	21736
881.619	21660
881.746	21637
881.872	21778
881.999	21743
882.125	21530
882.252	21736
882.378	21625
882.505	21660
882.631	21530
882.757	21450
882.883	21458
883.01	21363
883.136	21249
883.262	21207
883.388	21119
883.514	21302
883.64	21378
883.766	21279
883.892	21176
884.018	21287
884.143	21348
884.269	21397
884.395	21135
884.52	20918
884.646	21005
884.772	20921
884.897	20872
885.023	21081
885.148	21100
885.274	21169
885.399	21070
885.524	21036
885.65	21108
885.775	21051
885.9	21032
886.025	21039
886.15	21017
886.275	20998
886.4	20929
886.525	21009
886.65	20834
886.775	20796
886.9	21043
887.025	21138
887.149	21066
887.274	20800
887.399	20857
887.523	20731
887.648	20705
887.773	20644
887.897	20819
888.021	20876
888.146	20735
888.27	20830
888.395	20800
888.519	20800
888.643	20857
888.767	20906
888.891	20689
889.015	20587
889.139	20473
889.263	20587
889.387	20689
889.511	20765
889.635	20648
889.759	20693
889.883	20629
890.006	20579
890.13	20697
890.254	20469
890.377	20587
890.501	20263
890.624	20320
890.748	20237
890.871	20317
890.995	20237
891.118	20005
891.241	20225
891.364	20081
891.488	20305
891.611	20161
891.734	20157
891.857	20134
891.98	20084
892.103	20183
892.226	20077
892.349	20145
892.471	20016
892.594	20081
892.717	20008
892.839	20035
892.962	20103
893.085	20054
893.207	20039
893.33	19959
893.452	19978
893.575	20088
893.697	20130
893.819	20210
893.941	20233
894.064	20237
894.186	19970
894.308	19970
894.43	20107
894.552	20290
894.674	20065
894.796	20027
894.918	20069
895.04	19936
895.161	20187
895.283	20111
895.405	19993
895.526	19925
895.648	20096
895.769	20065
895.891	20100
896.012	20126
896.134	20008
896.255	20035
896.376	20062
896.498	20005
896.619	20176
896.74	20103
896.861	20088
896.982	20431
897.103	20457
897.224	20454
897.345	20336
897.466	20145
897.587	20256
897.708	20370
897.828	20351
897.949	20157
898.07	20164
898.19	20229
898.311	20328
898.431	20221
898.552	20161
898.672	20282
898.792	20275
898.913	20206
899.033	20214
899.153	20084
899.273	20027
899.393	20012
899.513	20149
899.633	20046
899.753	20122
899.873	19986
899.993	20012
900.113	19887
900.232	20062
900.352	19894
900.472	19833
900.591	19685
900.711	19883
900.83	19753
900.95	19788
901.069	19906
901.189	19643
901.308	19537
901.427	19335
901.546	19358
901.665	19400
901.784	19419
901.904	19289
902.023	19145
902.141	18939
902.26	18966
902.379	18844
902.498	18867
902.617	18939
902.735	18977
902.854	18951
902.973	18688
903.091	18563
903.21	18620
903.328	18551
903.446	18467
903.565	18422
903.683	18380
903.801	18224
903.919	18327
904.038	18224
904.156	18060
904.274	18114
904.392	18102
904.51	18144
904.627	18022
904.745	18106
904.863	18163
904.981	17908
905.098	17920
905.216	17840
905.334	17908
905.451	17874
905.569	17859
905.686	17783
905.803	17897
905.921	17615
906.038	17775
906.155	17577
906.272	17516
906.389	17493
906.506	17482
906.623	17398
906.74	17318
906.857	17318
906.974	17261
907.091	17353
907.208	17425
907.324	17284
907.441	17273
907.557	17121
907.674	17060
907.79	17045
907.907	16984
908.023	17166
908.139	17079
908.256	16995
908.372	16923
908.488	16854
908.604	16915
908.72	16740
908.836	16896
908.952	16801
909.068	16809
909.184	16847
909.3	16843
909.415	16748
909.531	16774
909.647	16504
909.762	16493
909.878	16504
909.993	16432
910.108	16546
910.224	16424
910.339	16497
910.454	16367
910.57	16284
910.685	16272
910.8	16504
910.915	16303
911.03	16280
911.145	16116
911.259	16166
911.374	16093
911.489	15972
911.604	15915
911.718	15762
911.833	15808
911.947	15739
912.062	15755
912.176	15861
912.291	15797
912.405	15857
912.519	15937
912.633	15960
912.748	15800
912.862	15797
912.976	15625
913.09	15545
913.204	15591
913.318	15663
913.431	15732
913.545	15682
913.659	15812
913.772	15644
913.886	15492
914	15458
914.113	15538
914.226	15507
914.34	15500
914.453	15408
914.566	15443
914.68	15329
914.793	15214
914.906	15116
915.019	15100
915.132	15001
915.245	15116
915.358	15093
915.47	15157
915.583	15024
915.696	15058
915.809	15154
915.921	15214
916.034	14956
916.146	14906
916.259	14948
916.371	14971
916.483	15024
916.595	14845
916.708	14788
916.82	14868
916.932	14819
917.044	14857
917.156	14815
917.268	14670
917.38	14712
917.491	14678
917.603	14689
917.715	14872
917.826	14800
917.938	14670
918.049	14705
918.161	14590
918.272	14899
918.384	14781
918.495	14613
918.606	14564
918.717	14454
918.828	14511
918.939	14438
919.05	14370
919.161	14530
919.272	14278
919.383	14309
919.494	14454
919.604	14663
919.715	14522
919.826	14301
919.936	14442
920.047	14427
920.157	14469
920.267	14621
920.378	14469
920.488	14370
920.598	14629
920.708	14758
920.818	14602
920.928	14594
921.038	14708
921.148	14701
921.258	14301
921.368	14286
921.477	14176
921.587	14161
921.697	14084
921.806	14183
921.916	14012
922.025	13883
922.134	13795
922.244	13757
922.353	13925
922.462	13624
922.571	13502
922.68	13457
922.789	13449
922.898	13521
923.007	13350
923.116	13544
923.224	13464
923.333	13426
923.442	13316
923.55	13312
923.659	13278
923.767	13377
923.876	13263
923.984	13304
924.092	13194
924.201	13285
924.309	13282
924.417	13251
924.525	13206
924.633	13152
924.741	13860
924.849	12996
924.956	13027
925.064	13015
925.172	12882
925.279	12856
925.387	12924
925.494	12844
925.602	12973
925.709	12905
925.816	12806
925.924	12878
926.031	12890
926.138	12814
926.245	12916
926.352	12764
926.459	12897
926.566	12875
926.673	12844
926.779	12635
926.886	12684
926.993	12559
927.099	12448
927.206	12395
927.312	12403
927.419	12460
927.525	12410
927.631	12403
927.737	12308
927.843	12289
927.95	12159
928.056	12251
928.162	12266
928.267	12300
928.373	12951
928.479	12388
928.585	12060
928.69	12262
928.796	12292
928.901	12049
929.007	11992
929.112	12140
929.218	12072
929.323	11999
929.428	11992
929.533	12175
929.638	11954
929.743	11942
929.848	12015
929.953	12011
930.058	11859
930.163	11695
930.267	11714
930.372	11859
930.477	11627
930.581	11851
930.685	11771
930.79	11585
930.894	11672
930.998	11532
931.103	11680
931.207	11315
931.311	11254
931.415	11277
931.519	10987
931.623	11006
