Data from test_V78500241_667.txt Node
Date: Fri Mar 25 15:14:30 CST 2022
User: usil
Spectrometer: V785-0024
Trigger mode: 0
Integration Time (sec): 4.000000E-1
Scans to average: 1
Nonlinearity correction enabled: false
Boxcar width: 0
Storing dark spectrum: false
XAxis mode: Wavelengths
Number of Pixels in Spectrum: 1024
>>>>>Begin Spectral Data<<<<<
801.071	27922
801.214	27800
801.356	27633
801.499	27747
801.641	27580
801.783	27367
801.926	27412
802.068	27412
802.211	27439
802.353	27382
802.496	27131
802.638	27165
802.78	27100
802.923	27226
803.065	27298
803.208	27096
803.35	27032
803.492	27230
803.635	27310
803.777	27268
803.919	27351
804.061	27614
804.204	27378
804.346	27325
804.488	27256
804.63	27389
804.773	27165
804.915	27332
805.057	27405
805.199	27226
805.341	27447
805.483	27466
805.626	27424
805.768	27260
805.91	27473
806.052	27526
806.194	27420
806.336	27679
806.478	27397
806.62	27485
806.762	27587
806.904	27797
807.046	28078
807.188	27918
807.33	27968
807.472	27899
807.614	27816
807.756	27774
807.898	27698
808.04	27663
808.182	27587
808.324	27679
808.465	27610
808.607	27975
808.749	28013
808.891	28177
809.033	28314
809.174	28196
809.316	28150
809.458	28177
809.6	28181
809.741	28306
809.883	28295
810.025	28382
810.166	28485
810.308	28485
810.45	28329
810.591	28344
810.733	28051
810.875	28032
811.016	28021
811.158	27994
811.299	28226
811.441	28268
811.582	28238
811.724	28090
811.865	27987
812.007	28078
812.148	28158
812.29	28166
812.431	28166
812.573	28417
812.714	28535
812.855	28592
812.997	28771
813.138	28885
813.279	28778
813.421	28828
813.562	28733
813.703	28557
813.845	28367
813.986	28139
814.127	27827
814.268	27857
814.41	27899
814.551	27781
814.692	27918
814.833	27804
814.974	27911
815.115	27914
815.256	27770
815.397	27736
815.539	27698
815.68	27728
815.821	27408
815.962	27564
816.103	27660
816.244	27553
816.385	27443
816.526	27397
816.666	27169
816.807	27207
816.948	27283
817.089	27378
817.23	27199
817.371	27028
817.512	27127
817.653	27009
817.793	27070
817.934	27074
818.075	27192
818.216	27146
818.356	27051
818.497	27028
818.638	26842
818.778	26925
818.919	26979
819.06	26914
819.2	27058
819.341	26963
819.481	27081
819.622	27249
819.762	27424
819.903	27386
820.043	27336
820.184	27207
820.324	27226
820.465	27252
820.605	27298
820.746	27252
820.886	27005
821.026	27249
821.167	27184
821.307	27218
821.447	27195
821.588	27100
821.728	26967
821.868	26750
822.008	26526
822.149	26518
822.289	26480
822.429	26465
822.569	26214
822.709	26267
822.849	26221
822.99	26058
823.13	26039
823.27	26077
823.41	25951
823.55	25742
823.69	25925
823.83	26016
823.97	25925
824.11	25795
824.25	25734
824.389	25746
824.529	25769
824.669	25921
824.809	25860
824.949	25799
825.089	25898
825.228	25780
825.368	25594
825.508	25681
825.648	25628
825.787	25670
825.927	25658
826.067	25677
826.206	25609
826.346	25765
826.485	25753
826.625	25582
826.765	25738
826.904	25742
827.044	25392
827.183	25396
827.323	25407
827.462	25422
827.601	25316
827.741	25350
827.88	25392
828.02	25285
828.159	25278
828.298	25198
828.437	25362
828.577	25244
828.716	25396
828.855	25335
828.994	24985
829.134	25126
829.273	25278
829.412	25133
829.551	24977
829.69	25141
829.829	25019
829.968	25103
830.107	25221
830.246	24932
830.385	24817
830.524	25000
830.663	24920
830.802	24920
830.941	24707
831.08	24635
831.219	24772
831.357	24707
831.496	24779
831.635	24661
831.774	24631
831.913	24490
832.051	24441
832.19	24422
832.329	24388
832.467	24391
832.606	24243
832.744	24281
832.883	24216
833.022	24433
833.16	24315
833.299	24319
833.437	24513
833.576	24471
833.714	24429
833.852	24418
833.991	24429
834.129	24391
834.267	24426
834.406	24536
834.544	24509
834.682	24426
834.821	24384
834.959	24456
835.097	24376
835.235	24418
835.373	24311
835.511	24502
835.65	24224
835.788	24296
835.926	24174
836.064	23969
836.202	24095
836.34	24247
836.478	24277
836.615	24304
836.753	24346
836.891	24403
837.029	24277
837.167	24277
837.305	24098
837.443	24136
837.58	24266
837.718	24144
837.856	24106
837.993	24057
838.131	24076
838.269	23939
838.406	24018
838.544	23836
838.681	23779
838.819	23657
838.956	23535
839.094	23581
839.231	23619
839.369	23703
839.506	23824
839.643	23710
839.781	23467
839.918	23558
840.055	23611
840.193	23490
840.33	23398
840.467	23528
840.604	23665
840.742	23729
840.879	23296
841.016	23478
841.153	23356
841.29	23455
841.427	23478
841.564	23531
841.701	23467
841.838	23433
841.975	23284
842.112	23326
842.249	23208
842.385	23162
842.522	23474
842.659	23364
842.796	23170
842.933	23121
843.069	23143
843.206	23155
843.343	23258
843.479	23296
843.616	23242
843.752	22930
843.889	23037
844.025	23143
844.162	22972
844.298	23014
844.435	23033
844.571	22991
844.708	23083
844.844	23166
844.98	23143
845.117	22999
845.253	23006
845.389	22831
845.525	22965
845.661	22869
845.798	22881
845.934	22778
846.07	22641
846.206	22713
846.342	22911
846.478	22668
846.614	22497
846.75	22470
846.886	22390
847.022	22550
847.158	22500
847.294	22398
847.429	22497
847.565	22390
847.701	22679
847.837	22185
847.972	22147
848.108	22234
848.244	22268
848.379	22166
848.515	22013
848.65	22067
848.786	22120
848.921	22112
849.057	22173
849.192	22162
849.328	22101
849.463	22051
849.598	21994
849.734	21937
849.869	21869
850.004	21606
850.14	21766
850.275	21819
850.41	21785
850.545	21781
850.68	21778
850.815	21846
850.95	21713
851.085	21941
851.22	21960
851.355	21835
851.49	21854
851.625	21781
851.76	21709
851.895	21739
852.03	21739
852.165	21781
852.299	21869
852.434	21880
852.569	21934
852.703	21808
852.838	21888
852.973	21972
853.107	21972
853.242	21766
853.376	21705
853.511	21599
853.645	21591
853.78	21705
853.914	21743
854.048	21595
854.183	21587
854.317	21675
854.451	21641
854.585	21648
854.72	21629
854.854	21724
854.988	21576
855.122	21622
855.256	21515
855.39	21504
855.524	21675
855.658	21663
855.792	21641
855.926	21743
856.06	21671
856.194	21701
856.327	21618
856.461	21500
856.595	21637
856.729	21526
856.862	21736
856.996	21622
857.13	21705
857.263	21705
857.397	21762
857.53	21564
857.664	21606
857.797	21705
857.931	21648
858.064	21641
858.197	21804
858.331	21496
858.464	21549
858.597	21416
858.731	21686
858.864	21576
858.997	21587
859.13	21728
859.263	21580
859.396	21686
859.529	21564
859.662	21485
859.795	21599
859.928	21690
860.061	21789
860.194	21694
860.327	21671
860.46	21618
860.592	21755
860.725	21857
860.858	21789
860.99	21587
861.123	21538
861.256	21564
861.388	21701
861.521	22325
861.653	21599
861.786	21466
861.918	21378
862.05	21496
862.183	21671
862.315	21648
862.447	21701
862.58	21389
862.712	21340
862.844	21332
862.976	21488
863.108	21393
863.24	21675
863.372	21336
863.504	21279
863.636	21268
863.768	21249
863.9	21367
864.032	21264
864.164	21294
864.296	21348
864.428	21462
864.559	21317
864.691	21481
864.823	21340
864.954	21386
865.086	21386
865.217	21241
865.349	21233
865.48	21165
865.612	21260
865.743	21401
865.875	21199
866.006	21226
866.137	21058
866.269	21230
866.4	21077
866.531	21066
866.662	21165
866.793	21199
866.924	21195
867.055	21268
867.186	21195
867.317	21142
867.448	21028
867.579	21188
867.71	21062
867.841	21150
867.972	21184
868.103	21211
868.233	21203
868.364	21173
868.495	21230
868.625	21313
868.756	21450
868.886	21264
869.017	21488
869.147	21477
869.278	21538
869.408	21306
869.539	21405
869.669	21469
869.799	21462
869.929	21481
870.06	21458
870.19	21713
870.32	21759
870.45	21606
870.58	21663
870.71	21880
870.84	21876
870.97	21842
871.1	21835
871.23	21888
871.36	21892
871.489	21911
871.619	21835
871.749	21972
871.879	22082
872.008	22021
872.138	22154
872.267	21941
872.397	21987
872.526	21789
872.656	21831
872.785	21876
872.915	22032
873.044	22040
873.173	22021
873.303	22143
873.432	22101
873.561	22109
873.69	21964
873.819	22017
873.948	22017
874.077	21987
874.206	22029
874.335	22040
874.464	22215
874.593	22238
874.722	22192
874.851	22363
874.979	22246
875.108	22379
875.237	22188
875.365	22135
875.494	22200
875.623	22310
875.751	22078
875.88	22276
876.008	22196
876.136	22413
876.265	22546
876.393	22828
876.521	22664
876.65	22710
876.778	22630
876.906	22550
877.034	22527
877.162	22607
877.29	22447
877.418	22489
877.546	22569
877.674	22615
877.802	22512
877.93	22523
878.058	22538
878.185	22432
878.313	22451
878.441	22481
878.568	22440
878.696	22375
878.824	22721
878.951	22607
879.079	22706
879.206	22873
879.333	22622
879.461	22588
879.588	22630
879.715	22656
879.842	22896
879.97	22698
880.097	22398
880.224	22375
880.351	22462
880.478	22443
880.605	22276
880.732	22329
880.859	22634
880.986	22386
881.112	22424
881.239	22242
881.366	22097
881.493	21991
881.619	22036
881.746	21907
881.872	21915
881.999	21953
882.125	21953
882.252	22143
882.378	21930
882.505	21922
882.631	21838
882.757	21709
882.883	21705
883.01	21686
883.136	21599
883.262	21603
883.388	21424
883.514	21610
883.64	21686
883.766	21526
883.892	21473
884.018	21420
884.143	21511
884.269	21622
884.395	21344
884.52	21272
884.646	21336
884.772	21291
884.897	21207
885.023	21256
885.148	21469
885.274	21534
885.399	21450
885.524	21386
885.65	21260
885.775	21329
885.9	21310
886.025	21332
886.15	21458
886.275	21275
886.4	21199
886.525	21237
886.65	21195
886.775	21264
886.9	21370
887.025	21511
887.149	21195
887.274	21195
887.399	21036
887.523	20975
887.648	21009
887.773	20971
887.897	21066
888.021	20925
888.146	21074
888.27	21157
888.395	21157
888.519	21100
888.643	21062
888.767	21104
888.891	21001
889.015	20960
889.139	20872
889.263	20918
889.387	20948
889.511	20998
889.635	20845
889.759	20864
889.883	20800
890.006	20857
890.13	20902
890.254	20857
890.377	20792
890.501	20613
890.624	20450
890.748	20602
890.871	20522
890.995	20336
891.118	20461
891.241	20370
891.364	20351
891.488	20533
891.611	20419
891.734	20305
891.857	20454
891.98	20366
892.103	20526
892.226	20427
892.349	20320
892.471	20180
892.594	20317
892.717	20355
892.839	20339
892.962	20328
893.085	20412
893.207	20275
893.33	20164
893.452	20290
893.575	20267
893.697	20347
893.819	20446
893.941	20507
894.064	20457
894.186	20347
894.308	20290
894.43	20396
894.552	20355
894.674	20374
894.796	20256
894.918	20404
895.04	20214
895.161	20366
895.283	20339
895.405	20225
895.526	20313
895.648	20396
895.769	20381
895.891	20332
896.012	20442
896.134	20362
896.255	20336
896.376	20313
896.498	20396
896.619	20393
896.74	20320
896.861	20362
896.982	20560
897.103	20750
897.224	20594
897.345	20507
897.466	20423
897.587	20412
897.708	20712
897.828	20590
897.949	20415
898.07	20259
898.19	20446
898.311	20541
898.431	20389
898.552	20659
898.672	20617
898.792	20568
898.913	20438
899.033	20320
899.153	20419
899.273	20161
899.393	20358
899.513	20282
899.633	20332
899.753	20145
899.873	20259
899.993	20259
900.113	20282
900.232	20115
900.352	20111
900.472	20149
900.591	19982
900.711	20054
900.83	19902
900.95	20149
901.069	20107
901.189	20012
901.308	19696
901.427	19582
901.546	19529
901.665	19620
901.784	19712
901.904	19514
902.023	19460
902.141	19194
902.26	19122
902.379	19221
902.498	19141
902.617	19145
902.735	19072
902.854	19008
902.973	18989
903.091	18875
903.21	18867
903.328	18779
903.446	18635
903.565	18601
903.683	18578
903.801	18597
903.919	18525
904.038	18604
904.156	18433
904.274	18585
904.392	18239
904.51	18441
904.627	18384
904.745	18395
904.863	18372
904.981	18121
905.098	18026
905.216	18011
905.334	18136
905.451	18083
905.569	18076
905.686	18022
905.803	17927
905.921	17786
906.038	17901
906.155	17859
906.272	17733
906.389	17718
906.506	17562
906.623	17562
906.74	17581
906.857	17444
906.974	17452
907.091	17596
907.208	17779
907.324	17577
907.441	17482
907.557	17288
907.674	17250
907.79	17315
907.907	17284
908.023	17307
908.139	17242
908.256	17200
908.372	17162
908.488	17132
908.604	17045
908.72	16900
908.836	16961
908.952	16957
909.068	17083
909.184	17159
909.3	17117
909.415	16987
909.531	16995
909.647	16809
909.762	16744
909.878	16668
909.993	16793
910.108	16778
910.224	16698
910.339	16702
910.454	16538
910.57	16527
910.685	16424
910.8	16691
910.915	16694
911.03	16462
911.145	16379
911.259	16390
911.374	16291
911.489	16246
911.604	16181
911.718	16093
911.833	16074
911.947	15937
912.062	15922
912.176	16067
912.291	15983
912.405	15949
912.519	16230
912.633	16234
912.748	16021
912.862	15979
912.976	15846
913.09	15819
913.204	15835
913.318	15812
913.431	15994
913.545	15987
913.659	15987
913.772	15850
913.886	15755
914	15660
914.113	15736
914.226	15671
914.34	15701
914.453	15485
914.566	15724
914.68	15587
914.793	15557
914.906	15306
915.019	15291
915.132	15211
915.245	15283
915.358	15306
915.47	15321
915.583	15230
915.696	15310
915.809	15378
915.921	15348
916.034	15135
916.146	15176
916.259	15116
916.371	15355
916.483	15203
916.595	15028
916.708	15116
916.82	15093
916.932	14963
917.044	15058
917.156	15032
917.268	14948
917.38	14899
917.491	14872
917.603	14880
917.715	14941
917.826	14990
917.938	14864
918.049	14773
918.161	14880
918.272	14944
918.384	14921
918.495	14807
918.606	14686
918.717	14590
918.828	14720
918.939	14758
919.05	14503
919.161	14735
919.272	14412
919.383	14541
919.494	14587
919.604	14785
919.715	14682
919.826	14457
919.936	14659
920.047	14670
920.157	14556
920.267	14750
920.378	14613
920.488	14590
920.598	14823
920.708	14986
920.818	14743
920.928	14823
921.038	14861
921.148	14785
921.258	14549
921.368	14549
921.477	14362
921.587	14324
921.697	14210
921.806	14434
921.916	14248
922.025	14069
922.134	14001
922.244	13978
922.353	14069
922.462	13841
922.571	13803
922.68	13651
922.789	13655
922.898	13525
923.007	13723
923.116	13616
923.224	13613
923.333	13685
923.442	13460
923.55	13502
923.659	13594
923.767	13510
923.876	13521
923.984	13472
924.092	13438
924.201	13411
924.309	13384
924.417	13354
924.525	13369
924.633	13346
924.741	14123
924.849	13126
924.956	13255
925.064	13141
925.172	13008
925.279	12977
925.387	13042
925.494	13050
925.602	13171
925.709	13080
925.816	12973
925.924	13034
926.031	13126
926.138	12985
926.245	12996
926.352	12871
926.459	12966
926.566	12989
926.673	12875
926.779	12878
926.886	12829
926.993	12646
927.099	12646
927.206	12688
927.312	12662
927.419	12612
927.525	12551
927.631	12639
927.737	12464
927.843	12429
927.95	12323
928.056	12403
928.162	12441
928.267	12479
928.373	13107
928.479	12525
928.585	12262
928.69	12384
928.796	12395
928.901	12338
929.007	12136
929.112	12327
929.218	12213
929.323	12175
929.428	12076
929.533	12194
929.638	12060
929.743	12110
929.848	12114
929.953	12091
930.058	12030
930.163	11840
930.267	11813
930.372	12007
930.477	11821
930.581	11992
930.685	11935
930.79	11741
930.894	11665
930.998	11718
931.103	11855
931.207	11505
931.311	11463
931.415	11360
931.519	11155
931.623	11117
