Data from test_V78500241_2557.txt Node
Date: Fri Mar 25 15:27:39 CST 2022
User: usil
Spectrometer: V785-0024
Trigger mode: 0
Integration Time (sec): 4.000000E-1
Scans to average: 1
Nonlinearity correction enabled: false
Boxcar width: 0
Storing dark spectrum: false
XAxis mode: Wavelengths
Number of Pixels in Spectrum: 1024
>>>>>Begin Spectral Data<<<<<
801.071	27138
801.214	27077
801.356	26975
801.499	26910
801.641	26800
801.783	26811
801.926	26773
802.068	26819
802.211	26735
802.353	26708
802.496	26507
802.638	26492
802.78	26438
802.923	26499
803.065	26343
803.208	26427
803.35	26442
803.492	26716
803.635	26606
803.777	26453
803.919	26705
804.061	26940
804.204	26697
804.346	26560
804.488	26526
804.63	26598
804.773	26537
804.915	26648
805.057	26621
805.199	26552
805.341	26621
805.483	26906
805.626	26705
805.768	26583
805.91	26777
806.052	26762
806.194	26613
806.336	26868
806.478	26788
806.62	26716
806.762	26899
806.904	26940
807.046	27252
807.188	27036
807.33	27100
807.472	27085
807.614	26948
807.756	27169
807.898	26910
808.04	26823
808.182	27009
808.324	26914
808.465	27020
808.607	27188
808.749	27325
808.891	27378
809.033	27488
809.174	27340
809.316	27211
809.458	27256
809.6	27294
809.741	27405
809.883	27561
810.025	27679
810.166	27557
810.308	27553
810.45	27633
810.591	27382
810.733	27374
810.875	27252
811.016	27081
811.158	27154
811.299	27488
811.441	27469
811.582	27462
811.724	27359
811.865	27142
812.007	27180
812.148	27211
812.29	27260
812.431	27355
812.573	27667
812.714	27679
812.855	27816
812.997	27922
813.138	28017
813.279	27823
813.421	27755
813.562	27667
813.703	27481
813.845	27408
813.986	27081
814.127	27119
814.268	26990
814.41	26998
814.551	26872
814.692	27009
814.833	26849
814.974	26940
815.115	27017
815.256	26979
815.397	26914
815.539	26712
815.68	26613
815.821	26644
815.962	26739
816.103	26705
816.244	26480
816.385	26507
816.526	26427
816.666	26358
816.807	26202
816.948	26385
817.089	26339
817.23	26244
817.371	26221
817.512	26271
817.653	26259
817.793	26225
817.934	26176
818.075	26248
818.216	26290
818.356	26164
818.497	26062
818.638	26084
818.778	25997
818.919	25913
819.06	26024
819.2	26073
819.341	26221
819.481	26168
819.622	26324
819.762	26549
819.903	26419
820.043	26507
820.184	26347
820.324	26225
820.465	26339
820.605	26377
820.746	26206
820.886	26161
821.026	26408
821.167	26187
821.307	26427
821.447	26244
821.588	26024
821.728	26115
821.868	25734
822.008	25765
822.149	25704
822.289	25632
822.429	25457
822.569	25407
822.709	25422
822.849	25343
822.99	25206
823.13	25152
823.27	25088
823.41	25046
823.55	24943
823.69	25213
823.83	25015
823.97	24863
824.11	24673
824.25	24798
824.389	24848
824.529	24886
824.669	24840
824.809	24852
824.949	24871
825.089	24905
825.228	24837
825.368	24700
825.508	24703
825.648	24703
825.787	24627
825.927	24741
826.067	24578
826.206	24745
826.346	24791
826.485	24772
826.625	24726
826.765	24894
826.904	24844
827.044	24391
827.183	24563
827.323	24365
827.462	24426
827.601	24380
827.741	24418
827.88	24429
828.02	24319
828.159	24456
828.298	24334
828.437	24532
828.577	24460
828.716	24380
828.855	24285
828.994	24152
829.134	24110
829.273	24110
829.412	24106
829.551	24038
829.69	24178
829.829	24102
829.968	24159
830.107	24178
830.246	24117
830.385	24018
830.524	24034
830.663	23961
830.802	23920
830.941	23817
831.08	23863
831.219	23851
831.357	23935
831.496	23946
831.635	23642
831.774	23703
831.913	23589
832.051	23577
832.19	23406
832.329	23638
832.467	23440
832.606	23440
832.744	23448
832.883	23486
833.022	23341
833.16	23379
833.299	23467
833.437	23440
833.576	23562
833.714	23448
833.852	23566
833.991	23581
834.129	23547
834.267	23653
834.406	23512
834.544	23649
834.682	23490
834.821	23554
834.959	23661
835.097	23497
835.235	23596
835.373	23516
835.511	23334
835.65	23265
835.788	23273
835.926	23254
836.064	23162
836.202	23117
836.34	23341
836.478	23433
836.615	23372
836.753	23360
836.891	23478
837.029	23311
837.167	23269
837.305	23284
837.443	23113
837.58	23128
837.718	23239
837.856	23166
837.993	23136
838.131	23216
838.269	22984
838.406	23109
838.544	23029
838.681	22885
838.819	22763
838.956	22599
839.094	22843
839.231	22786
839.369	22778
839.506	23014
839.643	22915
839.781	22649
839.918	22531
840.055	22664
840.193	22755
840.33	22580
840.467	22664
840.604	22748
840.742	22980
840.879	22382
841.016	22531
841.153	22531
841.29	22694
841.427	22618
841.564	22634
841.701	22535
841.838	22569
841.975	22580
842.112	22580
842.249	22459
842.385	22436
842.522	22649
842.659	22497
842.796	22261
842.933	22360
843.069	22181
843.206	22352
843.343	22436
843.479	22341
843.616	22257
843.752	22116
843.889	22109
844.025	22169
844.162	22093
844.298	22207
844.435	22101
844.571	21983
844.708	22226
844.844	22257
844.98	22181
845.117	22257
845.253	22135
845.389	22013
845.525	22025
845.661	21953
845.798	21739
845.934	21926
846.07	21884
846.206	21991
846.342	22032
846.478	21930
846.614	21732
846.75	21599
846.886	21629
847.022	21785
847.158	21625
847.294	21629
847.429	21679
847.565	21705
847.701	21781
847.837	21310
847.972	21260
848.108	21325
848.244	21306
848.379	21256
848.515	21226
848.65	21325
848.786	21150
848.921	21176
849.057	21329
849.192	21226
849.328	21249
849.463	21256
849.598	21180
849.734	21245
849.869	21055
850.004	21009
850.14	21009
850.275	21047
850.41	20895
850.545	21013
850.68	20857
850.815	21028
850.95	21070
851.085	21252
851.22	21062
851.355	21089
851.49	20925
851.625	20883
851.76	21001
851.895	20826
852.03	20887
852.165	20986
852.299	21085
852.434	21055
852.569	20811
852.703	20929
852.838	21047
852.973	21112
853.107	21123
853.242	20819
853.376	20754
853.511	20712
853.645	20788
853.78	20819
853.914	20887
854.048	20823
854.183	20697
854.317	20883
854.451	21017
854.585	20849
854.72	20891
854.854	20861
854.988	20743
855.122	20826
855.256	20724
855.39	20739
855.524	20876
855.658	20895
855.792	20765
855.926	20880
856.06	20849
856.194	20960
856.327	20705
856.461	20800
856.595	20609
856.729	20872
856.862	20941
856.996	20918
857.13	20849
857.263	20887
857.397	20804
857.53	20853
857.664	20921
857.797	20823
857.931	20918
858.064	20781
858.197	20918
858.331	20815
858.464	20731
858.597	20705
858.731	20910
858.864	20708
858.997	20777
859.13	20689
859.263	20842
859.396	20823
859.529	20781
859.662	20724
859.795	20697
859.928	20769
860.061	20921
860.194	20998
860.327	20876
860.46	20838
860.592	20937
860.725	21001
860.858	20914
860.99	20826
861.123	20724
861.256	20689
861.388	20845
861.521	21416
861.653	20758
861.786	20583
861.918	20644
862.05	20720
862.183	20708
862.315	20735
862.447	20731
862.58	20746
862.712	20473
862.844	20507
862.976	20636
863.108	20617
863.24	21024
863.372	20587
863.504	20495
863.636	20625
863.768	20590
863.9	20568
864.032	20423
864.164	20473
864.296	20746
864.428	20575
864.559	20678
864.691	20629
864.823	20541
864.954	20560
865.086	20476
865.217	20404
865.349	20351
865.48	20556
865.612	20415
865.743	20434
865.875	20431
866.006	20389
866.137	20431
866.269	20427
866.4	20396
866.531	20381
866.662	20290
866.793	20370
866.924	20355
867.055	20324
867.186	20351
867.317	20298
867.448	20317
867.579	20415
867.71	20229
867.841	20370
867.972	20362
868.103	20476
868.233	20400
868.364	20412
868.495	20473
868.625	20514
868.756	20746
868.886	20533
869.017	20701
869.147	20720
869.278	20651
869.408	20571
869.539	20575
869.669	20644
869.799	20613
869.929	20636
870.06	20735
870.19	20823
870.32	20834
870.45	20929
870.58	21039
870.71	21211
870.84	21036
870.97	21032
871.1	20960
871.23	21112
871.36	21245
871.489	21009
871.619	21173
871.749	21256
871.879	21146
872.008	21374
872.138	21332
872.267	21214
872.397	21036
872.526	21017
872.656	21055
872.785	21074
872.915	21283
873.044	21306
873.173	21195
873.303	21138
873.432	21336
873.561	21397
873.69	21313
873.819	21085
873.948	21302
874.077	21230
874.206	21188
874.335	21218
874.464	21313
874.593	21393
874.722	21431
874.851	21504
874.979	21420
875.108	21435
875.237	21435
875.365	21241
875.494	21397
875.623	21591
875.751	21416
875.88	21660
876.008	21572
876.136	21637
876.265	21899
876.393	21926
876.521	21926
876.65	21972
876.778	21797
876.906	21846
877.034	21854
877.162	21903
877.29	21671
877.418	21747
877.546	21857
877.674	21827
877.802	21808
877.93	21732
878.058	21698
878.185	21694
878.313	21705
878.441	21751
878.568	21633
878.696	21778
878.824	21816
878.951	21953
879.079	22002
879.206	22116
879.333	22044
879.461	21903
879.588	21964
879.715	21998
879.842	22215
879.97	21880
880.097	21538
880.224	21564
880.351	21766
880.478	21667
880.605	21652
880.732	21572
880.859	21892
880.986	21656
881.112	21667
881.239	21583
881.366	21412
881.493	21287
881.619	21237
881.746	21310
881.872	21260
881.999	21096
882.125	21165
882.252	21291
882.378	21233
882.505	21306
882.631	21077
882.757	21020
882.883	21093
883.01	20956
883.136	20925
883.262	20823
883.388	20727
883.514	20899
883.64	21043
883.766	20838
883.892	20629
884.018	20712
884.143	20876
884.269	20899
884.395	20670
884.52	20564
884.646	20632
884.772	20613
884.897	20434
885.023	20575
885.148	20705
885.274	20659
885.399	20651
885.524	20678
885.65	20663
885.775	20583
885.9	20575
886.025	20727
886.15	20670
886.275	20575
886.4	20473
886.525	20583
886.65	20568
886.775	20606
886.9	20621
887.025	20777
887.149	20503
887.274	20438
887.399	20389
887.523	20393
887.648	20328
887.773	20202
887.897	20351
888.021	20415
888.146	20476
888.27	20290
888.395	20438
888.519	20370
888.643	20301
888.767	20339
888.891	20381
889.015	20214
889.139	20298
889.263	20195
889.387	20275
889.511	20290
889.635	20320
889.759	20225
889.883	20161
890.006	20229
890.13	20195
890.254	20103
890.377	19982
890.501	19879
890.624	19906
890.748	19955
890.871	19845
890.995	19833
891.118	19632
891.241	19734
891.364	19826
891.488	19879
891.611	19761
891.734	19761
891.857	19818
891.98	19753
892.103	19708
892.226	19719
892.349	19719
892.471	19571
892.594	19704
892.717	19742
892.839	19575
892.962	19639
893.085	19616
893.207	19696
893.33	19556
893.452	19632
893.575	19708
893.697	19655
893.819	19731
893.941	19826
894.064	19780
894.186	19620
894.308	19525
894.43	19613
894.552	19715
894.674	19795
894.796	19533
894.918	19632
895.04	19655
895.161	19647
895.283	19849
895.405	19567
895.526	19658
895.648	19632
895.769	19628
895.891	19578
896.012	19734
896.134	19723
896.255	19632
896.376	19575
896.498	19727
896.619	19712
896.74	19727
896.861	19742
896.982	19917
897.103	20168
897.224	19944
897.345	19940
897.466	19746
897.587	19909
897.708	19986
897.828	19986
897.949	19830
898.07	19712
898.19	19807
898.311	19967
898.431	19811
898.552	19841
898.672	20035
898.792	19925
898.913	19879
899.033	19761
899.153	19628
899.273	19639
899.393	19628
899.513	19643
899.633	19677
899.753	19582
899.873	19609
899.993	19647
900.113	19632
900.232	19685
900.352	19567
900.472	19457
900.591	19430
900.711	19407
900.83	19365
900.95	19537
901.069	19506
901.189	19400
901.308	19000
901.427	19038
901.546	19012
901.665	18958
901.784	19061
901.904	18913
902.023	18741
902.141	18559
902.26	18551
902.379	18635
902.498	18536
902.617	18532
902.735	18566
902.854	18460
902.973	18384
903.091	18311
903.21	18182
903.328	18186
903.446	18110
903.565	18049
903.683	18007
903.801	17851
903.919	17973
904.038	17942
904.156	17851
904.274	17855
904.392	17745
904.51	17760
904.627	17752
904.745	17798
904.863	17729
904.981	17585
905.098	17455
905.216	17490
905.334	17497
905.451	17459
905.569	17493
905.686	17547
905.803	17535
905.921	17197
906.038	17353
906.155	17269
906.272	17117
906.389	17162
906.506	16987
906.623	17025
906.74	16965
906.857	16961
906.974	16915
907.091	16957
907.208	17075
907.324	16976
907.441	16896
907.557	16820
907.674	16748
907.79	16672
907.907	16805
908.023	16740
908.139	16778
908.256	16626
908.372	16561
908.488	16550
908.604	16493
908.72	16394
908.836	16363
908.952	16405
909.068	16531
909.184	16500
909.3	16512
909.415	16546
909.531	16516
909.647	16143
909.762	16128
909.878	16131
909.993	16185
910.108	16112
910.224	16120
910.339	16040
910.454	16044
910.57	16044
910.685	15899
910.8	16154
910.915	16048
911.03	15937
911.145	15781
911.259	15774
911.374	15713
911.489	15667
911.604	15545
911.718	15450
911.833	15603
911.947	15454
912.062	15435
912.176	15568
912.291	15587
912.405	15564
912.519	15781
912.633	15694
912.748	15625
912.862	15542
912.976	15325
913.09	15256
913.204	15306
913.318	15279
913.431	15408
913.545	15481
913.659	15374
913.772	15386
913.886	15119
914	15146
914.113	15192
914.226	15226
914.34	15188
914.453	14925
914.566	15127
914.68	15020
914.793	14921
914.906	14746
915.019	14682
915.132	14724
915.245	14621
915.358	14697
915.47	14739
915.583	14724
915.696	14720
915.809	14861
915.921	14872
916.034	14693
916.146	14583
916.259	14727
916.371	14716
916.483	14686
916.595	14431
916.708	14587
916.82	14636
916.932	14518
917.044	14522
917.156	14473
917.268	14358
917.38	14446
917.491	14423
917.603	14469
917.715	14370
917.826	14503
917.938	14339
918.049	14351
918.161	14404
918.272	14522
918.384	14507
918.495	14412
918.606	14263
918.717	14195
918.828	14244
918.939	14259
919.05	14115
919.161	14126
919.272	13932
919.383	14084
919.494	14176
919.604	14336
919.715	14096
919.826	14035
919.936	14172
920.047	14202
920.157	14073
920.267	14252
920.378	14126
920.488	14100
920.598	14374
920.708	14423
920.818	14248
920.928	14275
921.038	14457
921.148	14366
921.258	14103
921.368	13921
921.477	13898
921.587	13830
921.697	13746
921.806	13856
921.916	13685
922.025	13460
922.134	13449
922.244	13533
922.353	13681
922.462	13419
922.571	13346
922.68	13122
922.789	13202
922.898	13179
923.007	13194
923.116	13293
923.224	13171
923.333	13149
923.442	12977
923.55	13034
923.659	13076
923.767	13031
923.876	13031
923.984	12985
924.092	12951
924.201	12928
924.309	13004
924.417	12825
924.525	12894
924.633	12890
924.741	13913
924.849	12738
924.956	12867
925.064	12585
925.172	12620
925.279	12544
925.387	12578
925.494	12631
925.602	12772
925.709	12639
925.816	12532
925.924	12540
926.031	12608
926.138	12582
926.245	12673
926.352	12414
926.459	12555
926.566	12604
926.673	12445
926.779	12365
926.886	12369
926.993	12182
927.099	12232
927.206	12133
927.312	12114
927.419	12235
927.525	12243
927.631	12258
927.737	12076
927.843	12034
927.95	11977
928.056	12064
928.162	12060
928.267	12163
928.373	12692
928.479	12057
928.585	11840
928.69	11977
928.796	12076
928.901	11942
929.007	11718
929.112	11874
929.218	11870
929.323	11821
929.428	11764
929.533	11908
929.638	11710
929.743	11634
929.848	11672
929.953	11688
930.058	11600
930.163	11528
930.267	11505
930.372	11566
930.477	11406
930.581	11646
930.685	11474
930.79	11322
930.894	11345
930.998	11284
931.103	11459
931.207	11094
931.311	10999
931.415	10953
931.519	10771
931.623	10767
