Data from test_V78500241_3395.txt Node
Date: Fri Mar 25 15:33:30 CST 2022
User: usil
Spectrometer: V785-0024
Trigger mode: 0
Integration Time (sec): 4.000000E-1
Scans to average: 1
Nonlinearity correction enabled: false
Boxcar width: 0
Storing dark spectrum: false
XAxis mode: Wavelengths
Number of Pixels in Spectrum: 1024
>>>>>Begin Spectral Data<<<<<
801.071	27298
801.214	27279
801.356	27005
801.499	26929
801.641	26804
801.783	26716
801.926	26956
802.068	26720
802.211	26640
802.353	26686
802.496	26511
802.638	26450
802.78	26492
802.923	26442
803.065	26259
803.208	26225
803.35	26431
803.492	26613
803.635	26609
803.777	26332
803.919	26613
804.061	26849
804.204	26693
804.346	26560
804.488	26549
804.63	26568
804.773	26431
804.915	26705
805.057	26765
805.199	26617
805.341	26693
805.483	26674
805.626	26682
805.768	26640
805.91	26758
806.052	26708
806.194	26461
806.336	26849
806.478	26625
806.62	26705
806.762	26906
806.904	26982
807.046	27127
807.188	27081
807.33	27039
807.472	27138
807.614	26948
807.756	26975
807.898	26853
808.04	26864
808.182	26853
808.324	26815
808.465	26937
808.607	27074
808.749	27298
808.891	27435
809.033	27427
809.174	27237
809.316	27298
809.458	27294
809.6	27203
809.741	27378
809.883	27431
810.025	27576
810.166	27553
810.308	27599
810.45	27496
810.591	27545
810.733	27302
810.875	27207
811.016	27154
811.158	27039
811.299	27370
811.441	27275
811.582	27431
811.724	27218
811.865	27184
812.007	27233
812.148	27298
812.29	27329
812.431	27443
812.573	27530
812.714	27724
812.855	27682
812.997	27850
813.138	28017
813.279	27819
813.421	27797
813.562	27808
813.703	27564
813.845	27454
813.986	27100
814.127	27085
814.268	26853
814.41	26853
814.551	26960
814.692	26975
814.833	26682
814.974	26868
815.115	26910
815.256	26785
815.397	26849
815.539	26864
815.68	26712
815.821	26636
815.962	26655
816.103	26590
816.244	26587
816.385	26309
816.526	26229
816.666	26229
816.807	26065
816.948	26088
817.089	26252
817.23	26145
817.371	26191
817.512	26214
817.653	26107
817.793	26073
817.934	26073
818.075	26252
818.216	26278
818.356	26122
818.497	26005
818.638	25871
818.778	25909
818.919	25860
819.06	26073
819.2	26103
819.341	26126
819.481	26218
819.622	26347
819.762	26484
819.903	26320
820.043	26309
820.184	26282
820.324	26202
820.465	26271
820.605	26415
820.746	26199
820.886	26240
821.026	26366
821.167	26347
821.307	26328
821.447	26252
821.588	26031
821.728	25928
821.868	25575
822.008	25791
822.149	25609
822.289	25624
822.429	25430
822.569	25362
822.709	25407
822.849	25164
822.99	25114
823.13	25046
823.27	25160
823.41	25008
823.55	24817
823.69	24924
823.83	25031
823.97	24897
824.11	24776
824.25	24639
824.389	24696
824.529	24863
824.669	24734
824.809	24909
824.949	24890
825.089	24848
825.228	24814
825.368	24616
825.508	24715
825.648	24627
825.787	24696
825.927	24696
826.067	24563
826.206	24635
826.346	24783
826.485	24745
826.625	24673
826.765	24692
826.904	24726
827.044	24407
827.183	24410
827.323	24422
827.462	24536
827.601	24380
827.741	24399
827.88	24422
828.02	24281
828.159	24414
828.298	24300
828.437	24410
828.577	24266
828.716	24361
828.855	24270
828.994	24114
829.134	24106
829.273	24133
829.412	24182
829.551	23935
829.69	24079
829.829	24262
829.968	24087
830.107	24182
830.246	24148
830.385	23988
830.524	23916
830.663	23893
830.802	23904
830.941	23604
831.08	23722
831.219	23748
831.357	23843
831.496	23866
831.635	23665
831.774	23653
831.913	23604
832.051	23482
832.19	23554
832.329	23444
832.467	23463
832.606	23410
832.744	23235
832.883	23353
833.022	23379
833.16	23467
833.299	23383
833.437	23398
833.576	23505
833.714	23615
833.852	23551
833.991	23482
834.129	23531
834.267	23589
834.406	23516
834.544	23440
834.682	23425
834.821	23349
834.959	23707
835.097	23383
835.235	23531
835.373	23452
835.511	23455
835.65	23417
835.788	23322
835.926	23132
836.064	23109
836.202	23075
836.34	23250
836.478	23277
836.615	23242
836.753	23353
836.891	23398
837.029	23322
837.167	23296
837.305	23258
837.443	23155
837.58	23132
837.718	23102
837.856	23204
837.993	23075
838.131	23254
838.269	23075
838.406	23109
838.544	23025
838.681	22820
838.819	22885
838.956	22801
839.094	22649
839.231	22580
839.369	22885
839.506	22995
839.643	22835
839.781	22561
839.918	22561
840.055	22653
840.193	22645
840.33	22432
840.467	22577
840.604	22573
840.742	22869
840.879	22405
841.016	22497
841.153	22519
841.29	22565
841.427	22504
841.564	22462
841.701	22759
841.838	22592
841.975	22550
842.112	22577
842.249	22367
842.385	22337
842.522	22432
842.659	22314
842.796	22299
842.933	22394
843.069	22417
843.206	22382
843.343	22394
843.479	22291
843.616	22280
843.752	21987
843.889	22090
844.025	22215
844.162	22067
844.298	22246
844.435	22040
844.571	21972
844.708	22082
844.844	22363
844.98	22226
845.117	22234
845.253	22059
845.389	21918
845.525	21991
845.661	21983
845.798	21854
845.934	21945
846.07	21842
846.206	21888
846.342	22025
846.478	21850
846.614	21732
846.75	21580
846.886	21591
847.022	21656
847.158	21667
847.294	21618
847.429	21675
847.565	21523
847.701	21899
847.837	21325
847.972	21344
848.108	21435
848.244	21553
848.379	21359
848.515	21241
848.65	21142
848.786	21157
848.921	21127
849.057	21298
849.192	21203
849.328	21241
849.463	21199
849.598	21230
849.734	21100
849.869	20929
850.004	20876
850.14	21013
850.275	20864
850.41	20952
850.545	20921
850.68	20788
850.815	21043
850.95	20910
851.085	21127
851.22	21081
851.355	20899
851.49	20914
851.625	20880
851.76	20929
851.895	20834
852.03	20971
852.165	20952
852.299	20971
852.434	20990
852.569	20941
852.703	20887
852.838	20963
852.973	20986
853.107	21013
853.242	20971
853.376	20781
853.511	20625
853.645	20739
853.78	20906
853.914	20807
854.048	20788
854.183	20868
854.317	20765
854.451	20941
854.585	20845
854.72	20826
854.854	20902
854.988	20731
855.122	20773
855.256	20629
855.39	20750
855.524	20830
855.658	20765
855.792	20762
855.926	20701
856.06	20762
856.194	20853
856.327	20758
856.461	20670
856.595	20686
856.729	20777
856.862	20849
856.996	20777
857.13	20842
857.263	20948
857.397	20864
857.53	20792
857.664	20735
857.797	20883
857.931	20845
858.064	20640
858.197	20910
858.331	20834
858.464	20689
858.597	20716
858.731	20750
858.864	20667
858.997	20739
859.13	20800
859.263	20754
859.396	20762
859.529	20819
859.662	20887
859.795	20781
859.928	20750
860.061	21028
860.194	20994
860.327	20880
860.46	20724
860.592	20876
860.725	20842
860.858	20929
860.99	20788
861.123	20560
861.256	20746
861.388	20788
861.521	21447
861.653	20693
861.786	20514
861.918	20602
862.05	20762
862.183	20636
862.315	20617
862.447	20796
862.58	20651
862.712	20503
862.844	20514
862.976	20533
863.108	20469
863.24	20891
863.372	20549
863.504	20514
863.636	20598
863.768	20465
863.9	20571
864.032	20370
864.164	20434
864.296	20442
864.428	20579
864.559	20533
864.691	20579
864.823	20503
864.954	20400
865.086	20545
865.217	20385
865.349	20507
865.48	20423
865.612	20286
865.743	20457
865.875	20465
866.006	20404
866.137	20396
866.269	20393
866.4	20347
866.531	20431
866.662	20252
866.793	20366
866.924	20385
867.055	20400
867.186	20351
867.317	20275
867.448	20351
867.579	20313
867.71	20332
867.841	20263
867.972	20290
868.103	20305
868.233	20389
868.364	20263
868.495	20324
868.625	20518
868.756	20670
868.886	20609
869.017	20431
869.147	20659
869.278	20674
869.408	20613
869.539	20503
869.669	20648
869.799	20625
869.929	20670
870.06	20640
870.19	20834
870.32	20883
870.45	20982
870.58	20880
870.71	21047
870.84	20933
870.97	21009
871.1	20986
871.23	21150
871.36	21233
871.489	21089
871.619	20994
871.749	21108
871.879	21230
872.008	21302
872.138	21203
872.267	21199
872.397	21131
872.526	21085
872.656	21028
872.785	21077
872.915	21161
873.044	21279
873.173	21119
873.303	21211
873.432	21256
873.561	21272
873.69	21104
873.819	21142
873.948	21279
874.077	21428
874.206	21161
874.335	21211
874.464	21230
874.593	21408
874.722	21306
874.851	21469
874.979	21538
875.108	21553
875.237	21481
875.365	21310
875.494	21473
875.623	21549
875.751	21431
875.88	21534
876.008	21572
876.136	21572
876.265	21884
876.393	21934
876.521	22036
876.65	21941
876.778	21823
876.906	21785
877.034	21732
877.162	21831
877.29	21835
877.418	21888
877.546	21770
877.674	21751
877.802	21709
877.93	21850
878.058	21827
878.185	21641
878.313	21789
878.441	21789
878.568	21538
878.696	21690
878.824	21892
878.951	21835
879.079	21937
879.206	22101
879.333	21979
879.461	21781
879.588	21831
879.715	22036
879.842	21972
879.97	21888
880.097	21739
880.224	21701
880.351	21686
880.478	21648
880.605	21572
880.732	21720
880.859	21983
880.986	21591
881.112	21667
881.239	21473
881.366	21397
881.493	21329
881.619	21275
881.746	21291
881.872	21199
881.999	21230
882.125	21211
882.252	21161
882.378	21161
882.505	21222
882.631	21123
882.757	20967
882.883	20921
883.01	20861
883.136	20800
883.262	20750
883.388	20796
883.514	20956
883.64	20830
883.766	20826
883.892	20708
884.018	20712
884.143	20826
884.269	20990
884.395	20602
884.52	20533
884.646	20644
884.772	20632
884.897	20461
885.023	20606
885.148	20678
885.274	20670
885.399	20556
885.524	20583
885.65	20541
885.775	20682
885.9	20541
886.025	20556
886.15	20682
886.275	20381
886.4	20564
886.525	20518
886.65	20431
886.775	20492
886.9	20587
887.025	20853
887.149	20667
887.274	20446
887.399	20332
887.523	20454
887.648	20225
887.773	20240
887.897	20415
888.021	20362
888.146	20252
888.27	20381
888.395	20431
888.519	20282
888.643	20377
888.767	20336
888.891	20263
889.015	20157
889.139	20153
889.263	20050
889.387	20237
889.511	20313
889.635	20317
889.759	20176
889.883	20100
890.006	20157
890.13	20214
890.254	20107
890.377	20024
890.501	19906
890.624	19780
890.748	19902
890.871	19811
890.995	19788
891.118	19647
891.241	19674
891.364	19761
891.488	19788
891.611	19700
891.734	19719
891.857	19639
891.98	19681
892.103	19868
892.226	19708
892.349	19639
892.471	19533
892.594	19651
892.717	19639
892.839	19537
892.962	19609
893.085	19723
893.207	19586
893.33	19552
893.452	19594
893.575	19651
893.697	19651
893.819	19795
893.941	19845
894.064	19693
894.186	19681
894.308	19392
894.43	19727
894.552	19776
894.674	19803
894.796	19613
894.918	19472
895.04	19563
895.161	19700
895.283	19677
895.405	19556
895.526	19548
895.648	19643
895.769	19521
895.891	19616
896.012	19723
896.134	19578
896.255	19651
896.376	19426
896.498	19715
896.619	19601
896.74	19613
896.861	19757
896.982	19909
897.103	20111
897.224	19928
897.345	19833
897.466	19765
897.587	19833
897.708	19947
897.828	19913
897.949	19849
898.07	19712
898.19	19708
898.311	19940
898.431	19833
898.552	19883
898.672	19917
898.792	19868
898.913	19875
899.033	19715
899.153	19609
899.273	19483
899.393	19559
899.513	19605
899.633	19639
899.753	19556
899.873	19510
899.993	19670
900.113	19594
900.232	19567
900.352	19441
900.472	19460
900.591	19388
900.711	19476
900.83	19464
900.95	19495
901.069	19514
901.189	19247
901.308	19103
901.427	18867
901.546	19008
901.665	19069
901.784	19004
901.904	18783
902.023	18772
902.141	18566
902.26	18509
902.379	18555
902.498	18448
902.617	18456
902.735	18563
902.854	18403
902.973	18452
903.091	18194
903.21	18228
903.328	18190
903.446	18117
903.565	18015
903.683	18060
903.801	17912
903.919	17965
904.038	17885
904.156	17760
904.274	17805
904.392	17775
904.51	17687
904.627	17847
904.745	17722
904.863	17760
904.981	17512
905.098	17573
905.216	17444
905.334	17463
905.451	17387
905.569	17292
905.686	17551
905.803	17463
905.921	17303
906.038	17269
906.155	17193
906.272	17124
906.389	17151
906.506	17018
906.623	16957
906.74	16968
906.857	16755
906.974	16972
907.091	16930
907.208	17075
907.324	16991
907.441	16862
907.557	16656
907.674	16752
907.79	16656
907.907	16683
908.023	16752
908.139	16664
908.256	16698
908.372	16660
908.488	16607
908.604	16440
908.72	16470
908.836	16341
908.952	16386
909.068	16398
909.184	16554
909.3	16440
909.415	16478
909.531	16413
909.647	16150
909.762	16166
909.878	15998
909.993	16158
910.108	16131
910.224	16093
910.339	15987
910.454	15945
910.57	15964
910.685	15861
910.8	16093
910.915	16044
911.03	15972
911.145	15842
911.259	15747
911.374	15618
911.489	15709
911.604	15584
911.718	15469
911.833	15515
911.947	15389
912.062	15310
912.176	15564
912.291	15542
912.405	15393
912.519	15675
912.633	15561
912.748	15431
912.862	15458
912.976	15317
913.09	15294
913.204	15230
913.318	15298
913.431	15374
913.545	15447
913.659	15420
913.772	15363
913.886	15112
914	15074
914.113	15195
914.226	15203
914.34	15146
914.453	15028
914.566	15047
914.68	15127
914.793	15047
914.906	14819
915.019	14743
915.132	14689
915.245	14686
915.358	14686
915.47	14819
915.583	14762
915.696	14781
915.809	14804
915.921	14826
916.034	14697
916.146	14663
916.259	14594
916.371	14629
916.483	14659
916.595	14552
916.708	14575
916.82	14575
916.932	14522
917.044	14556
917.156	14492
917.268	14381
917.38	14351
917.491	14343
917.603	14408
917.715	14552
917.826	14419
917.938	14298
918.049	14202
918.161	14324
918.272	14526
918.384	14366
918.495	14339
918.606	14145
918.717	14050
918.828	14107
918.939	14103
919.05	14153
919.161	14157
919.272	13890
919.383	13974
919.494	14202
919.604	14305
919.715	14187
919.826	14027
919.936	14027
920.047	14191
920.157	14157
920.267	14221
920.378	14107
920.488	14069
920.598	14286
920.708	14419
920.818	14290
920.928	14210
921.038	14400
921.148	14419
921.258	14065
921.368	14020
921.477	13864
921.587	13849
921.697	13822
921.806	13951
921.916	13731
922.025	13639
922.134	13544
922.244	13419
922.353	13647
922.462	13373
922.571	13301
922.68	13221
922.789	13084
922.898	13225
923.007	13110
923.116	13225
923.224	13145
923.333	13209
923.442	13129
923.55	13015
923.659	13012
923.767	12977
923.876	12901
923.984	12985
924.092	12882
924.201	12913
924.309	12932
924.417	12913
924.525	12798
924.633	12833
924.741	13731
924.849	12555
924.956	12783
925.064	12631
925.172	12604
925.279	12684
925.387	12608
925.494	12669
925.602	12703
925.709	12703
925.816	12475
925.924	12525
926.031	12616
926.138	12601
926.245	12642
926.352	12506
926.459	12620
926.566	12589
926.673	12566
926.779	12460
926.886	12369
926.993	12239
927.099	12209
927.206	12110
927.312	12110
927.419	12197
927.525	12262
927.631	12281
927.737	12083
927.843	12076
927.95	11954
928.056	12091
928.162	11965
928.267	12133
928.373	12566
928.479	12182
928.585	11851
928.69	11935
928.796	12041
928.901	11885
929.007	11794
929.112	11977
929.218	11870
929.323	11798
929.428	11707
929.533	11984
929.638	11718
929.743	11752
929.848	11775
929.953	11741
930.058	11649
930.163	11452
930.267	11471
930.372	11528
930.477	11376
930.581	11680
930.685	11573
930.79	11368
930.894	11410
930.998	11280
931.103	11558
931.207	11147
931.311	11086
931.415	10999
931.519	10649
931.623	10717
