Data from test_V78500241_3358.txt Node
Date: Fri Mar 25 15:33:14 CST 2022
User: usil
Spectrometer: V785-0024
Trigger mode: 0
Integration Time (sec): 4.000000E-1
Scans to average: 1
Nonlinearity correction enabled: false
Boxcar width: 0
Storing dark spectrum: false
XAxis mode: Wavelengths
Number of Pixels in Spectrum: 1024
>>>>>Begin Spectral Data<<<<<
801.071	27226
801.214	27108
801.356	26910
801.499	26796
801.641	26727
801.783	26663
801.926	26667
802.068	26697
802.211	26659
802.353	26495
802.496	26412
802.638	26446
802.78	26271
802.923	26119
803.065	26130
803.208	26263
803.35	26294
803.492	26362
803.635	26377
803.777	26370
803.919	26438
804.061	26617
804.204	26530
804.346	26347
804.488	26313
804.63	26389
804.773	26282
804.915	26453
805.057	26530
805.199	26385
805.341	26507
805.483	26545
805.626	26625
805.768	26556
805.91	26511
806.052	26434
806.194	26393
806.336	26640
806.478	26442
806.62	26537
806.762	26750
806.904	26750
807.046	27051
807.188	27001
807.33	26998
807.472	26956
807.614	27036
807.756	26925
807.898	26811
808.04	26636
808.182	26781
808.324	26724
808.465	26864
808.607	27138
808.749	26975
808.891	27077
809.033	27348
809.174	27192
809.316	27188
809.458	27066
809.6	27173
809.741	27233
809.883	27089
810.025	27458
810.166	27336
810.308	27355
810.45	27256
810.591	27157
810.733	27192
810.875	27100
811.016	26918
811.158	27058
811.299	27150
811.441	27306
811.582	27135
811.724	27230
811.865	27062
812.007	27146
812.148	27146
812.29	27112
812.431	27287
812.573	27420
812.714	27492
812.855	27519
812.997	27572
813.138	27941
813.279	27515
813.421	27648
813.562	27557
813.703	27439
813.845	27294
813.986	27116
814.127	26830
814.268	26842
814.41	26746
814.551	26750
814.692	26777
814.833	26724
814.974	26667
815.115	26781
815.256	26575
815.397	26568
815.539	26613
815.68	26564
815.821	26545
815.962	26571
816.103	26457
816.244	26358
816.385	26328
816.526	26206
816.666	26164
816.807	26016
816.948	26027
817.089	26073
817.23	25951
817.371	26035
817.512	25879
817.653	26020
817.793	25845
817.934	26092
818.075	25944
818.216	26027
818.356	25921
818.497	25795
818.638	25769
818.778	25772
818.919	25693
819.06	25799
819.2	25970
819.341	26035
819.481	25826
819.622	26168
819.762	26320
819.903	26298
820.043	26103
820.184	26012
820.324	26145
820.465	26206
820.605	26092
820.746	26149
820.886	25997
821.026	26134
821.167	26039
821.307	26149
821.447	25982
821.588	25925
821.728	25811
821.868	25590
822.008	25468
822.149	25453
822.289	25339
822.429	25293
822.569	25042
822.709	25160
822.849	25000
822.99	25008
823.13	25008
823.27	25046
823.41	24852
823.55	24768
823.69	24688
823.83	24817
823.97	24867
824.11	24483
824.25	24566
824.389	24608
824.529	24688
824.669	24570
824.809	24677
824.949	24787
825.089	24608
825.228	24623
825.368	24505
825.508	24467
825.648	24498
825.787	24486
825.927	24422
826.067	24494
826.206	24528
826.346	24513
826.485	24528
826.625	24536
826.765	24540
826.904	24486
827.044	24311
827.183	24095
827.323	24148
827.462	24285
827.601	24251
827.741	24216
827.88	24330
828.02	24095
828.159	24038
828.298	24201
828.437	24289
828.577	24060
828.716	24319
828.855	24140
828.994	23813
829.134	23866
829.273	23889
829.412	23843
829.551	23813
829.69	23996
829.829	23904
829.968	23992
830.107	24018
830.246	24003
830.385	23866
830.524	23767
830.663	23882
830.802	23524
830.941	23577
831.08	23436
831.219	23592
831.357	23585
831.496	23642
831.635	23516
831.774	23372
831.913	23250
832.051	23296
832.19	23315
832.329	23349
832.467	23227
832.606	23239
832.744	23060
832.883	23178
833.022	23170
833.16	23197
833.299	23269
833.437	23231
833.576	23223
833.714	23277
833.852	23269
833.991	23322
834.129	23311
834.267	23345
834.406	23258
834.544	23242
834.682	23311
834.821	23280
834.959	23528
835.097	23231
835.235	23414
835.373	23227
835.511	23223
835.65	23223
835.788	23220
835.926	23090
836.064	22923
836.202	23048
836.34	23174
836.478	23162
836.615	23025
836.753	23075
836.891	23288
837.029	23083
837.167	23166
837.305	23185
837.443	22976
837.58	23060
837.718	23006
837.856	23064
837.993	22793
838.131	23044
838.269	22831
838.406	22930
838.544	22835
838.681	22645
838.819	22691
838.956	22573
839.094	22531
839.231	22588
839.369	22630
839.506	22843
839.643	22759
839.781	22493
839.918	22481
840.055	22386
840.193	22462
840.33	22371
840.467	22299
840.604	22470
840.742	22611
840.879	22253
841.016	22310
841.153	22360
841.29	22603
841.427	22318
841.564	22512
841.701	22318
841.838	22314
841.975	22379
842.112	22337
842.249	22246
842.385	22131
842.522	22402
842.659	22242
842.796	22173
842.933	22223
843.069	22021
843.206	22261
843.343	22268
843.479	22192
843.616	22230
843.752	21915
843.889	21979
844.025	22051
844.162	21880
844.298	21972
844.435	21941
844.571	21869
844.708	21857
844.844	22006
844.98	22086
845.117	21964
845.253	21922
845.389	21747
845.525	21774
845.661	21797
845.798	21633
845.934	21709
846.07	21603
846.206	21739
846.342	21816
846.478	21595
846.614	21447
846.75	21496
846.886	21420
847.022	21481
847.158	21538
847.294	21447
847.429	21538
847.565	21443
847.701	21652
847.837	21150
847.972	21036
848.108	21104
848.244	21249
848.379	21043
848.515	21032
848.65	20880
848.786	20998
848.921	21062
849.057	21104
849.192	21104
849.328	21001
849.463	21017
849.598	20967
849.734	20845
849.869	20838
850.004	20842
850.14	20845
850.275	20788
850.41	20625
850.545	20735
850.68	20743
850.815	20823
850.95	20788
851.085	20960
851.22	20815
851.355	20758
851.49	20823
851.625	20800
851.76	20788
851.895	20701
852.03	20682
852.165	20815
852.299	20701
852.434	20845
852.569	20842
852.703	20796
852.838	20815
852.973	20804
853.107	20773
853.242	20712
853.376	20545
853.511	20412
853.645	20621
853.78	20697
853.914	20640
854.048	20579
854.183	20602
854.317	20533
854.451	20834
854.585	20629
854.72	20648
854.854	20598
854.988	20640
855.122	20670
855.256	20545
855.39	20450
855.524	20568
855.658	20583
855.792	20583
855.926	20629
856.06	20670
856.194	20708
856.327	20609
856.461	20526
856.595	20507
856.729	20663
856.862	20621
856.996	20552
857.13	20632
857.263	20659
857.397	20655
857.53	20552
857.664	20617
857.797	20701
857.931	20678
858.064	20499
858.197	20663
858.331	20587
858.464	20488
858.597	20465
858.731	20651
858.864	20454
858.997	20590
859.13	20590
859.263	20598
859.396	20549
859.529	20552
859.662	20503
859.795	20469
859.928	20549
860.061	20720
860.194	20777
860.327	20579
860.46	20541
860.592	20697
860.725	20686
860.858	20621
860.99	20609
861.123	20514
861.256	20476
861.388	20587
861.521	21313
861.653	20442
861.786	20423
861.918	20488
862.05	20488
862.183	20530
862.315	20514
862.447	20541
862.58	20560
862.712	20393
862.844	20328
862.976	20423
863.108	20351
863.24	20705
863.372	20275
863.504	20389
863.636	20183
863.768	20317
863.9	20351
864.032	20199
864.164	20275
864.296	20286
864.428	20419
864.559	20374
864.691	20461
864.823	20214
864.954	20240
865.086	20381
865.217	20248
865.349	20050
865.48	20355
865.612	20202
865.743	20301
865.875	20244
866.006	20263
866.137	20221
866.269	20221
866.4	20115
866.531	20191
866.662	20073
866.793	20130
866.924	20183
867.055	20107
867.186	20183
867.317	20248
867.448	20069
867.579	20100
867.71	20187
867.841	20077
867.972	20225
868.103	20183
868.233	20267
868.364	20298
868.495	20275
868.625	20393
868.756	20358
868.886	20362
869.017	20488
869.147	20526
869.278	20537
869.408	20320
869.539	20324
869.669	20419
869.799	20560
869.929	20526
870.06	20602
870.19	20632
870.32	20697
870.45	20705
870.58	20769
870.71	20842
870.84	20952
870.97	20804
871.1	20762
871.23	21009
871.36	20979
871.489	20933
871.619	20994
871.749	21055
871.879	21066
872.008	21089
872.138	21017
872.267	21135
872.397	20895
872.526	20823
872.656	20872
872.785	20868
872.915	21028
873.044	21180
873.173	21058
873.303	21051
873.432	21043
873.561	21138
873.69	21127
873.819	20998
873.948	21081
874.077	21066
874.206	20952
874.335	20982
874.464	21169
874.593	21176
874.722	21291
874.851	21241
874.979	21306
875.108	21260
875.237	21344
875.365	21131
875.494	21214
875.623	21313
875.751	21325
875.88	21142
876.008	21507
876.136	21591
876.265	21789
876.393	21911
876.521	21804
876.65	21728
876.778	21690
876.906	21660
877.034	21603
877.162	21641
877.29	21542
877.418	21583
877.546	21644
877.674	21637
877.802	21675
877.93	21633
878.058	21728
878.185	21511
878.313	21629
878.441	21686
878.568	21386
878.696	21587
878.824	21690
878.951	21644
879.079	21728
879.206	21926
879.333	21892
879.461	21587
879.588	21728
879.715	21717
879.842	21861
879.97	21789
880.097	21408
880.224	21401
880.351	21458
880.478	21431
880.605	21382
880.732	21492
880.859	21610
880.986	21405
881.112	21622
881.239	21249
881.366	21260
881.493	21154
881.619	20979
881.746	21127
881.872	21055
881.999	20933
882.125	20990
882.252	21062
882.378	21112
882.505	21112
882.631	20902
882.757	20815
882.883	20823
883.01	20845
883.136	20731
883.262	20648
883.388	20670
883.514	20693
883.64	20773
883.766	20670
883.892	20556
884.018	20442
884.143	20750
884.269	20864
884.395	20473
884.52	20412
884.646	20514
884.772	20278
884.897	20328
885.023	20518
885.148	20374
885.274	20431
885.399	20434
885.524	20423
885.65	20488
885.775	20404
885.9	20393
886.025	20476
886.15	20412
886.275	20423
886.4	20252
886.525	20381
886.65	20252
886.775	20271
886.9	20476
887.025	20560
887.149	20389
887.274	20206
887.399	20233
887.523	20142
887.648	20020
887.773	20111
887.897	20199
888.021	20206
888.146	20103
888.27	20111
888.395	20301
888.519	20084
888.643	20259
888.767	20134
888.891	20100
889.015	20088
889.139	20012
889.263	19997
889.387	20054
889.511	20107
889.635	20237
889.759	20073
889.883	19955
890.006	19830
890.13	20027
890.254	19890
890.377	19947
890.501	19788
890.624	19693
890.748	19864
890.871	19727
890.995	19601
891.118	19472
891.241	19521
891.364	19567
891.488	19628
891.611	19525
891.734	19559
891.857	19658
891.98	19616
892.103	19639
892.226	19582
892.349	19400
892.471	19369
892.594	19468
892.717	19597
892.839	19460
892.962	19464
893.085	19605
893.207	19331
893.33	19441
893.452	19419
893.575	19575
893.697	19441
893.819	19727
893.941	19582
894.064	19559
894.186	19438
894.308	19438
894.43	19540
894.552	19700
894.674	19487
894.796	19369
894.918	19434
895.04	19495
895.161	19537
895.283	19422
895.405	19419
895.526	19415
895.648	19289
895.769	19441
895.891	19438
896.012	19616
896.134	19552
896.255	19548
896.376	19434
896.498	19518
896.619	19548
896.74	19491
896.861	19476
896.982	19826
897.103	19921
897.224	19765
897.345	19658
897.466	19575
897.587	19685
897.708	19700
897.828	19731
897.949	19677
898.07	19552
898.19	19765
898.311	19769
898.431	19670
898.552	19658
898.672	19811
898.792	19742
898.913	19715
899.033	19647
899.153	19502
899.273	19388
899.393	19483
899.513	19521
899.633	19578
899.753	19453
899.873	19453
899.993	19480
900.113	19480
900.232	19438
900.352	19373
900.472	19335
900.591	19217
900.711	19331
900.83	19114
900.95	19209
901.069	19320
901.189	19145
901.308	18894
901.427	18852
901.546	18760
901.665	18905
901.784	19038
901.904	18757
902.023	18601
902.141	18540
902.26	18391
902.379	18490
902.498	18296
902.617	18308
902.735	18471
902.854	18395
902.973	18300
903.091	18030
903.21	17984
903.328	18022
903.446	17958
903.565	17832
903.683	17817
903.801	17680
903.919	17821
904.038	17783
904.156	17615
904.274	17699
904.392	17596
904.51	17600
904.627	17653
904.745	17547
904.863	17672
904.981	17429
905.098	17326
905.216	17269
905.334	17296
905.451	17250
905.569	17242
905.686	17277
905.803	17239
905.921	17136
906.038	17227
906.155	17045
906.272	16987
906.389	17003
906.506	16847
906.623	16824
906.74	16771
906.857	16630
906.974	16793
907.091	16831
907.208	17071
907.324	16919
907.441	16759
907.557	16580
907.674	16599
907.79	16481
907.907	16603
908.023	16584
908.139	16599
908.256	16618
908.372	16466
908.488	16417
908.604	16428
908.72	16162
908.836	16265
908.952	16291
909.068	16234
909.184	16375
909.3	16341
909.415	16280
909.531	16421
909.647	16036
909.762	15953
909.878	16040
909.993	15983
910.108	16029
910.224	15975
910.339	16044
910.454	15816
910.57	15827
910.685	15743
910.8	16013
910.915	16040
911.03	15861
911.145	15580
911.259	15755
911.374	15614
911.489	15515
911.604	15504
911.718	15450
911.833	15386
911.947	15325
912.062	15192
912.176	15435
912.291	15412
912.405	15382
912.519	15610
912.633	15492
912.748	15370
912.862	15374
912.976	15192
913.09	15180
913.204	15169
913.318	15161
913.431	15233
913.545	15260
913.659	15313
913.772	15138
913.886	14998
914	14933
914.113	15055
914.226	15051
914.34	15043
914.453	14891
914.566	15066
914.68	14891
914.793	14807
914.906	14674
915.019	14587
915.132	14564
915.245	14602
915.358	14568
915.47	14648
915.583	14507
915.696	14564
915.809	14659
915.921	14727
916.034	14583
916.146	14541
916.259	14461
916.371	14598
916.483	14511
916.595	14461
916.708	14495
916.82	14480
916.932	14381
917.044	14454
917.156	14450
917.268	14317
917.38	14278
917.491	14229
917.603	14244
917.715	14298
917.826	14415
917.938	14282
918.049	14142
918.161	14233
918.272	14351
918.384	14415
918.495	14210
918.606	14073
918.717	14065
918.828	14115
918.939	14039
919.05	13947
919.161	14043
919.272	13761
919.383	13894
919.494	14069
919.604	14278
919.715	13986
919.826	14016
919.936	14035
920.047	14149
920.157	14084
920.267	14161
920.378	14035
920.488	14024
920.598	14271
920.708	14286
920.818	14183
920.928	14183
921.038	14294
921.148	14195
921.258	13986
921.368	13871
921.477	13791
921.587	13890
921.697	13639
921.806	13769
921.916	13674
922.025	13396
922.134	13415
922.244	13362
922.353	13441
922.462	13304
922.571	13297
922.68	13141
922.789	13046
922.898	13034
923.007	13103
923.116	13103
923.224	13164
923.333	13042
923.442	13012
923.55	13000
923.659	13019
923.767	12966
923.876	12901
923.984	12905
924.092	12760
924.201	12901
924.309	12825
924.417	12844
924.525	12764
924.633	12795
924.741	13750
924.849	12582
924.956	12783
925.064	12589
925.172	12464
925.279	12570
925.387	12566
925.494	12517
925.602	12684
925.709	12536
925.816	12452
925.924	12551
926.031	12582
926.138	12494
926.245	12570
926.352	12319
926.459	12570
926.566	12547
926.673	12426
926.779	12437
926.886	12361
926.993	12186
927.099	12159
927.206	12114
927.312	12163
927.419	12167
927.525	12148
927.631	12083
927.737	11999
927.843	12049
927.95	11908
928.056	11984
928.162	11931
928.267	12026
928.373	12601
928.479	12064
928.585	11786
928.69	11901
928.796	11999
928.901	11828
929.007	11657
929.112	11794
929.218	11817
929.323	11760
929.428	11699
929.533	11805
929.638	11684
929.743	11688
929.848	11634
929.953	11695
930.058	11554
930.163	11398
930.267	11444
930.372	11455
930.477	11311
930.581	11554
930.685	11505
930.79	11254
930.894	11349
930.998	11235
931.103	11417
931.207	11029
931.311	10987
931.415	10904
931.519	10645
931.623	10656
