Data from test_V78500241_3602.txt Node
Date: Fri Mar 25 15:34:56 CST 2022
User: usil
Spectrometer: V785-0024
Trigger mode: 0
Integration Time (sec): 4.000000E-1
Scans to average: 1
Nonlinearity correction enabled: false
Boxcar width: 0
Storing dark spectrum: false
XAxis mode: Wavelengths
Number of Pixels in Spectrum: 1024
>>>>>Begin Spectral Data<<<<<
801.071	27351
801.214	27302
801.356	27074
801.499	26979
801.641	26861
801.783	26765
801.926	27001
802.068	26823
802.211	26807
802.353	26655
802.496	26655
802.638	26556
802.78	26480
802.923	26438
803.065	26427
803.208	26294
803.35	26537
803.492	26526
803.635	26594
803.777	26450
803.919	26613
804.061	26929
804.204	26823
804.346	26708
804.488	26526
804.63	26655
804.773	26518
804.915	26621
805.057	26716
805.199	26686
805.341	26781
805.483	26720
805.626	26670
805.768	26526
805.91	26735
806.052	26701
806.194	26735
806.336	26960
806.478	26701
806.62	26781
806.762	26887
806.904	26921
807.046	27272
807.188	27176
807.33	27313
807.472	27249
807.614	27039
807.756	27165
807.898	27039
808.04	26906
808.182	26948
808.324	27070
808.465	27047
808.607	27146
808.749	27344
808.891	27397
809.033	27496
809.174	27382
809.316	27329
809.458	27500
809.6	27294
809.741	27416
809.883	27515
810.025	27564
810.166	27625
810.308	27709
810.45	27591
810.591	27690
810.733	27431
810.875	27317
811.016	27408
811.158	27310
811.299	27557
811.441	27545
811.582	27625
811.724	27359
811.865	27325
812.007	27279
812.148	27367
812.29	27427
812.431	27492
812.573	27656
812.714	27622
812.855	27903
812.997	27892
813.138	27781
813.279	27994
813.421	27918
813.562	27823
813.703	27576
813.845	27603
813.986	27264
814.127	27108
814.268	27070
814.41	27135
814.551	26868
814.692	27032
814.833	26979
814.974	26948
815.115	26979
815.256	26853
815.397	26986
815.539	27062
815.68	26807
815.821	26511
815.962	26804
816.103	26769
816.244	26720
816.385	26545
816.526	26488
816.666	26389
816.807	26317
816.948	26271
817.089	26294
817.23	26301
817.371	26119
817.512	26271
817.653	26153
817.793	26328
817.934	26240
818.075	26408
818.216	26381
818.356	26256
818.497	26199
818.638	26073
818.778	25989
818.919	25974
819.06	26027
819.2	26298
819.341	26202
819.481	26237
819.622	26370
819.762	26511
819.903	26465
820.043	26393
820.184	26324
820.324	26396
820.465	26473
820.605	26404
820.746	26328
820.886	26320
821.026	26286
821.167	26305
821.307	26389
821.447	26195
821.588	26100
821.728	26077
821.868	25864
822.008	25712
822.149	25731
822.289	25685
822.429	25400
822.569	25381
822.709	25457
822.849	25316
822.99	25221
823.13	25407
823.27	25225
823.41	25023
823.55	25004
823.69	25107
823.83	25183
823.97	24989
824.11	24825
824.25	24768
824.389	24901
824.529	24928
824.669	24886
824.809	25027
824.949	25046
825.089	24954
825.228	24886
825.368	24829
825.508	24669
825.648	24700
825.787	24745
825.927	24871
826.067	24738
826.206	24768
826.346	24741
826.485	24844
826.625	24707
826.765	24825
826.904	24764
827.044	24429
827.183	24578
827.323	24319
827.462	24604
827.601	24502
827.741	24528
827.88	24490
828.02	24327
828.159	24232
828.298	24441
828.437	24388
828.577	24441
828.716	24608
828.855	24410
828.994	24121
829.134	24182
829.273	24289
829.412	24072
829.551	24121
829.69	24201
829.829	24102
829.968	24395
830.107	24239
830.246	24213
830.385	24182
830.524	24159
830.663	23950
830.802	23931
830.941	23668
831.08	23726
831.219	23817
831.357	23980
831.496	23863
831.635	23805
831.774	23665
831.913	23684
832.051	23573
832.19	23691
832.329	23547
832.467	23459
832.606	23368
832.744	23379
832.883	23444
833.022	23474
833.16	23436
833.299	23535
833.437	23448
833.576	23535
833.714	23581
833.852	23486
833.991	23535
834.129	23638
834.267	23630
834.406	23558
834.544	23531
834.682	23646
834.821	23539
834.959	23714
835.097	23463
835.235	23630
835.373	23646
835.511	23425
835.65	23410
835.788	23307
835.926	23360
836.064	23292
836.202	23140
836.34	23417
836.478	23406
836.615	23356
836.753	23463
836.891	23463
837.029	23376
837.167	23341
837.305	23216
837.443	23212
837.58	23250
837.718	23242
837.856	23292
837.993	23212
838.131	23159
838.269	23147
838.406	23090
838.544	23067
838.681	22873
838.819	22847
838.956	22713
839.094	22691
839.231	22915
839.369	23014
839.506	23155
839.643	23006
839.781	22713
839.918	22584
840.055	22683
840.193	22694
840.33	22565
840.467	22618
840.604	22694
840.742	22987
840.879	22500
841.016	22645
841.153	22557
841.29	22653
841.427	22664
841.564	22592
841.701	22634
841.838	22687
841.975	22489
842.112	22611
842.249	22500
842.385	22466
842.522	22698
842.659	22504
842.796	22409
842.933	22394
843.069	22424
843.206	22272
843.343	22504
843.479	22436
843.616	22341
843.752	22188
843.889	22181
844.025	22390
844.162	22120
844.298	22226
844.435	22215
844.571	22090
844.708	22200
844.844	22371
844.98	22276
845.117	22211
845.253	22124
845.389	21926
845.525	22101
845.661	22074
845.798	22032
845.934	22044
846.07	21876
846.206	21945
846.342	22120
846.478	21903
846.614	21660
846.75	21637
846.886	21603
847.022	21686
847.158	21766
847.294	21622
847.429	21736
847.565	21747
847.701	21808
847.837	21386
847.972	21405
848.108	21523
848.244	21469
848.379	21348
848.515	21123
848.65	21169
848.786	21348
848.921	21268
849.057	21351
849.192	21298
849.328	21272
849.463	21218
849.598	21249
849.734	21260
849.869	21047
850.004	21074
850.14	21017
850.275	21070
850.41	20944
850.545	20941
850.68	20971
850.815	21157
850.95	21077
851.085	21233
851.22	21017
851.355	21058
851.49	20921
851.625	20967
851.76	21119
851.895	20994
852.03	20864
852.165	21096
852.299	21150
852.434	20994
852.569	21039
852.703	20941
852.838	21146
852.973	21272
853.107	21169
853.242	20868
853.376	20929
853.511	20743
853.645	20990
853.78	20933
853.914	20925
854.048	20754
854.183	20830
854.317	20731
854.451	20937
854.585	20792
854.72	20823
854.854	20914
854.988	20853
855.122	20811
855.256	20785
855.39	20823
855.524	20887
855.658	20864
855.792	20823
855.926	20826
856.06	20887
856.194	20994
856.327	20842
856.461	20762
856.595	20788
856.729	20876
856.862	20956
856.996	20921
857.13	20868
857.263	21005
857.397	20906
857.53	20876
857.664	20883
857.797	20845
857.931	20994
858.064	20895
858.197	20960
858.331	20727
858.464	20724
858.597	20739
858.731	20868
858.864	20788
858.997	20823
859.13	20701
859.263	20960
859.396	20963
859.529	20899
859.662	20804
859.795	20724
859.928	20853
860.061	20967
860.194	21058
860.327	20899
860.46	20887
860.592	21028
860.725	20914
860.858	21096
860.99	20849
861.123	20689
861.256	20697
861.388	20853
861.521	21629
861.653	20735
861.786	20651
861.918	20739
862.05	20731
862.183	20746
862.315	20659
862.447	20834
862.58	20731
862.712	20545
862.844	20568
862.976	20750
863.108	20727
863.24	20925
863.372	20473
863.504	20545
863.636	20533
863.768	20693
863.9	20667
864.032	20579
864.164	20629
864.296	20571
864.428	20682
864.559	20579
864.691	20659
864.823	20598
864.954	20530
865.086	20564
865.217	20552
865.349	20263
865.48	20389
865.612	20431
865.743	20750
865.875	20454
866.006	20415
866.137	20492
866.269	20488
866.4	20480
866.531	20362
866.662	20385
866.793	20480
866.924	20480
867.055	20503
867.186	20358
867.317	20305
867.448	20298
867.579	20415
867.71	20389
867.841	20210
867.972	20450
868.103	20434
868.233	20431
868.364	20385
868.495	20602
868.625	20655
868.756	20701
868.886	20514
869.017	20568
869.147	20773
869.278	20773
869.408	20724
869.539	20686
869.669	20663
869.799	20663
869.929	20754
870.06	20796
870.19	20944
870.32	20952
870.45	21058
870.58	21047
870.71	21249
870.84	21138
870.97	21207
871.1	20979
871.23	21222
871.36	21233
871.489	21135
871.619	21161
871.749	21298
871.879	21275
872.008	21405
872.138	21272
872.267	21283
872.397	21154
872.526	21123
872.656	21207
872.785	21127
872.915	21408
873.044	21378
873.173	21298
873.303	21310
873.432	21382
873.561	21344
873.69	21294
873.819	21241
873.948	21294
874.077	21310
874.206	21310
874.335	21188
874.464	21378
874.593	21538
874.722	21496
874.851	21553
874.979	21515
875.108	21572
875.237	21504
875.365	21420
875.494	21492
875.623	21447
875.751	21447
875.88	21553
876.008	21679
876.136	21709
876.265	21880
876.393	22036
876.521	22036
876.65	22017
876.778	21876
876.906	21895
877.034	21797
877.162	21861
877.29	21842
877.418	21884
877.546	21915
877.674	21819
877.802	21762
877.93	21884
878.058	21774
878.185	21698
878.313	21720
878.441	21800
878.568	21682
878.696	21686
878.824	21941
878.951	22010
879.079	22051
879.206	22101
879.333	22131
879.461	21918
879.588	22006
879.715	22192
879.842	22318
879.97	22025
880.097	21698
880.224	21778
880.351	21804
880.478	21774
880.605	21690
880.732	21641
880.859	21934
880.986	21835
881.112	21739
881.239	21580
881.366	21511
881.493	21310
881.619	21310
881.746	21397
881.872	21222
881.999	21287
882.125	21180
882.252	21256
882.378	21154
882.505	21351
882.631	21169
882.757	20925
882.883	21009
883.01	20986
883.136	21032
883.262	20796
883.388	20899
883.514	20975
883.64	21085
883.766	21001
883.892	20739
884.018	20853
884.143	20910
884.269	20982
884.395	20750
884.52	20625
884.646	20621
884.772	20712
884.897	20651
885.023	20571
885.148	20788
885.274	20678
885.399	20739
885.524	20495
885.65	20689
885.775	20670
885.9	20693
886.025	20708
886.15	20594
886.275	20731
886.4	20533
886.525	20552
886.65	20537
886.775	20526
886.9	20689
887.025	20849
887.149	20625
887.274	20465
887.399	20454
887.523	20495
887.648	20408
887.773	20396
887.897	20473
888.021	20442
888.146	20336
888.27	20461
888.395	20415
888.519	20450
888.643	20488
888.767	20351
888.891	20336
889.015	20195
889.139	20377
889.263	20286
889.387	20328
889.511	20457
889.635	20347
889.759	20229
889.883	20142
890.006	20202
890.13	20381
890.254	20092
890.377	20092
890.501	20081
890.624	19959
890.748	19944
890.871	19723
890.995	19742
891.118	19841
891.241	19780
891.364	19666
891.488	19879
891.611	19826
891.734	19757
891.857	19845
891.98	19856
892.103	19959
892.226	19818
892.349	19613
892.471	19662
892.594	19700
892.717	19708
892.839	19571
892.962	19708
893.085	19746
893.207	19632
893.33	19567
893.452	19647
893.575	19830
893.697	19674
893.819	19849
893.941	19947
894.064	19860
894.186	19635
894.308	19586
894.43	19658
894.552	19799
894.674	19791
894.796	19681
894.918	19681
895.04	19624
895.161	19830
895.283	19674
895.405	19693
895.526	19609
895.648	19575
895.769	19727
895.891	19738
896.012	19898
896.134	19708
896.255	19658
896.376	19628
896.498	19613
896.619	19780
896.74	19738
896.861	19658
896.982	19947
897.103	20168
897.224	19871
897.345	19894
897.466	19955
897.587	19860
897.708	20073
897.828	19959
897.949	19875
898.07	19936
898.19	19871
898.311	19982
898.431	19925
898.552	19944
898.672	20020
898.792	20084
898.913	19970
899.033	19906
899.153	19723
899.273	19639
899.393	19658
899.513	19674
899.633	19685
899.753	19651
899.873	19571
899.993	19689
900.113	19655
900.232	19616
900.352	19616
900.472	19620
900.591	19518
900.711	19472
900.83	19388
900.95	19571
901.069	19533
901.189	19419
901.308	19145
901.427	19076
901.546	19103
901.665	19141
901.784	19042
901.904	18901
902.023	18840
902.141	18639
902.26	18471
902.379	18684
902.498	18604
902.617	18509
902.735	18574
902.854	18570
902.973	18327
903.091	18194
903.21	18254
903.328	18186
903.446	18159
903.565	18091
903.683	18087
903.801	17984
903.919	17935
904.038	17889
904.156	17912
904.274	17946
904.392	17840
904.51	17775
904.627	17874
904.745	17798
904.863	17920
904.981	17619
905.098	17387
905.216	17524
905.334	17474
905.451	17444
905.569	17444
905.686	17482
905.803	17558
905.921	17258
906.038	17429
906.155	17292
906.272	17261
906.389	17208
906.506	16972
906.623	17029
906.74	16972
906.857	16900
906.974	16934
907.091	17086
907.208	17277
907.324	17109
907.441	16927
907.557	16816
907.674	16763
907.79	16706
907.907	16691
908.023	16820
908.139	16748
908.256	16641
908.372	16675
908.488	16668
908.604	16436
908.72	16432
908.836	16508
908.952	16390
909.068	16656
909.184	16653
909.3	16451
909.415	16466
909.531	16516
909.647	16158
909.762	16192
909.878	16169
909.993	16265
910.108	16158
910.224	16105
910.339	16200
910.454	16082
910.57	15945
910.685	15949
910.8	16242
910.915	16128
911.03	15991
911.145	15922
911.259	15781
911.374	15808
911.489	15701
911.604	15682
911.718	15557
911.833	15591
911.947	15545
912.062	15325
912.176	15443
912.291	15473
912.405	15599
912.519	15663
912.633	15732
912.748	15618
912.862	15545
912.976	15382
913.09	15313
913.204	15386
913.318	15310
913.431	15401
913.545	15389
913.659	15485
913.772	15222
913.886	15283
914	15188
914.113	15241
914.226	15291
914.34	15260
914.453	15085
914.566	15245
914.68	15055
914.793	14982
914.906	14826
915.019	14845
915.132	14701
915.245	14697
915.358	14811
915.47	14857
915.583	14750
915.696	14830
915.809	14868
915.921	14933
916.034	14693
916.146	14632
916.259	14674
916.371	14705
916.483	14731
916.595	14693
916.708	14682
916.82	14606
916.932	14564
917.044	14617
917.156	14590
917.268	14533
917.38	14446
917.491	14484
917.603	14450
917.715	14552
917.826	14568
917.938	14400
918.049	14278
918.161	14454
918.272	14590
918.384	14457
918.495	14374
918.606	14191
918.717	14020
918.828	14187
918.939	14206
919.05	14126
919.161	14206
919.272	14005
919.383	14024
919.494	14214
919.604	14332
919.715	14191
919.826	14134
919.936	14103
920.047	14358
920.157	14153
920.267	14377
920.378	14168
920.488	14210
920.598	14256
920.708	14537
920.818	14347
920.928	14252
921.038	14438
921.148	14336
921.258	14123
921.368	14153
921.477	13947
921.587	13944
921.697	13788
921.806	13906
921.916	13799
922.025	13601
922.134	13605
922.244	13457
922.353	13601
922.462	13457
922.571	13434
922.68	13289
922.789	13183
922.898	13259
923.007	13209
923.116	13225
923.224	13160
923.333	13266
923.442	13103
923.55	13103
923.659	13019
923.767	13061
923.876	13015
923.984	13004
924.092	12829
924.201	12970
924.309	12954
924.417	13000
924.525	12928
924.633	12909
924.741	13898
924.849	12711
924.956	12764
925.064	12707
925.172	12627
925.279	12654
925.387	12730
925.494	12563
925.602	12749
925.709	12764
925.816	12635
925.924	12566
926.031	12673
926.138	12593
926.245	12635
926.352	12547
926.459	12688
926.566	12738
926.673	12544
926.779	12414
926.886	12407
926.993	12266
927.099	12194
927.206	12201
927.312	12220
927.419	12285
927.525	12182
927.631	12270
927.737	12098
927.843	12076
927.95	11935
928.056	12026
928.162	12129
928.267	12007
928.373	12635
928.479	12205
928.585	11901
928.69	12053
928.796	12076
928.901	11988
929.007	11775
929.112	11908
929.218	11923
929.323	11809
929.428	11798
929.533	11969
929.638	11718
929.743	11688
929.848	11836
929.953	11802
930.058	11737
930.163	11501
930.267	11543
930.372	11642
930.477	11440
930.581	11699
930.685	11512
930.79	11509
930.894	11376
930.998	11356
931.103	11467
931.207	11132
931.311	11022
931.415	11006
931.519	10714
931.623	10782
