Data from test_V78500241_1157.txt Node
Date: Fri Mar 25 15:17:54 CST 2022
User: usil
Spectrometer: V785-0024
Trigger mode: 0
Integration Time (sec): 4.000000E-1
Scans to average: 1
Nonlinearity correction enabled: false
Boxcar width: 0
Storing dark spectrum: false
XAxis mode: Wavelengths
Number of Pixels in Spectrum: 1024
>>>>>Begin Spectral Data<<<<<
801.071	28249
801.214	28401
801.356	27949
801.499	28090
801.641	27911
801.783	27991
801.926	28044
802.068	27785
802.211	27797
802.353	27960
802.496	27671
802.638	27603
802.78	27629
802.923	27599
803.065	27458
803.208	27454
803.35	27557
803.492	27644
803.635	27854
803.777	27667
803.919	27876
804.061	28128
804.204	27869
804.346	27713
804.488	27641
804.63	27709
804.773	27701
804.915	28013
805.057	27934
805.199	27755
805.341	27778
805.483	28025
805.626	27956
805.768	27956
805.91	27888
806.052	27911
806.194	27949
806.336	28051
806.478	28002
806.62	27918
806.762	28002
806.904	28181
807.046	28497
807.188	28405
807.33	28447
807.472	28360
807.614	28310
807.756	28367
807.898	28325
808.04	28261
808.182	28223
808.324	28306
808.465	28249
808.607	28512
808.749	28584
808.891	28588
809.033	28805
809.174	28618
809.316	28649
809.458	28634
809.6	28607
809.741	28843
809.883	28782
810.025	28908
810.166	28919
810.308	28824
810.45	28911
810.591	28862
810.733	28653
810.875	28592
811.016	28436
811.158	28474
811.299	28740
811.441	28744
811.582	28809
811.724	28542
811.865	28615
812.007	28535
812.148	28588
812.29	28710
812.431	28691
812.573	28957
812.714	29064
812.855	29022
812.997	29140
813.138	29402
813.279	29318
813.421	29216
813.562	29155
813.703	28946
813.845	28953
813.986	28626
814.127	28386
814.268	28367
814.41	28497
814.551	28318
814.692	28367
814.833	28268
814.974	28306
815.115	28386
815.256	28276
815.397	28246
815.539	28215
815.68	28070
815.821	28112
815.962	28109
816.103	28215
816.244	28078
816.385	28017
816.526	27831
816.666	27713
816.807	27644
816.948	27732
817.089	27827
817.23	27618
817.371	27603
817.512	27701
817.653	27652
817.793	27534
817.934	27755
818.075	27751
818.216	27675
818.356	27435
818.497	27576
818.638	27374
818.778	27435
818.919	27363
819.06	27473
819.2	27595
819.341	27679
819.481	27682
819.622	27759
819.762	28025
819.903	27914
820.043	28010
820.184	27747
820.324	27774
820.465	27720
820.605	27865
820.746	27827
820.886	27690
821.026	27827
821.167	27736
821.307	27766
821.447	27717
821.588	27500
821.728	27534
821.868	27123
822.008	27123
822.149	27074
822.289	27062
822.429	26845
822.569	26826
822.709	26918
822.849	26625
822.99	26609
823.13	26644
823.27	26640
823.41	26461
823.55	26400
823.69	26442
823.83	26507
823.97	26419
824.11	26301
824.25	26328
824.389	26393
824.529	26450
824.669	26374
824.809	26408
824.949	26480
825.089	26427
825.228	26248
825.368	26191
825.508	26107
825.648	26195
825.787	26168
825.927	26282
826.067	26206
826.206	26180
826.346	26313
826.485	26065
826.625	26271
826.765	26317
826.904	26157
827.044	26103
827.183	25936
827.323	25944
827.462	25890
827.601	25974
827.741	26024
827.88	25951
828.02	25894
828.159	25974
828.298	25837
828.437	25898
828.577	25811
828.716	25936
828.855	25936
828.994	25670
829.134	25624
829.273	25632
829.412	25677
829.551	25487
829.69	25635
829.829	25670
829.968	25750
830.107	25655
830.246	25578
830.385	25556
830.524	25609
830.663	25529
830.802	25419
830.941	25266
831.08	25080
831.219	25297
831.357	25343
831.496	25510
831.635	25244
831.774	25179
831.913	25244
832.051	25103
832.19	25065
832.329	25004
832.467	24924
832.606	24970
832.744	24875
832.883	24951
833.022	24943
833.16	24882
833.299	24878
833.437	24958
833.576	24916
833.714	24932
833.852	25114
833.991	25038
834.129	25129
834.267	25095
834.406	25042
834.544	24989
834.682	25053
834.821	24871
834.959	25027
835.097	24894
835.235	24989
835.373	24981
835.511	24943
835.65	24764
835.788	24837
835.926	24795
836.064	24734
836.202	24692
836.34	24909
836.478	24951
836.615	24909
836.753	24825
836.891	25012
837.029	24871
837.167	24840
837.305	24696
837.443	24639
837.58	24825
837.718	24684
837.856	24711
837.993	24635
838.131	24677
838.269	24494
838.406	24585
838.544	24620
838.681	24399
838.819	24182
838.956	24182
839.094	24152
839.231	24213
839.369	24327
839.506	24525
839.643	24445
839.781	24079
839.918	24060
840.055	24117
840.193	24053
840.33	24205
840.467	24022
840.604	24114
840.742	24315
840.879	23870
841.016	23885
841.153	23901
841.29	24243
841.427	24076
841.564	24064
841.701	24068
841.838	23977
841.975	24038
842.112	23832
842.249	23798
842.385	23790
842.522	23942
842.659	23809
842.796	23893
842.933	23851
843.069	23813
843.206	23847
843.343	23870
843.479	23729
843.616	23745
843.752	23551
843.889	23566
844.025	23775
844.162	23627
844.298	23714
844.435	23547
844.571	23634
844.708	23627
844.844	23752
844.98	23672
845.117	23687
845.253	23516
845.389	23452
845.525	23486
845.661	23429
845.798	23170
845.934	23292
846.07	23284
846.206	23261
846.342	23516
846.478	23223
846.614	23094
846.75	22991
846.886	23014
847.022	22980
847.158	23060
847.294	23037
847.429	23121
847.565	22908
847.701	23341
847.837	22778
847.972	22694
848.108	22919
848.244	23037
848.379	22592
848.515	22675
848.65	22588
848.786	22649
848.921	22687
849.057	22801
849.192	22816
849.328	22668
849.463	22649
849.598	22641
849.734	22577
849.869	22493
850.004	22394
850.14	22363
850.275	22519
850.41	22329
850.545	22421
850.68	22268
850.815	22333
850.95	22421
851.085	22538
851.22	22523
851.355	22504
851.49	22314
851.625	22424
851.76	22246
851.895	22417
852.03	22352
852.165	22329
852.299	22459
852.434	22413
852.569	22550
852.703	22337
852.838	22447
852.973	22538
853.107	22538
853.242	22402
853.376	22375
853.511	22211
853.645	22207
853.78	22379
853.914	22169
854.048	22242
854.183	22158
854.317	22204
854.451	22325
854.585	22162
854.72	22204
854.854	22276
854.988	22112
855.122	22295
855.256	21994
855.39	22181
855.524	22261
855.658	22257
855.792	22257
855.926	22143
856.06	22280
856.194	22200
856.327	22120
856.461	22059
856.595	22185
856.729	22093
856.862	22405
856.996	22147
857.13	22166
857.263	22344
857.397	22207
857.53	22158
857.664	22131
857.797	22306
857.931	22371
858.064	22230
858.197	22390
858.331	22204
858.464	22169
858.597	22070
858.731	22268
858.864	22177
858.997	22128
859.13	22181
859.263	22291
859.396	22318
859.529	22169
859.662	22166
859.795	22207
859.928	22044
860.061	22257
860.194	22451
860.327	22249
860.46	22257
860.592	22299
860.725	22470
860.858	22367
860.99	22219
861.123	22135
861.256	22112
861.388	22215
861.521	22938
861.653	22055
861.786	22025
861.918	21998
862.05	22063
862.183	22143
862.315	22219
862.447	22238
862.58	22036
862.712	21972
862.844	21983
862.976	22090
863.108	21827
863.24	22306
863.372	21789
863.504	22036
863.636	22010
863.768	22021
863.9	21854
864.032	21793
864.164	21831
864.296	21823
864.428	21949
864.559	21865
864.691	21956
864.823	21880
864.954	21781
865.086	21880
865.217	21907
865.349	21717
865.48	21804
865.612	21808
865.743	21835
865.875	22006
866.006	21739
866.137	21717
866.269	21781
866.4	21747
866.531	21759
866.662	21755
866.793	21679
866.924	21549
867.055	21709
867.186	21709
867.317	21637
867.448	21720
867.579	21648
867.71	21709
867.841	21633
867.972	21599
868.103	21743
868.233	21770
868.364	21625
868.495	21835
868.625	21972
868.756	21937
868.886	21838
869.017	21949
869.147	22109
869.278	22082
869.408	21945
869.539	21899
869.669	22036
869.799	22078
869.929	22139
870.06	22010
870.19	22318
870.32	22265
870.45	22356
870.58	22299
870.71	22478
870.84	22462
870.97	22318
871.1	22367
871.23	22542
871.36	22550
871.489	22421
871.619	22577
871.749	22622
871.879	22607
872.008	22645
872.138	22508
872.267	22489
872.397	22535
872.526	22341
872.656	22356
872.785	22451
872.915	22546
873.044	22641
873.173	22569
873.303	22668
873.432	22653
873.561	22592
873.69	22557
873.819	22584
873.948	22672
874.077	22615
874.206	22660
874.335	22599
874.464	22645
874.593	22847
874.722	22797
874.851	22706
874.979	22801
875.108	22740
875.237	22946
875.365	22649
875.494	22683
875.623	22881
875.751	22748
875.88	22759
876.008	22873
876.136	23075
876.265	23246
876.393	23307
876.521	23208
876.65	23235
876.778	23288
876.906	23155
877.034	23212
877.162	23151
877.29	23067
877.418	23197
877.546	23006
877.674	23056
877.802	23098
877.93	22995
878.058	23109
878.185	23037
878.313	22976
878.441	23143
878.568	22976
878.696	22961
878.824	23064
878.951	23197
879.079	23356
879.206	23448
879.333	23379
879.461	23098
879.588	23231
879.715	23208
879.842	23486
879.97	23117
880.097	22919
880.224	22976
880.351	23044
880.478	22942
880.605	22843
880.732	22949
880.859	23079
880.986	22877
881.112	22908
881.239	22820
881.366	22668
881.493	22512
881.619	22459
881.746	22565
881.872	22443
881.999	22542
882.125	22455
882.252	22546
882.378	22443
882.505	22577
882.631	22284
882.757	22192
882.883	22265
883.01	22230
883.136	22143
883.262	22048
883.388	22093
883.514	22219
883.64	22303
883.766	22078
883.892	21930
884.018	22090
884.143	22147
884.269	22204
884.395	21846
884.52	21778
884.646	21808
884.772	21781
884.897	21656
885.023	21785
885.148	21884
885.274	21964
885.399	21797
885.524	21682
885.65	21766
885.775	21899
885.9	21812
886.025	21941
886.15	21968
886.275	21789
886.4	21663
886.525	21808
886.65	21804
886.775	21819
886.9	21934
887.025	22032
887.149	21816
887.274	21595
887.399	21561
887.523	21572
887.648	21587
887.773	21412
887.897	21698
888.021	21599
888.146	21694
888.27	21793
888.395	21766
888.519	21641
888.643	21743
888.767	21675
888.891	21492
889.015	21306
889.139	21568
889.263	21408
889.387	21545
889.511	21606
889.635	21572
889.759	21393
889.883	21310
890.006	21363
890.13	21564
890.254	21298
890.377	21405
890.501	21252
890.624	21108
890.748	21116
890.871	21108
890.995	21020
891.118	20967
891.241	20921
891.364	20872
891.488	20998
891.611	20982
891.734	21005
891.857	20971
891.98	20921
892.103	21005
892.226	20925
892.349	20933
892.471	20754
892.594	20800
892.717	20895
892.839	20792
892.962	20902
893.085	20899
893.207	20712
893.33	20708
893.452	20762
893.575	20906
893.697	20708
893.819	20998
893.941	21077
894.064	20914
894.186	20815
894.308	20765
894.43	20845
894.552	20963
894.674	20811
894.796	20674
894.918	20743
895.04	20815
895.161	20777
895.283	20864
895.405	20720
895.526	20678
895.648	20838
895.769	20773
895.891	20906
896.012	20967
896.134	20823
896.255	20811
896.376	20807
896.498	20800
896.619	20834
896.74	20845
896.861	20842
896.982	21089
897.103	21268
897.224	21058
897.345	21089
897.466	20887
897.587	21074
897.708	21112
897.828	21009
897.949	20933
898.07	20800
898.19	20834
898.311	21116
898.431	21020
898.552	20948
898.672	20982
898.792	21074
898.913	21112
899.033	20952
899.153	20819
899.273	20693
899.393	20872
899.513	20788
899.633	20724
899.753	20731
899.873	20655
899.993	20644
900.113	20648
900.232	20640
900.352	20609
900.472	20511
900.591	20503
900.711	20530
900.83	20404
900.95	20598
901.069	20549
901.189	20419
901.308	20134
901.427	20168
901.546	20058
901.665	20134
901.784	20069
901.904	19951
902.023	19925
902.141	19632
902.26	19674
902.379	19715
902.498	19582
902.617	19506
902.735	19620
902.854	19460
902.973	19495
903.091	19365
903.21	19244
903.328	19255
903.446	19050
903.565	19095
903.683	19099
903.801	18951
903.919	19050
904.038	18970
904.156	18894
904.274	18905
904.392	18768
904.51	18707
904.627	18757
904.745	18749
904.863	18817
904.981	18563
905.098	18494
905.216	18357
905.334	18437
905.451	18509
905.569	18460
905.686	18369
905.803	18494
905.921	18361
906.038	18388
906.155	18251
906.272	18152
906.389	18190
906.506	17961
906.623	17961
906.74	17992
906.857	17946
906.974	17977
907.091	18117
907.208	18129
907.324	18060
907.441	17935
907.557	17748
907.674	17638
907.79	17684
907.907	17783
908.023	17775
908.139	17661
908.256	17695
908.372	17634
908.488	17539
908.604	17592
908.72	17452
908.836	17395
908.952	17376
909.068	17436
909.184	17497
909.3	17440
909.415	17474
909.531	17349
909.647	17159
909.762	17143
909.878	17041
909.993	17193
910.108	17022
910.224	17018
910.339	17083
910.454	16976
910.57	16892
910.685	16892
910.8	17117
910.915	17098
911.03	16999
911.145	16831
911.259	16767
911.374	16698
911.489	16622
911.604	16675
911.718	16527
911.833	16440
911.947	16417
912.062	16310
912.176	16386
912.291	16462
912.405	16443
912.519	16710
912.633	16615
912.748	16459
912.862	16478
912.976	16299
913.09	16272
913.204	16185
913.318	16242
913.431	16451
913.545	16409
913.659	16303
913.772	16287
913.886	16124
914	16021
914.113	16150
914.226	16173
914.34	16128
914.453	15857
914.566	16055
914.68	15918
914.793	15835
914.906	15724
915.019	15629
915.132	15564
915.245	15595
915.358	15644
915.47	15701
915.583	15667
915.696	15667
915.809	15694
915.921	15804
916.034	15614
916.146	15545
916.259	15511
916.371	15606
916.483	15576
916.595	15534
916.708	15496
916.82	15416
916.932	15351
917.044	15454
917.156	15298
917.268	15233
917.38	15313
917.491	15313
917.603	15207
917.715	15275
917.826	15386
917.938	15192
918.049	15108
918.161	15249
918.272	15344
918.384	15313
918.495	15127
918.606	14994
918.717	14967
918.828	15024
918.939	15097
919.05	14815
919.161	14967
919.272	14762
919.383	14842
919.494	15036
919.604	15154
919.715	14998
919.826	14883
919.936	14914
920.047	15013
920.157	15020
920.267	15142
920.378	15070
920.488	14967
920.598	15150
920.708	15252
920.818	15116
920.928	15039
921.038	15176
921.148	15135
921.258	14872
921.368	14769
921.477	14842
921.587	14735
921.697	14549
921.806	14693
921.916	14499
922.025	14358
922.134	14400
922.244	14305
922.353	14309
922.462	14256
922.571	14088
922.68	14054
922.789	13959
922.898	14008
923.007	13902
923.116	13989
923.224	13963
923.333	13906
923.442	13887
923.55	13845
923.659	13693
923.767	13780
923.876	13677
923.984	13830
924.092	13674
924.201	13742
924.309	13624
924.417	13681
924.525	13666
924.633	13590
924.741	14492
924.849	13499
924.956	13544
925.064	13468
925.172	13331
925.279	13464
925.387	13373
925.494	13377
925.602	13449
925.709	13434
925.816	13289
925.924	13297
926.031	13403
926.138	13354
926.245	13297
926.352	13198
926.459	13285
926.566	13369
926.673	13236
926.779	13072
926.886	13137
926.993	12920
927.099	12856
927.206	12897
927.312	12856
927.419	12958
927.525	12894
927.631	12943
927.737	12776
927.843	12779
927.95	12684
928.056	12692
928.162	12734
928.267	12734
928.373	13236
928.479	12795
928.585	12555
928.69	12578
928.796	12734
928.901	12532
929.007	12445
929.112	12616
929.218	12555
929.323	12471
929.428	12414
929.533	12544
929.638	12304
929.743	12353
929.848	12464
929.953	12376
930.058	12273
930.163	12144
930.267	12114
930.372	12308
930.477	12072
930.581	12254
930.685	12140
930.79	11988
930.894	12007
930.998	11961
931.103	12106
931.207	11733
931.311	11657
931.415	11589
931.519	11448
931.623	11322
