Data from test_V78500241_1341.txt Node
Date: Fri Mar 25 15:19:11 CST 2022
User: usil
Spectrometer: V785-0024
Trigger mode: 0
Integration Time (sec): 4.000000E-1
Scans to average: 1
Nonlinearity correction enabled: false
Boxcar width: 0
Storing dark spectrum: false
XAxis mode: Wavelengths
Number of Pixels in Spectrum: 1024
>>>>>Begin Spectral Data<<<<<
801.071	28166
801.214	28116
801.356	27819
801.499	27686
801.641	27709
801.783	27648
801.926	27622
802.068	27656
802.211	27523
802.353	27431
802.496	27291
802.638	27363
802.78	27256
802.923	27279
803.065	27154
803.208	27119
803.35	27195
803.492	27306
803.635	27526
803.777	27329
803.919	27393
804.061	27797
804.204	27488
804.346	27382
804.488	27492
804.63	27321
804.773	27458
804.915	27412
805.057	27526
805.199	27405
805.341	27698
805.483	27766
805.626	27652
805.768	27382
805.91	27641
806.052	27599
806.194	27488
806.336	27823
806.478	27622
806.62	27641
806.762	27789
806.904	27797
807.046	28196
807.188	28143
807.33	27960
807.472	28185
807.614	27945
807.756	28029
807.898	27895
808.04	27770
808.182	27846
808.324	27895
808.465	27975
808.607	28257
808.749	28333
808.891	28242
809.033	28341
809.174	28341
809.316	28242
809.458	28154
809.6	28337
809.741	28508
809.883	28459
810.025	28634
810.166	28535
810.308	28607
810.45	28504
810.591	28573
810.733	28287
810.875	28306
811.016	28314
811.158	28166
811.299	28390
811.441	28363
811.582	28455
811.724	28360
811.865	28234
812.007	28333
812.148	28325
812.29	28322
812.431	28542
812.573	28679
812.714	28786
812.855	28873
812.997	28900
813.138	29109
813.279	29006
813.421	28782
813.562	28854
813.703	28573
813.845	28615
813.986	28063
814.127	28154
814.268	28032
814.41	28025
814.551	28002
814.692	28070
814.833	27804
814.974	27835
815.115	27979
815.256	27922
815.397	27941
815.539	27918
815.68	27751
815.821	27732
815.962	27911
816.103	27808
816.244	27648
816.385	27652
816.526	27633
816.666	27462
816.807	27233
816.948	27393
817.089	27325
817.23	27313
817.371	27165
817.512	27256
817.653	27230
817.793	27230
817.934	27298
818.075	27321
818.216	27329
818.356	27230
818.497	27138
818.638	26914
818.778	27001
818.919	27146
819.06	27047
819.2	27112
819.341	27252
819.481	27325
819.622	27485
819.762	27789
819.903	27519
820.043	27310
820.184	27412
820.324	27351
820.465	27363
820.605	27397
820.746	27389
820.886	27184
821.026	27348
821.167	27397
821.307	27412
821.447	27241
821.588	27199
821.728	26994
821.868	26975
822.008	26659
822.149	26724
822.289	26872
822.429	26465
822.569	26438
822.709	26625
822.849	26404
822.99	26298
823.13	26263
823.27	26225
823.41	26199
823.55	25959
823.69	26077
823.83	26218
823.97	26168
824.11	25883
824.25	25860
824.389	25898
824.529	26012
824.669	26043
824.809	25913
824.949	25970
825.089	26096
825.228	25902
825.368	25841
825.508	25875
825.648	25868
825.787	25871
825.927	25814
826.067	25830
826.206	25761
826.346	25864
826.485	25776
826.625	25784
826.765	25871
826.904	25868
827.044	25369
827.183	25556
827.323	25537
827.462	25556
827.601	25556
827.741	25559
827.88	25666
828.02	25335
828.159	25632
828.298	25544
828.437	25518
828.577	25365
828.716	25632
828.855	25464
828.994	25293
829.134	25194
829.273	25240
829.412	25152
829.551	25118
829.69	25240
829.829	25232
829.968	25343
830.107	25304
830.246	25247
830.385	25217
830.524	25110
830.663	25076
830.802	24932
830.941	24764
831.08	24852
831.219	24924
831.357	24913
831.496	24970
831.635	24871
831.774	24715
831.913	24783
832.051	24623
832.19	24585
832.329	24646
832.467	24414
832.606	24498
832.744	24429
832.883	24429
833.022	24570
833.16	24467
833.299	24483
833.437	24486
833.576	24604
833.714	24502
833.852	24639
833.991	24635
834.129	24642
834.267	24601
834.406	24582
834.544	24547
834.682	24582
834.821	24418
834.959	24776
835.097	24445
835.235	24650
835.373	24719
835.511	24517
835.65	24334
835.788	24407
835.926	24266
836.064	24163
836.202	24254
836.34	24525
836.478	24528
836.615	24327
836.753	24437
836.891	24490
837.029	24486
837.167	24319
837.305	24361
837.443	24266
837.58	24197
837.718	24399
837.856	24292
837.993	24209
838.131	24342
838.269	24072
838.406	24174
838.544	24190
838.681	23866
838.819	23764
838.956	23805
839.094	23771
839.231	23912
839.369	23923
839.506	24026
839.643	23923
839.781	23600
839.918	23570
840.055	23516
840.193	23600
840.33	23642
840.467	23665
840.604	23554
840.742	23901
840.879	23497
841.016	23676
841.153	23493
841.29	23661
841.427	23634
841.564	23661
841.701	23691
841.838	23547
841.975	23376
842.112	23528
842.249	23398
842.385	23223
842.522	23680
842.659	23425
842.796	23360
842.933	23326
843.069	23280
843.206	23277
843.343	23395
843.479	23391
843.616	23337
843.752	23193
843.889	23216
844.025	23391
844.162	23033
844.298	23246
844.435	23117
844.571	23136
844.708	23189
844.844	23299
844.98	23303
845.117	23345
845.253	23067
845.389	22961
845.525	22976
845.661	22843
845.798	22896
845.934	22987
846.07	22968
846.206	22919
846.342	22987
846.478	22889
846.614	22630
846.75	22554
846.886	22660
847.022	22577
847.158	22752
847.294	22607
847.429	22694
847.565	22675
847.701	22771
847.837	22303
847.972	22318
848.108	22318
848.244	22417
848.379	22154
848.515	22226
848.65	22306
848.786	22246
848.921	22230
849.057	22253
849.192	22272
849.328	22192
849.463	22303
849.598	22109
849.734	21994
849.869	21861
850.004	21945
850.14	22082
850.275	21987
850.41	21934
850.545	21873
850.68	21892
850.815	21934
850.95	21987
851.085	22173
851.22	22109
851.355	22032
851.49	21960
851.625	21804
851.76	21926
851.895	21876
852.03	21865
852.165	21915
852.299	21991
852.434	21983
852.569	21979
852.703	22002
852.838	21895
852.973	22078
853.107	22116
853.242	21953
853.376	21861
853.511	21667
853.645	21800
853.78	21846
853.914	21835
854.048	21831
854.183	21652
854.317	21865
854.451	21983
854.585	21865
854.72	21751
854.854	21880
854.988	21705
855.122	21816
855.256	21637
855.39	21625
855.524	21789
855.658	21797
855.792	21789
855.926	21873
856.06	21766
856.194	21823
856.327	21739
856.461	21614
856.595	21831
856.729	21789
856.862	21827
856.996	21819
857.13	21899
857.263	21819
857.397	21880
857.53	21736
857.664	21880
857.797	21911
857.931	21842
858.064	21907
858.197	21835
858.331	21656
858.464	21835
858.597	21595
858.731	21869
858.864	21713
858.997	21759
859.13	21656
859.263	21728
859.396	21838
859.529	21732
859.662	21812
859.795	21675
859.928	21755
860.061	21751
860.194	22002
860.327	21800
860.46	21732
860.592	21865
860.725	21778
860.858	22017
860.99	21713
861.123	21720
861.256	21587
861.388	21759
861.521	22303
861.653	21557
861.786	21652
861.918	21641
862.05	21728
862.183	21694
862.315	21686
862.447	21831
862.58	21679
862.712	21610
862.844	21370
862.976	21534
863.108	21538
863.24	21895
863.372	21378
863.504	21435
863.636	21458
863.768	21580
863.9	21481
864.032	21374
864.164	21401
864.296	21408
864.428	21458
864.559	21515
864.691	21568
864.823	21428
864.954	21367
865.086	21382
865.217	21435
865.349	21450
865.48	21488
865.612	21367
865.743	21458
865.875	21374
866.006	21275
866.137	21302
866.269	21279
866.4	21325
866.531	21241
866.662	21176
866.793	21294
866.924	21321
867.055	21230
867.186	21424
867.317	21272
867.448	21260
867.579	21344
867.71	21310
867.841	21142
867.972	21393
868.103	21294
868.233	21321
868.364	21340
868.495	21481
868.625	21473
868.756	21583
868.886	21477
869.017	21462
869.147	21606
869.278	21675
869.408	21530
869.539	21633
869.669	21698
869.799	21603
869.929	21641
870.06	21644
870.19	21975
870.32	21819
870.45	21819
870.58	21800
870.71	22044
870.84	21918
870.97	21968
871.1	21899
871.23	22017
871.36	22116
871.489	22078
871.619	22173
871.749	22055
871.879	22074
872.008	22097
872.138	22093
872.267	22139
872.397	22032
872.526	21915
872.656	21827
872.785	21968
872.915	22204
873.044	22158
873.173	22036
873.303	22120
873.432	22120
873.561	22268
873.69	22131
873.819	22097
873.948	22188
874.077	22116
874.206	21975
874.335	22101
874.464	22223
874.593	22280
874.722	22398
874.851	22455
874.979	22280
875.108	22363
875.237	22219
875.365	22234
875.494	22337
875.623	22447
875.751	22291
875.88	22367
876.008	22440
876.136	22603
876.265	22729
876.393	22702
876.521	22828
876.65	22828
876.778	22869
876.906	22641
877.034	22653
877.162	22622
877.29	22653
877.418	22847
877.546	22725
877.674	22630
877.802	22611
877.93	22679
878.058	22717
878.185	22489
878.313	22641
878.441	22660
878.568	22443
878.696	22596
878.824	22717
878.951	22839
879.079	22885
879.206	22927
879.333	22831
879.461	22816
879.588	22812
879.715	22816
879.842	23022
879.97	22755
880.097	22596
880.224	22519
880.351	22462
880.478	22538
880.605	22417
880.732	22516
880.859	22824
880.986	22413
881.112	22603
881.239	22386
881.366	22143
881.493	22128
881.619	22040
881.746	22105
881.872	22036
881.999	22154
882.125	21911
882.252	21956
882.378	21991
882.505	22112
882.631	21911
882.757	21865
882.883	21747
883.01	21876
883.136	21557
883.262	21720
883.388	21633
883.514	21762
883.64	21743
883.766	21652
883.892	21644
884.018	21614
884.143	21713
884.269	21846
884.395	21469
884.52	21332
884.646	21447
884.772	21420
884.897	21237
885.023	21492
885.148	21382
885.274	21557
885.399	21481
885.524	21515
885.65	21488
885.775	21496
885.9	21370
886.025	21542
886.15	21572
886.275	21325
886.4	21287
886.525	21294
886.65	21272
886.775	21264
886.9	21454
887.025	21637
887.149	21401
887.274	21180
887.399	21146
887.523	21180
887.648	21119
887.773	21169
887.897	21241
888.021	21226
888.146	21051
888.27	21348
888.395	21226
888.519	21192
888.643	21226
888.767	21310
888.891	21081
889.015	20906
889.139	21051
889.263	20967
889.387	21051
889.511	21195
889.635	21096
889.759	20929
889.883	20864
890.006	20895
890.13	21131
890.254	20868
890.377	20933
890.501	20743
890.624	20708
890.748	20667
890.871	20568
890.995	20571
891.118	20480
891.241	20556
891.364	20663
891.488	20609
891.611	20549
891.734	20552
891.857	20587
891.98	20526
892.103	20568
892.226	20541
892.349	20545
892.471	20434
892.594	20427
892.717	20594
892.839	20454
892.962	20412
893.085	20480
893.207	20412
893.33	20199
893.452	20404
893.575	20469
893.697	20514
893.819	20511
893.941	20575
894.064	20507
894.186	20206
894.308	20362
894.43	20522
894.552	20575
894.674	20434
894.796	20431
894.918	20488
895.04	20393
895.161	20454
895.283	20362
895.405	20332
895.526	20370
895.648	20434
895.769	20385
895.891	20366
896.012	20450
896.134	20552
896.255	20450
896.376	20434
896.498	20324
896.619	20427
896.74	20415
896.861	20484
896.982	20762
897.103	20815
897.224	20746
897.345	20617
897.466	20609
897.587	20606
897.708	20842
897.828	20587
897.949	20575
898.07	20480
898.19	20689
898.311	20560
898.431	20503
898.552	20560
898.672	20598
898.792	20773
898.913	20724
899.033	20438
899.153	20511
899.273	20294
899.393	20480
899.513	20484
899.633	20377
899.753	20457
899.873	20263
899.993	20408
900.113	20343
900.232	20434
900.352	20248
900.472	20237
900.591	20111
900.711	20073
900.83	20081
900.95	20176
901.069	20305
901.189	19951
901.308	19833
901.427	19772
901.546	19719
901.665	19582
901.784	19696
901.904	19677
902.023	19441
902.141	19335
902.26	19335
902.379	19270
902.498	19240
902.617	19183
902.735	19285
902.854	19251
902.973	19095
903.091	18962
903.21	18844
903.328	18878
903.446	18776
903.565	18852
903.683	18738
903.801	18635
903.919	18673
904.038	18604
904.156	18502
904.274	18464
904.392	18399
904.51	18407
904.627	18513
904.745	18506
904.863	18566
904.981	18289
905.098	18205
905.216	18194
905.334	18167
905.451	18194
905.569	18125
905.686	18129
905.803	18076
905.921	17961
906.038	18079
906.155	17927
906.272	17901
906.389	17874
906.506	17718
906.623	17695
906.74	17585
906.857	17589
906.974	17596
907.091	17741
907.208	17783
907.324	17653
907.441	17665
907.557	17398
907.674	17376
907.79	17436
907.907	17322
908.023	17391
908.139	17341
908.256	17315
908.372	17273
908.488	17216
908.604	17162
908.72	17132
908.836	17052
908.952	17006
909.068	17067
909.184	17098
909.3	17132
909.415	17071
909.531	16942
909.647	16862
909.762	16877
909.878	16755
909.993	16767
910.108	16763
910.224	16736
910.339	16721
910.454	16713
910.57	16656
910.685	16618
910.8	16873
910.915	16782
911.03	16580
911.145	16519
911.259	16424
911.374	16409
911.489	16299
911.604	16306
911.718	16253
911.833	16211
911.947	16036
912.062	15945
912.176	16055
912.291	16181
912.405	16086
912.519	16352
912.633	16276
912.748	16192
912.862	16143
912.976	16025
913.09	15953
913.204	15911
913.318	15987
913.431	16055
913.545	15972
913.659	15983
913.772	15899
913.886	15720
914	15675
914.113	15926
914.226	15816
914.34	15724
914.453	15675
914.566	15854
914.68	15614
914.793	15671
914.906	15412
915.019	15313
915.132	15211
915.245	15355
915.358	15374
915.47	15332
915.583	15367
915.696	15351
915.809	15389
915.921	15435
916.034	15241
916.146	15192
916.259	15218
916.371	15325
916.483	15237
916.595	15154
916.708	15123
916.82	15249
916.932	15108
917.044	15131
917.156	15085
917.268	15013
917.38	15051
917.491	14941
917.603	14941
917.715	14952
917.826	15077
917.938	14979
918.049	14842
918.161	14883
918.272	15020
918.384	14994
918.495	14975
918.606	14815
918.717	14697
918.828	14796
918.939	14788
919.05	14724
919.161	14735
919.272	14556
919.383	14598
919.494	14804
919.604	14910
919.715	14708
919.826	14651
919.936	14678
920.047	14739
920.157	14617
920.267	14853
920.378	14663
920.488	14651
920.598	14887
920.708	14952
920.818	14952
920.928	14693
921.038	14864
921.148	14895
921.258	14724
921.368	14640
921.477	14526
921.587	14499
921.697	14275
921.806	14419
921.916	14282
922.025	14126
922.134	14123
922.244	14043
922.353	14073
922.462	13967
922.571	13864
922.68	13830
922.789	13677
922.898	13643
923.007	13628
923.116	13727
923.224	13750
923.333	13818
923.442	13544
923.55	13544
923.659	13609
923.767	13586
923.876	13499
923.984	13533
924.092	13544
924.201	13518
924.309	13350
924.417	13449
924.525	13403
924.633	13468
924.741	14336
924.849	13236
924.956	13297
925.064	13076
925.172	13057
925.279	13110
925.387	13126
925.494	13179
925.602	13149
925.709	13152
925.816	12958
925.924	13080
926.031	13183
926.138	13065
926.245	13099
926.352	13050
926.459	13057
926.566	13122
926.673	13000
926.779	12890
926.886	12882
926.993	12715
927.099	12665
927.206	12589
927.312	12631
927.419	12673
927.525	12631
927.631	12730
927.737	12601
927.843	12544
927.95	12433
928.056	12460
928.162	12536
928.267	12574
928.373	13152
928.479	12620
928.585	12330
928.69	12452
928.796	12589
928.901	12403
929.007	12216
929.112	12346
929.218	12342
929.323	12117
929.428	12159
929.533	12350
929.638	12140
929.743	12213
929.848	12213
929.953	12205
930.058	12129
930.163	11923
930.267	11901
930.372	12022
930.477	11927
930.581	12019
930.685	11920
930.79	11798
930.894	11847
930.998	11752
931.103	11942
931.207	11562
931.311	11425
931.415	11364
931.519	11273
931.623	11147
