Data from test_V78500241_1025.txt Node
Date: Fri Mar 25 15:16:59 CST 2022
User: usil
Spectrometer: V785-0024
Trigger mode: 0
Integration Time (sec): 4.000000E-1
Scans to average: 1
Nonlinearity correction enabled: false
Boxcar width: 0
Storing dark spectrum: false
XAxis mode: Wavelengths
Number of Pixels in Spectrum: 1024
>>>>>Begin Spectral Data<<<<<
801.071	28481
801.214	28306
801.356	28223
801.499	28101
801.641	27914
801.783	27949
801.926	28086
802.068	27922
802.211	27926
802.353	27785
802.496	27694
802.638	27637
802.78	27610
802.923	27603
803.065	27507
803.208	27435
803.35	27511
803.492	27732
803.635	27903
803.777	27736
803.919	27953
804.061	28158
804.204	27895
804.346	27865
804.488	27838
804.63	27804
804.773	27686
804.915	27880
805.057	27956
805.199	27838
805.341	27914
805.483	28067
805.626	27827
805.768	27766
805.91	28002
806.052	28013
806.194	27884
806.336	27983
806.478	28090
806.62	27953
806.762	28116
806.904	28291
807.046	28523
807.188	28462
807.33	28363
807.472	28443
807.614	28344
807.756	28451
807.898	28207
808.04	28333
808.182	28284
808.324	28234
808.465	28386
808.607	28443
808.749	28561
808.891	28778
809.033	28691
809.174	28592
809.316	28691
809.458	28557
809.6	28615
809.741	28755
809.883	28812
810.025	28915
810.166	29041
810.308	29010
810.45	28873
810.591	28843
810.733	28839
810.875	28672
811.016	28588
811.158	28584
811.299	28862
811.441	28850
811.582	28790
811.724	28694
811.865	28675
812.007	28607
812.148	28599
812.29	28733
812.431	28835
812.573	29022
812.714	29094
812.855	29296
812.997	29185
813.138	29478
813.279	29345
813.421	29254
813.562	29197
813.703	29136
813.845	28953
813.986	28603
814.127	28599
814.268	28322
814.41	28443
814.551	28280
814.692	28535
814.833	28356
814.974	28303
815.115	28390
815.256	28158
815.397	28204
815.539	28204
815.68	28215
815.821	28185
815.962	28234
816.103	28242
816.244	28139
816.385	27998
816.526	28025
816.666	27800
816.807	27595
816.948	27766
817.089	27823
817.23	27793
817.371	27709
817.512	27686
817.653	27709
817.793	27751
817.934	27690
818.075	27675
818.216	27736
818.356	27842
818.497	27572
818.638	27492
818.778	27389
818.919	27526
819.06	27534
819.2	27606
819.341	27903
819.481	27717
819.622	27781
819.762	28086
819.903	27899
820.043	28025
820.184	27762
820.324	27865
820.465	27812
820.605	27732
820.746	27797
820.886	27705
821.026	27705
821.167	27808
821.307	27914
821.447	27557
821.588	27606
821.728	27622
821.868	27306
822.008	27230
822.149	27173
822.289	27195
822.429	27055
822.569	26910
822.709	26868
822.849	26750
822.99	26609
823.13	26705
823.27	26590
823.41	26518
823.55	26473
823.69	26568
823.83	26492
823.97	26492
824.11	26355
824.25	26305
824.389	26256
824.529	26377
824.669	26442
824.809	26438
824.949	26305
825.089	26419
825.228	26473
825.368	26206
825.508	26233
825.648	26252
825.787	26294
825.927	26332
826.067	26248
826.206	26229
826.346	26199
826.485	26286
826.625	26149
826.765	26343
826.904	26347
827.044	25970
827.183	26050
827.323	26043
827.462	26062
827.601	25936
827.741	25997
827.88	26062
828.02	25765
828.159	25906
828.298	26130
828.437	26043
828.577	25803
828.716	26111
828.855	25795
828.994	25734
829.134	25658
829.273	25597
829.412	25662
829.551	25731
829.69	25620
829.829	25677
829.968	25696
830.107	25700
830.246	25715
830.385	25647
830.524	25510
830.663	25457
830.802	25308
830.941	25324
831.08	25285
831.219	25426
831.357	25358
831.496	25487
831.635	25369
831.774	25198
831.913	25225
832.051	25179
832.19	25152
832.329	25103
832.467	25107
832.606	24890
832.744	25072
832.883	25031
833.022	24977
833.16	25027
833.299	24924
833.437	24856
833.576	25084
833.714	25038
833.852	25076
833.991	25038
834.129	25148
834.267	25088
834.406	25114
834.544	25107
834.682	24935
834.821	25004
834.959	25232
835.097	24977
835.235	24992
835.373	25057
835.511	24962
835.65	24821
835.788	24939
835.926	24802
836.064	24696
836.202	24673
836.34	24878
836.478	24916
836.615	24802
836.753	24840
836.891	24973
837.029	24802
837.167	24916
837.305	24856
837.443	24768
837.58	24681
837.718	24802
837.856	24673
837.993	24802
838.131	24730
838.269	24509
838.406	24719
838.544	24513
838.681	24323
838.819	24376
838.956	24209
839.094	24239
839.231	24273
839.369	24289
839.506	24525
839.643	24380
839.781	24140
839.918	24117
840.055	24091
840.193	24083
840.33	24018
840.467	24273
840.604	24125
840.742	24346
840.879	23889
841.016	23950
841.153	23878
841.29	24136
841.427	24155
841.564	24079
841.701	24083
841.838	24072
841.975	23920
842.112	24007
842.249	23935
842.385	23783
842.522	23950
842.659	23859
842.796	23885
842.933	23866
843.069	23878
843.206	23809
843.343	23931
843.479	23726
843.616	23851
843.752	23653
843.889	23741
844.025	23767
844.162	23577
844.298	23726
844.435	23668
844.571	23547
844.708	23581
844.844	23764
844.98	23779
845.117	23623
845.253	23493
845.389	23402
845.525	23528
845.661	23387
845.798	23452
845.934	23383
846.07	23349
846.206	23299
846.342	23353
846.478	23341
846.614	23071
846.75	22999
846.886	23117
847.022	23067
847.158	23041
847.294	23044
847.429	23227
847.565	23029
847.701	23330
847.837	22729
847.972	22843
848.108	22961
848.244	22892
848.379	22660
848.515	22607
848.65	22672
848.786	22771
848.921	22660
849.057	22858
849.192	22904
849.328	22710
849.463	22759
849.598	22618
849.734	22447
849.869	22493
850.004	22432
850.14	22497
850.275	22447
850.41	22280
850.545	22436
850.68	22295
850.815	22557
850.95	22462
851.085	22592
851.22	22546
851.355	22443
851.49	22478
851.625	22363
851.76	22371
851.895	22276
852.03	22268
852.165	22295
852.299	22451
852.434	22428
852.569	22527
852.703	22432
852.838	22485
852.973	22599
853.107	22622
853.242	22375
853.376	22382
853.511	22036
853.645	22211
853.78	22272
853.914	22246
854.048	22070
854.183	22268
854.317	22360
854.451	22333
854.585	22143
854.72	22325
854.854	22280
854.988	22215
855.122	22295
855.256	22006
855.39	22215
855.524	22291
855.658	22215
855.792	22363
855.926	22223
856.06	22322
856.194	22352
856.327	22219
856.461	22154
856.595	22169
856.729	22219
856.862	22405
856.996	22276
857.13	22295
857.263	22367
857.397	22421
857.53	22128
857.664	22341
857.797	22310
857.931	22337
858.064	22261
858.197	22356
858.331	22207
858.464	22135
858.597	22173
858.731	22215
858.864	22181
858.997	22185
859.13	22299
859.263	22226
859.396	22242
859.529	22276
859.662	22230
859.795	22177
859.928	22379
860.061	22295
860.194	22466
860.327	22329
860.46	22268
860.592	22356
860.725	22333
860.858	22443
860.99	22124
861.123	22211
861.256	22185
861.388	22303
861.521	22908
861.653	22177
861.786	22040
861.918	22128
862.05	22143
862.183	22124
862.315	22086
862.447	22154
862.58	22101
862.712	21960
862.844	21857
862.976	22112
863.108	22002
863.24	22398
863.372	21899
863.504	21975
863.636	21903
863.768	22002
863.9	22017
864.032	21857
864.164	21861
864.296	21926
864.428	22105
864.559	21953
864.691	21975
864.823	21918
864.954	21983
865.086	21991
865.217	21838
865.349	21857
865.48	21747
865.612	21679
865.743	21960
865.875	21838
866.006	21736
866.137	21770
866.269	21816
866.4	21861
866.531	21713
866.662	21728
866.793	21789
866.924	21781
867.055	21781
867.186	21759
867.317	21701
867.448	21663
867.579	21713
867.71	21622
867.841	21778
867.972	21778
868.103	21759
868.233	21850
868.364	21789
868.495	21918
868.625	21949
868.756	22154
868.886	21903
869.017	22017
869.147	22128
869.278	22029
869.408	22029
869.539	22002
869.669	22109
869.799	22032
869.929	22162
870.06	22025
870.19	22348
870.32	22139
870.45	22367
870.58	22512
870.71	22550
870.84	22417
870.97	22337
871.1	22234
871.23	22584
871.36	22542
871.489	22394
871.619	22596
871.749	22557
871.879	22535
872.008	22713
872.138	22557
872.267	22531
872.397	22348
872.526	22371
872.656	22485
872.785	22421
872.915	22531
873.044	22626
873.173	22573
873.303	22660
873.432	22504
873.561	22736
873.69	22569
873.819	22618
873.948	22607
874.077	22603
874.206	22721
874.335	22531
874.464	22858
874.593	22835
874.722	22717
874.851	22972
874.979	22866
875.108	22809
875.237	22771
875.365	22801
875.494	22763
875.623	22839
875.751	22805
875.88	22858
876.008	22999
876.136	23014
876.265	23181
876.393	23235
876.521	23155
876.65	23200
876.778	23258
876.906	23220
877.034	23147
877.162	23140
877.29	23151
877.418	23193
877.546	23197
877.674	23064
877.802	23067
877.93	23166
878.058	23098
878.185	23094
878.313	23098
878.441	23044
878.568	23048
878.696	22991
878.824	23147
878.951	23296
879.079	23178
879.206	23547
879.333	23227
879.461	23159
879.588	23277
879.715	23421
879.842	23436
879.97	23231
880.097	23029
880.224	23079
880.351	22957
880.478	23079
880.605	22869
880.732	22930
880.859	23044
880.986	22835
881.112	22972
881.239	22805
881.366	22691
881.493	22694
881.619	22481
881.746	22542
881.872	22618
881.999	22542
882.125	22546
882.252	22489
882.378	22481
882.505	22649
882.631	22436
882.757	22265
882.883	22268
883.01	22257
883.136	22234
883.262	22086
883.388	22032
883.514	22257
883.64	22223
883.766	22196
883.892	21937
884.018	21850
884.143	22086
884.269	22173
884.395	22044
884.52	21880
884.646	21713
884.772	21781
884.897	21812
885.023	21816
885.148	21861
885.274	22006
885.399	22120
885.524	21819
885.65	21797
885.775	21884
885.9	21770
886.025	21983
886.15	21819
886.275	21751
886.4	21747
886.525	21770
886.65	21895
886.775	21755
886.9	21964
887.025	22063
887.149	21941
887.274	21591
887.399	21644
887.523	21591
887.648	21488
887.773	21416
887.897	21656
888.021	21595
888.146	21553
888.27	21827
888.395	21603
888.519	21675
888.643	21648
888.767	21576
888.891	21454
889.015	21329
889.139	21382
889.263	21397
889.387	21462
889.511	21675
889.635	21469
889.759	21363
889.883	21420
890.006	21435
890.13	21515
890.254	21351
890.377	21241
890.501	21294
890.624	21112
890.748	21207
890.871	21165
890.995	20971
891.118	20895
891.241	20998
891.364	20948
891.488	21066
891.611	21032
891.734	20986
891.857	20937
891.98	21005
892.103	20948
892.226	21028
892.349	20838
892.471	20777
892.594	20914
892.717	20921
892.839	20872
892.962	20925
893.085	20994
893.207	20880
893.33	20781
893.452	20674
893.575	20982
893.697	20826
893.819	21108
893.941	20925
894.064	20982
894.186	20693
894.308	20765
894.43	20849
894.552	20941
894.674	20933
894.796	20754
894.918	20636
895.04	20830
895.161	20986
895.283	20838
895.405	20758
895.526	20853
895.648	20758
895.769	20838
895.891	20902
896.012	20925
896.134	20952
896.255	20731
896.376	20830
896.498	20834
896.619	20899
896.74	20868
896.861	20899
896.982	21119
897.103	21233
897.224	21214
897.345	20998
897.466	21032
897.587	21005
897.708	21112
897.828	20921
897.949	20956
898.07	20830
898.19	20982
898.311	21047
898.431	21036
898.552	21032
898.672	21154
898.792	21123
898.913	21074
899.033	20933
899.153	20826
899.273	20754
899.393	20773
899.513	20758
899.633	20750
899.753	20845
899.873	20727
899.993	20731
900.113	20697
900.232	20750
900.352	20644
900.472	20556
900.591	20473
900.711	20533
900.83	20450
900.95	20590
901.069	20545
901.189	20324
901.308	20259
901.427	20180
901.546	20027
901.665	20069
901.784	20062
901.904	20027
902.023	19883
902.141	19670
902.26	19696
902.379	19658
902.498	19590
902.617	19525
902.735	19635
902.854	19499
902.973	19438
903.091	19411
903.21	19255
903.328	19244
903.446	19122
903.565	19110
903.683	19023
903.801	18973
903.919	19057
904.038	19050
904.156	18798
904.274	18882
904.392	18795
904.51	18787
904.627	18722
904.745	18802
904.863	18833
904.981	18661
905.098	18517
905.216	18490
905.334	18589
905.451	18544
905.569	18536
905.686	18631
905.803	18506
905.921	18334
906.038	18414
906.155	18323
906.272	18087
906.389	18216
906.506	18117
906.623	18091
906.74	17999
906.857	17840
906.974	17965
907.091	18155
907.208	18045
907.324	18053
907.441	17942
907.557	17733
907.674	17840
907.79	17680
907.907	17752
908.023	17646
908.139	17745
908.256	17748
908.372	17581
908.488	17577
908.604	17665
908.72	17471
908.836	17379
908.952	17414
909.068	17448
909.184	17520
909.3	17482
909.415	17471
909.531	17444
909.647	17265
909.762	17204
909.878	17098
909.993	17204
910.108	17143
910.224	17174
910.339	17162
910.454	16885
910.57	16976
910.685	16915
910.8	17204
910.915	17162
911.03	16900
911.145	16824
911.259	16835
911.374	16755
911.489	16717
911.604	16641
911.718	16558
911.833	16413
911.947	16322
912.062	16386
912.176	16413
912.291	16500
912.405	16474
912.519	16645
912.633	16683
912.748	16405
912.862	16371
912.976	16299
913.09	16109
913.204	16166
913.318	16341
913.431	16299
913.545	16299
913.659	16428
913.772	16162
913.886	15998
914	16120
914.113	16166
914.226	16246
914.34	16177
914.453	15987
914.566	16177
914.68	15949
914.793	15956
914.906	15789
915.019	15603
915.132	15507
915.245	15682
915.358	15614
915.47	15698
915.583	15648
915.696	15705
915.809	15751
915.921	15656
916.034	15568
916.146	15648
916.259	15572
916.371	15679
916.483	15564
916.595	15450
916.708	15515
916.82	15500
916.932	15454
917.044	15431
917.156	15374
917.268	15363
917.38	15332
917.491	15237
917.603	15283
917.715	15447
917.826	15458
917.938	15298
918.049	15123
918.161	15222
918.272	15386
918.384	15279
918.495	15298
918.606	15077
918.717	14960
918.828	15123
918.939	15051
919.05	14963
919.161	14941
919.272	14849
919.383	14872
919.494	15051
919.604	15165
919.715	15089
919.826	14960
919.936	15028
920.047	15135
920.157	14952
920.267	15192
920.378	15001
920.488	14998
920.598	15100
920.708	15317
920.818	15108
920.928	15214
921.038	15226
921.148	15123
921.258	14872
921.368	14811
921.477	14792
921.587	14701
921.697	14613
921.806	14800
921.916	14499
922.025	14362
922.134	14385
922.244	14301
922.353	14393
922.462	14286
922.571	14202
922.68	14031
922.789	13925
922.898	14005
923.007	13947
923.116	13974
923.224	13898
923.333	13997
923.442	13818
923.55	13871
923.659	13875
923.767	13875
923.876	13727
923.984	13761
924.092	13643
924.201	13689
924.309	13655
924.417	13723
924.525	13605
924.633	13636
924.741	14488
924.849	13472
924.956	13624
925.064	13445
925.172	13324
925.279	13350
925.387	13327
925.494	13384
925.602	13529
925.709	13400
925.816	13354
925.924	13396
926.031	13400
926.138	13426
926.245	13339
926.352	13244
926.459	13324
926.566	13384
926.673	13213
926.779	13141
926.886	13160
926.993	12966
927.099	13065
927.206	12886
927.312	12848
927.419	13012
927.525	12901
927.631	12989
927.737	12856
927.843	12806
927.95	12604
928.056	12776
928.162	12768
928.267	12806
928.373	13346
928.479	12772
928.585	12547
928.69	12623
928.796	12802
928.901	12730
929.007	12452
929.112	12563
929.218	12563
929.323	12566
929.428	12414
929.533	12589
929.638	12357
929.743	12464
929.848	12456
929.953	12372
930.058	12209
930.163	12175
930.267	12213
930.372	12258
930.477	12117
930.581	12346
930.685	12171
930.79	12019
930.894	12091
930.998	12030
931.103	12114
931.207	11684
931.311	11786
931.415	11619
931.519	11406
931.623	11360
