Data from test_V78500241_166.txt Node
Date: Fri Mar 25 15:11:01 CST 2022
User: usil
Spectrometer: V785-0024
Trigger mode: 0
Integration Time (sec): 4.000000E-1
Scans to average: 1
Nonlinearity correction enabled: false
Boxcar width: 0
Storing dark spectrum: false
XAxis mode: Wavelengths
Number of Pixels in Spectrum: 1024
>>>>>Begin Spectral Data<<<<<
801.071	27884
801.214	27751
801.356	27462
801.499	27523
801.641	27496
801.783	27424
801.926	27408
802.068	27367
802.211	27302
802.353	27268
802.496	27169
802.638	27020
802.78	26910
802.923	26899
803.065	26811
803.208	26975
803.35	26956
803.492	27100
803.635	27195
803.777	27112
803.919	27207
804.061	27530
804.204	27146
804.346	26967
804.488	26838
804.63	27074
804.773	26956
804.915	27020
805.057	27028
805.199	26956
805.341	27081
805.483	27184
805.626	27104
805.768	27070
805.91	27195
806.052	27104
806.194	27009
806.336	27321
806.478	27131
806.62	27001
806.762	27100
806.904	27249
807.046	27504
807.188	27576
807.33	27401
807.472	27603
807.614	27348
807.756	27435
807.898	27427
808.04	27313
808.182	27317
808.324	27252
808.465	27211
808.607	27458
808.749	27728
808.891	27709
809.033	27857
809.174	27690
809.316	27690
809.458	27614
809.6	27713
809.741	27751
809.883	27717
810.025	27895
810.166	27785
810.308	27884
810.45	27869
810.591	27804
810.733	27587
810.875	27648
811.016	27603
811.158	27367
811.299	27568
811.441	27675
811.582	27709
811.724	27557
811.865	27557
812.007	27504
812.148	27542
812.29	27679
812.431	27861
812.573	27781
812.714	27987
812.855	27949
812.997	28029
813.138	28318
813.279	28177
813.421	28048
813.562	28169
813.703	27804
813.845	27781
813.986	27454
814.127	27313
814.268	27325
814.41	27412
814.551	27100
814.692	27180
814.833	27096
814.974	27108
815.115	27351
815.256	27013
815.397	27009
815.539	26940
815.68	26990
815.821	26872
815.962	27024
816.103	26925
816.244	26762
816.385	26765
816.526	26644
816.666	26522
816.807	26469
816.948	26488
817.089	26408
817.23	26400
817.371	26446
817.512	26358
817.653	26324
817.793	26282
817.934	26377
818.075	26499
818.216	26336
818.356	26294
818.497	26218
818.638	26016
818.778	26153
818.919	26077
819.06	26115
819.2	26221
819.341	26282
819.481	26309
819.622	26412
819.762	26617
819.903	26590
820.043	26617
820.184	26438
820.324	26317
820.465	26393
820.605	26415
820.746	26495
820.886	26362
821.026	26393
821.167	26240
821.307	26419
821.447	26180
821.588	26259
821.728	26012
821.868	25906
822.008	25875
822.149	25750
822.289	25620
822.429	25468
822.569	25335
822.709	25369
822.849	25358
822.99	25008
823.13	25194
823.27	25137
823.41	25103
823.55	25008
823.69	24901
823.83	24954
823.97	25057
824.11	24985
824.25	24779
824.389	24856
824.529	24821
824.669	24768
824.809	24985
824.949	24928
825.089	24878
825.228	24875
825.368	24646
825.508	24681
825.648	24684
825.787	24730
825.927	24654
826.067	24563
826.206	24532
826.346	24585
826.485	24631
826.625	24559
826.765	24753
826.904	24654
827.044	24376
827.183	24388
827.323	24353
827.462	24304
827.601	24311
827.741	24209
827.88	24311
828.02	24155
828.159	24201
828.298	24342
828.437	24342
828.577	24201
828.716	24391
828.855	24262
828.994	24087
829.134	24091
829.273	24011
829.412	23916
829.551	23942
829.69	24098
829.829	23984
829.968	24060
830.107	24159
830.246	23942
830.385	24007
830.524	23840
830.663	23672
830.802	23687
830.941	23551
831.08	23630
831.219	23653
831.357	23748
831.496	23950
831.635	23619
831.774	23608
831.913	23372
832.051	23330
832.19	23356
832.329	23356
832.467	23231
832.606	23174
832.744	23231
832.883	23189
833.022	23227
833.16	23151
833.299	23326
833.437	23178
833.576	23353
833.714	23220
833.852	23223
833.991	23296
834.129	23246
834.267	23349
834.406	23322
834.544	23231
834.682	23242
834.821	23220
834.959	23269
835.097	23246
835.235	23246
835.373	23216
835.511	23242
835.65	23113
835.788	23018
835.926	23029
836.064	22797
836.202	23022
836.34	23071
836.478	23166
836.615	22949
836.753	23102
836.891	23060
837.029	23117
837.167	23056
837.305	22942
837.443	22889
837.58	22889
837.718	22972
837.856	22831
837.993	22835
838.131	22923
838.269	22839
838.406	22809
838.544	22637
838.681	22573
838.819	22557
838.956	22348
839.094	22325
839.231	22352
839.369	22519
839.506	22835
839.643	22500
839.781	22382
839.918	22166
840.055	22363
840.193	22348
840.33	22207
840.467	22310
840.604	22432
840.742	22546
840.879	22211
841.016	22234
841.153	22055
841.29	22386
841.427	22185
841.564	22265
841.701	22322
841.838	22207
841.975	22112
842.112	22112
842.249	21975
842.385	22036
842.522	22139
842.659	22048
842.796	21804
842.933	21812
843.069	21975
843.206	21903
843.343	22070
843.479	21915
843.616	22021
843.752	21641
843.889	21800
844.025	21812
844.162	21759
844.298	21686
844.435	21827
844.571	21629
844.708	21781
844.844	21831
844.98	21903
845.117	21816
845.253	21641
845.389	21576
845.525	21720
845.661	21519
845.798	21408
845.934	21526
846.07	21264
846.206	21405
846.342	21599
846.478	21348
846.614	21249
846.75	21233
846.886	21112
847.022	21313
847.158	21066
847.294	21252
847.429	21214
847.565	21146
847.701	21351
847.837	21024
847.972	20914
848.108	20925
848.244	20944
848.379	20746
848.515	20758
848.65	20705
848.786	20705
848.921	20826
849.057	20769
849.192	20902
849.328	20876
849.463	20762
849.598	20792
849.734	20640
849.869	20571
850.004	20476
850.14	20526
850.275	20423
850.41	20358
850.545	20514
850.68	20332
850.815	20594
850.95	20492
851.085	20693
851.22	20606
851.355	20442
851.49	20366
851.625	20492
851.76	20625
851.895	20431
852.03	20423
852.165	20415
852.299	20446
852.434	20549
852.569	20583
852.703	20484
852.838	20446
852.973	20667
853.107	20632
853.242	20511
853.376	20339
853.511	20168
853.645	20278
853.78	20362
853.914	20457
854.048	20214
854.183	20328
854.317	20320
854.451	20434
854.585	20263
854.72	20332
854.854	20320
854.988	20237
855.122	20278
855.256	20119
855.39	20385
855.524	20317
855.658	20355
855.792	20271
855.926	20355
856.06	20313
856.194	20362
856.327	20210
856.461	20267
856.595	20248
856.729	20172
856.862	20412
856.996	20355
857.13	20385
857.263	20408
857.397	20377
857.53	20164
857.664	20339
857.797	20278
857.931	20377
858.064	20305
858.197	20381
858.331	20244
858.464	20107
858.597	20130
858.731	20252
858.864	20221
858.997	20134
859.13	20286
859.263	20336
859.396	20294
859.529	20240
859.662	20214
859.795	20130
859.928	20309
860.061	20362
860.194	20393
860.327	20176
860.46	20240
860.592	20381
860.725	20256
860.858	20396
860.99	20229
861.123	20214
861.256	20252
861.388	20282
861.521	21013
861.653	20168
861.786	20077
861.918	20016
862.05	20229
862.183	20187
862.315	20202
862.447	20259
862.58	20229
862.712	20062
862.844	20001
862.976	19959
863.108	20005
863.24	20370
863.372	19925
863.504	19963
863.636	19974
863.768	19944
863.9	20054
864.032	19852
864.164	19822
864.296	19967
864.428	20043
864.559	19944
864.691	20111
864.823	20081
864.954	19833
865.086	19822
865.217	19967
865.349	19753
865.48	19826
865.612	19925
865.743	19951
865.875	19913
866.006	19742
866.137	19932
866.269	19871
866.4	19795
866.531	19772
866.662	19837
866.793	19811
866.924	19757
867.055	19811
867.186	19727
867.317	19814
867.448	19765
867.579	19719
867.71	19662
867.841	19689
867.972	19715
868.103	19879
868.233	19738
868.364	19761
868.495	19932
868.625	20016
868.756	20138
868.886	19951
869.017	20031
869.147	20119
869.278	20149
869.408	20065
869.539	20096
869.669	20043
869.799	20142
869.929	20248
870.06	20027
870.19	20362
870.32	20332
870.45	20317
870.58	20446
870.71	20545
870.84	20526
870.97	20362
871.1	20408
871.23	20606
871.36	20625
871.489	20579
871.619	20636
871.749	20613
871.879	20716
872.008	20689
872.138	20724
872.267	20651
872.397	20473
872.526	20476
872.656	20362
872.785	20454
872.915	20640
873.044	20727
873.173	20648
873.303	20689
873.432	20636
873.561	20815
873.69	20655
873.819	20644
873.948	20739
874.077	20697
874.206	20617
874.335	20606
874.464	20762
874.593	20838
874.722	20906
874.851	20777
874.979	20986
875.108	21017
875.237	20796
875.365	20811
875.494	20796
875.623	21036
875.751	20815
875.88	21024
876.008	20944
876.136	21024
876.265	21279
876.393	21424
876.521	21348
876.65	21424
876.778	21344
876.906	21279
877.034	21157
877.162	21332
877.29	21230
877.418	21363
877.546	21169
877.674	21363
877.802	21283
877.93	21100
878.058	21192
878.185	21116
878.313	21249
878.441	21317
878.568	21184
878.696	21112
878.824	21275
878.951	21336
879.079	21488
879.206	21564
879.333	21408
879.461	21260
879.588	21287
879.715	21298
879.842	21538
879.97	21344
880.097	21131
880.224	21032
880.351	21070
880.478	21241
880.605	21089
880.732	21161
880.859	21272
880.986	21085
881.112	21062
881.239	21001
881.366	20708
881.493	20705
881.619	20663
881.746	20689
881.872	20697
881.999	20564
882.125	20682
882.252	20743
882.378	20606
882.505	20845
882.631	20556
882.757	20400
882.883	20461
883.01	20370
883.136	20495
883.262	20286
883.388	20191
883.514	20526
883.64	20473
883.766	20328
883.892	20176
884.018	20438
884.143	20434
884.269	20415
884.395	20069
884.52	20043
884.646	20111
884.772	19993
884.897	19993
885.023	20073
885.148	20153
885.274	20221
885.399	20210
885.524	20024
885.65	20142
885.775	20039
885.9	19932
886.025	20343
886.15	20180
886.275	19986
886.4	19974
886.525	19959
886.65	20012
886.775	19925
886.9	20115
887.025	20206
887.149	20126
887.274	19894
887.399	19902
887.523	19772
887.648	19814
887.773	19738
887.897	19868
888.021	19928
888.146	19791
888.27	19898
888.395	19913
888.519	19856
888.643	19883
888.767	19769
888.891	19750
889.015	19609
889.139	19658
889.263	19582
889.387	19750
889.511	19734
889.635	19674
889.759	19578
889.883	19548
890.006	19616
890.13	19693
890.254	19590
890.377	19457
890.501	19434
890.624	19377
890.748	19441
890.871	19270
890.995	19080
891.118	19076
891.241	19232
891.364	19240
891.488	19259
891.611	19255
891.734	19225
891.857	19259
891.98	19137
892.103	19228
892.226	19175
892.349	19168
892.471	19015
892.594	19091
892.717	19175
892.839	19171
892.962	19065
893.085	19251
893.207	19148
893.33	18993
893.452	18920
893.575	19099
893.697	19133
893.819	19327
893.941	19339
894.064	19190
894.186	19023
894.308	18996
894.43	19202
894.552	19384
894.674	19198
894.796	18943
894.918	19061
895.04	19194
895.161	19190
895.283	19183
895.405	19069
895.526	19118
895.648	19152
895.769	19137
895.891	19183
896.012	19301
896.134	19221
896.255	19129
896.376	19129
896.498	19285
896.619	19316
896.74	19183
896.861	19270
896.982	19430
897.103	19712
897.224	19476
897.345	19445
897.466	19285
897.587	19396
897.708	19559
897.828	19426
897.949	19293
898.07	19274
898.19	19316
898.311	19464
898.431	19304
898.552	19460
898.672	19362
898.792	19460
898.913	19422
899.033	19259
899.153	19236
899.273	19061
899.393	19034
899.513	19190
899.633	19145
899.753	19065
899.873	19053
899.993	19084
900.113	19061
900.232	19076
900.352	19012
900.472	18954
900.591	18989
900.711	18894
900.83	18848
900.95	19038
901.069	19034
901.189	18844
901.308	18627
901.427	18585
901.546	18536
901.665	18547
901.784	18578
901.904	18365
902.023	18350
902.141	18087
902.26	18076
902.379	18079
902.498	18022
902.617	17961
902.735	18098
902.854	18026
902.973	17912
903.091	17589
903.21	17760
903.328	17691
903.446	17627
903.565	17581
903.683	17463
903.801	17459
903.919	17410
904.038	17433
904.156	17334
904.274	17414
904.392	17235
904.51	17292
904.627	17181
904.745	17318
904.863	17292
904.981	17140
905.098	16927
905.216	16927
905.334	16987
905.451	16915
905.569	16991
905.686	16942
905.803	16896
905.921	16687
906.038	16869
906.155	16805
906.272	16599
906.389	16698
906.506	16538
906.623	16500
906.74	16542
906.857	16363
906.974	16409
907.091	16596
907.208	16550
907.324	16447
907.441	16360
907.557	16371
907.674	16166
907.79	16154
907.907	16188
908.023	16192
908.139	16162
908.256	16090
908.372	15983
908.488	15998
908.604	16067
908.72	15888
908.836	16021
908.952	15816
909.068	15972
909.184	16006
909.3	15880
909.415	15903
909.531	15934
909.647	15622
909.762	15622
909.878	15618
909.993	15614
910.108	15637
910.224	15641
910.339	15431
910.454	15435
910.57	15443
910.685	15302
910.8	15625
910.915	15663
911.03	15393
911.145	15306
911.259	15150
911.374	15195
911.489	15157
911.604	15089
911.718	14948
911.833	15005
911.947	14739
912.062	14842
912.176	14830
912.291	14960
912.405	14895
912.519	15146
912.633	15123
912.748	14990
912.862	14944
912.976	14781
913.09	14644
913.204	14655
913.318	14804
913.431	14891
913.545	14918
913.659	14792
913.772	14674
913.886	14579
914	14640
914.113	14594
914.226	14773
914.34	14682
914.453	14461
914.566	14632
914.68	14446
914.793	14507
914.906	14256
915.019	14199
915.132	14168
915.245	14210
915.358	14233
915.47	14199
915.583	14221
915.696	14100
915.809	14332
915.921	14355
916.034	14210
916.146	14153
916.259	14126
916.371	14206
916.483	14180
916.595	14084
916.708	14138
916.82	14103
916.932	14020
917.044	14027
917.156	14069
917.268	13860
917.38	13925
917.491	13837
917.603	13890
917.715	13963
917.826	14054
917.938	13788
918.049	13734
918.161	13887
918.272	13940
918.384	13963
918.495	13871
918.606	13655
918.717	13624
918.828	13685
918.939	13723
919.05	13556
919.161	13620
919.272	13472
919.383	13441
919.494	13723
919.604	13845
919.715	13666
919.826	13651
919.936	13628
920.047	13620
920.157	13662
920.267	13784
920.378	13624
920.488	13628
920.598	13799
920.708	13974
920.818	13731
920.928	13811
921.038	13845
921.148	13883
921.258	13651
921.368	13483
921.477	13400
921.587	13438
921.697	13304
921.806	13335
921.916	13213
922.025	13057
922.134	13061
922.244	12989
922.353	13000
922.462	12928
922.571	12989
922.68	12734
922.789	12662
922.898	12745
923.007	12604
923.116	12650
923.224	12608
923.333	12578
923.442	12574
923.55	12486
923.659	12525
923.767	12509
923.876	12498
923.984	12494
924.092	12448
924.201	12426
924.309	12403
924.417	12410
924.525	12350
924.633	12327
924.741	13160
924.849	12140
924.956	12346
925.064	12175
925.172	12175
925.279	12060
925.387	12209
925.494	12152
925.602	12254
925.709	12182
925.816	12041
925.924	12163
926.031	12182
926.138	12060
926.245	12072
926.352	12076
926.459	12171
926.566	12148
926.673	11965
926.779	11935
926.886	11939
926.993	11707
927.099	11748
927.206	11585
927.312	11638
927.419	11790
927.525	11726
927.631	11764
927.737	11634
927.843	11615
927.95	11463
928.056	11459
928.162	11528
928.267	11581
928.373	12129
928.479	11600
928.585	11463
928.69	11589
928.796	11543
928.901	11402
929.007	11254
929.112	11558
929.218	11452
929.323	11349
929.428	11311
929.533	11482
929.638	11299
929.743	11254
929.848	11376
929.953	11269
930.058	11231
930.163	10987
930.267	11109
930.372	11189
930.477	10942
930.581	11273
930.685	11071
930.79	10908
930.894	10934
930.998	10816
931.103	11064
931.207	10687
931.311	10531
931.415	10527
931.519	10322
931.623	10249
