Data from test_V78500241_230.txt Node
Date: Fri Mar 25 15:11:27 CST 2022
User: usil
Spectrometer: V785-0024
Trigger mode: 0
Integration Time (sec): 4.000000E-1
Scans to average: 1
Nonlinearity correction enabled: false
Boxcar width: 0
Storing dark spectrum: false
XAxis mode: Wavelengths
Number of Pixels in Spectrum: 1024
>>>>>Begin Spectral Data<<<<<
801.071	27903
801.214	27682
801.356	27682
801.499	27382
801.641	27332
801.783	27389
801.926	27310
802.068	27412
802.211	27252
802.353	27173
802.496	27032
802.638	27005
802.78	26880
802.923	26842
803.065	26781
803.208	26940
803.35	26769
803.492	26998
803.635	27089
803.777	26876
803.919	27062
804.061	27268
804.204	27055
804.346	27142
804.488	26929
804.63	26944
804.773	26834
804.915	27005
805.057	26975
805.199	27104
805.341	26944
805.483	27218
805.626	27127
805.768	27184
805.91	27146
806.052	26990
806.194	27028
806.336	27211
806.478	27180
806.62	27154
806.762	27218
806.904	27386
807.046	27614
807.188	27496
807.33	27614
807.472	27606
807.614	27329
807.756	27294
807.898	27344
808.04	27283
808.182	27291
808.324	27252
808.465	27226
808.607	27618
808.749	27641
808.891	27747
809.033	27835
809.174	27698
809.316	27698
809.458	27755
809.6	27682
809.741	27755
809.883	27728
810.025	27846
810.166	27960
810.308	27941
810.45	27979
810.591	27926
810.733	27751
810.875	27610
811.016	27595
811.158	27545
811.299	27667
811.441	27793
811.582	27694
811.724	27720
811.865	27720
812.007	27561
812.148	27523
812.29	27595
812.431	27827
812.573	27922
812.714	28010
812.855	27975
812.997	28226
813.138	28348
813.279	28382
813.421	28196
813.562	28135
813.703	27983
813.845	27895
813.986	27534
814.127	27355
814.268	27180
814.41	27427
814.551	27298
814.692	27325
814.833	27131
814.974	27180
815.115	27306
815.256	27169
815.397	27028
815.539	27058
815.68	27005
815.821	27074
815.962	27043
816.103	27066
816.244	26781
816.385	26868
816.526	26876
816.666	26785
816.807	26434
816.948	26632
817.089	26606
817.23	26511
817.371	26317
817.512	26396
817.653	26324
817.793	26412
817.934	26469
818.075	26347
818.216	26526
818.356	26282
818.497	26332
818.638	26138
818.778	26180
818.919	26229
819.06	26103
819.2	26218
819.341	26469
819.481	26461
819.622	26568
819.762	26720
819.903	26815
820.043	26480
820.184	26545
820.324	26453
820.465	26575
820.605	26590
820.746	26446
820.886	26370
821.026	26469
821.167	26484
821.307	26427
821.447	26446
821.588	26298
821.728	26115
821.868	26065
822.008	25887
822.149	25879
822.289	25791
822.429	25677
822.569	25499
822.709	25479
822.849	25228
822.99	25369
823.13	25282
823.27	25304
823.41	25107
823.55	24913
823.69	25183
823.83	25225
823.97	25194
824.11	24894
824.25	24958
824.389	24798
824.529	24932
824.669	25031
824.809	24992
824.949	24992
825.089	24985
825.228	24962
825.368	24589
825.508	24646
825.648	24772
825.787	24772
825.927	24932
826.067	24722
826.206	24776
826.346	24749
826.485	24833
826.625	24894
826.765	24692
826.904	24779
827.044	24502
827.183	24388
827.323	24372
827.462	24509
827.601	24479
827.741	24555
827.88	24475
828.02	24311
828.159	24395
828.298	24395
828.437	24521
828.577	24365
828.716	24589
828.855	24380
828.994	24224
829.134	24152
829.273	24064
829.412	24064
829.551	24117
829.69	24182
829.829	24098
829.968	24216
830.107	24155
830.246	24152
830.385	24091
830.524	24049
830.663	23931
830.802	23783
830.941	23737
831.08	23687
831.219	23786
831.357	23775
831.496	23996
831.635	23756
831.774	23551
831.913	23684
832.051	23459
832.19	23463
832.329	23562
832.467	23349
832.606	23395
832.744	23360
832.883	23429
833.022	23341
833.16	23360
833.299	23326
833.437	23444
833.576	23376
833.714	23452
833.852	23501
833.991	23471
834.129	23433
834.267	23524
834.406	23379
834.544	23337
834.682	23493
834.821	23383
834.959	23497
835.097	23376
835.235	23566
835.373	23284
835.511	23288
835.65	23208
835.788	23246
835.926	23151
836.064	22984
836.202	23178
836.34	23197
836.478	23398
836.615	23204
836.753	23265
836.891	23288
837.029	23261
837.167	23250
837.305	23117
837.443	23124
837.58	23200
837.718	23216
837.856	23197
837.993	23010
838.131	23067
838.269	22831
838.406	23003
838.544	22889
838.681	22725
838.819	22656
838.956	22607
839.094	22504
839.231	22592
839.369	22725
839.506	22877
839.643	22755
839.781	22497
839.918	22329
840.055	22584
840.193	22504
840.33	22440
840.467	22447
840.604	22440
840.742	22805
840.879	22360
841.016	22459
841.153	22284
841.29	22557
841.427	22394
841.564	22527
841.701	22470
841.838	22348
841.975	22246
842.112	22375
842.249	22215
842.385	22207
842.522	22337
842.659	22249
842.796	22226
842.933	22166
843.069	22036
843.206	22097
843.343	22192
843.479	22185
843.616	22238
843.752	21987
843.889	21934
844.025	22093
844.162	22013
844.298	22101
844.435	21926
844.571	21861
844.708	21838
844.844	22067
844.98	22109
845.117	22032
845.253	21739
845.389	21743
845.525	21755
845.661	21827
845.798	21648
845.934	21610
846.07	21709
846.206	21648
846.342	21888
846.478	21572
846.614	21412
846.75	21420
846.886	21340
847.022	21481
847.158	21367
847.294	21405
847.429	21386
847.565	21447
847.701	21633
847.837	21195
847.972	21039
848.108	21195
848.244	21100
848.379	21058
848.515	20979
848.65	20910
848.786	21024
848.921	21039
849.057	21112
849.192	21093
849.328	21013
849.463	21005
849.598	21100
849.734	20712
849.869	20876
850.004	20758
850.14	20735
850.275	20739
850.41	20689
850.545	20640
850.68	20644
850.815	20667
850.95	20621
851.085	20925
851.22	20864
851.355	20697
851.49	20712
851.625	20781
851.76	20659
851.895	20640
852.03	20594
852.165	20750
852.299	20674
852.434	20765
852.569	20670
852.703	20708
852.838	20777
852.973	20921
853.107	20815
853.242	20648
853.376	20579
853.511	20427
853.645	20431
853.78	20686
853.914	20438
854.048	20457
854.183	20469
854.317	20556
854.451	20617
854.585	20541
854.72	20545
854.854	20598
854.988	20339
855.122	20545
855.256	20408
855.39	20495
855.524	20629
855.658	20549
855.792	20606
855.926	20530
856.06	20708
856.194	20674
856.327	20609
856.461	20571
856.595	20480
856.729	20465
856.862	20648
856.996	20533
857.13	20632
857.263	20648
857.397	20587
857.53	20541
857.664	20518
857.797	20598
857.931	20686
858.064	20556
858.197	20598
858.331	20381
858.464	20434
858.597	20457
858.731	20427
858.864	20438
858.997	20385
859.13	20518
859.263	20568
859.396	20526
859.529	20400
859.662	20396
859.795	20339
859.928	20549
860.061	20644
860.194	20731
860.327	20556
860.46	20499
860.592	20469
860.725	20625
860.858	20568
860.99	20362
861.123	20396
861.256	20431
861.388	20415
861.521	21195
861.653	20408
861.786	20263
861.918	20385
862.05	20484
862.183	20499
862.315	20461
862.447	20549
862.58	20503
862.712	20237
862.844	20248
862.976	20301
863.108	20275
863.24	20754
863.372	20069
863.504	20138
863.636	20176
863.768	20240
863.9	20225
864.032	20062
864.164	20244
864.296	20111
864.428	20221
864.559	20434
864.691	20324
864.823	20221
864.954	20191
865.086	20210
865.217	20168
865.349	19997
865.48	20005
865.612	20199
865.743	20244
865.875	20046
866.006	20130
866.137	20100
866.269	20115
866.4	20043
866.531	19974
866.662	20024
866.793	20008
866.924	20065
867.055	20081
867.186	20035
867.317	19864
867.448	19959
867.579	20016
867.71	20020
867.841	19970
867.972	20050
868.103	20039
868.233	20092
868.364	19944
868.495	20122
868.625	20168
868.756	20389
868.886	20210
869.017	20244
869.147	20332
869.278	20347
869.408	20324
869.539	20336
869.669	20404
869.799	20278
869.929	20423
870.06	20438
870.19	20549
870.32	20575
870.45	20716
870.58	20712
870.71	20785
870.84	20781
870.97	20720
871.1	20606
871.23	20773
871.36	20868
871.489	20788
871.619	20830
871.749	20986
871.879	20906
872.008	20979
872.138	20887
872.267	20800
872.397	20872
872.526	20659
872.656	20640
872.785	20648
872.915	20914
873.044	21001
873.173	20979
873.303	20944
873.432	20910
873.561	20921
873.69	20910
873.819	20902
873.948	20967
874.077	20986
874.206	20823
874.335	20960
874.464	21085
874.593	21131
874.722	21180
874.851	21188
874.979	21214
875.108	21127
875.237	21108
875.365	20998
875.494	21157
875.623	21192
875.751	21032
875.88	21119
876.008	21252
876.136	21336
876.265	21515
876.393	21614
876.521	21530
876.65	21580
876.778	21507
876.906	21504
877.034	21515
877.162	21408
877.29	21332
877.418	21530
877.546	21416
877.674	21481
877.802	21397
877.93	21405
878.058	21439
878.185	21389
878.313	21359
878.441	21439
878.568	21428
878.696	21336
878.824	21473
878.951	21507
879.079	21686
879.206	21713
879.333	21599
879.461	21618
879.588	21739
879.715	21789
879.842	21675
879.97	21488
880.097	21252
880.224	21287
880.351	21329
880.478	21340
880.605	21207
880.732	21310
880.859	21667
880.986	21374
881.112	21294
881.239	21100
881.366	21062
881.493	21047
881.619	20994
881.746	20952
881.872	20887
881.999	20876
882.125	20895
882.252	20941
882.378	20861
882.505	21036
882.631	20743
882.757	20556
882.883	20613
883.01	20670
883.136	20514
883.262	20480
883.388	20568
883.514	20598
883.64	20655
883.766	20590
883.892	20438
884.018	20404
884.143	20556
884.269	20667
884.395	20400
884.52	20161
884.646	20301
884.772	20183
884.897	20119
885.023	20309
885.148	20332
885.274	20457
885.399	20404
885.524	20328
885.65	20385
885.775	20248
885.9	20168
886.025	20355
886.15	20263
886.275	20176
886.4	20096
886.525	20252
886.65	20138
886.775	20221
886.9	20461
887.025	20476
887.149	20237
887.274	19963
887.399	19967
887.523	20134
887.648	20016
887.773	19898
887.897	20134
888.021	20111
888.146	19928
888.27	20077
888.395	20130
888.519	20012
888.643	20054
888.767	19986
888.891	19986
889.015	19738
889.139	19967
889.263	19997
889.387	19898
889.511	19898
889.635	19845
889.759	19814
889.883	19841
890.006	19856
890.13	19898
890.254	19784
890.377	19712
890.501	19620
890.624	19586
890.748	19727
890.871	19499
890.995	19430
891.118	19247
891.241	19457
891.364	19373
891.488	19613
891.611	19449
891.734	19362
891.857	19483
891.98	19354
892.103	19362
892.226	19457
892.349	19320
892.471	19285
892.594	19324
892.717	19301
892.839	19320
892.962	19320
893.085	19343
893.207	19346
893.33	19187
893.452	19263
893.575	19426
893.697	19308
893.819	19514
893.941	19548
894.064	19472
894.186	19285
894.308	19247
894.43	19476
894.552	19464
894.674	19358
894.796	19251
894.918	19324
895.04	19228
895.161	19472
895.283	19403
895.405	19259
895.526	19335
895.648	19278
895.769	19384
895.891	19373
896.012	19362
896.134	19441
896.255	19358
896.376	19259
896.498	19278
896.619	19400
896.74	19339
896.861	19312
896.982	19681
897.103	19765
897.224	19628
897.345	19571
897.466	19460
897.587	19544
897.708	19727
897.828	19586
897.949	19453
898.07	19434
898.19	19594
898.311	19655
898.431	19544
898.552	19460
898.672	19662
898.792	19624
898.913	19609
899.033	19563
899.153	19400
899.273	19304
899.393	19373
899.513	19270
899.633	19301
899.753	19377
899.873	19240
899.993	19304
900.113	19266
900.232	19289
900.352	19183
900.472	19312
900.591	19137
900.711	19221
900.83	19023
900.95	19209
901.069	19152
901.189	19023
901.308	18837
901.427	18692
901.546	18681
901.665	18798
901.784	18764
901.904	18582
902.023	18506
902.141	18327
902.26	18213
902.379	18388
902.498	18186
902.617	18136
902.735	18308
902.854	18152
902.973	18087
903.091	17851
903.21	17935
903.328	17866
903.446	17805
903.565	17646
903.683	17733
903.801	17611
903.919	17600
904.038	17680
904.156	17551
904.274	17573
904.392	17444
904.51	17436
904.627	17490
904.745	17543
904.863	17474
904.981	17258
905.098	17143
905.216	17098
905.334	17162
905.451	17185
905.569	17109
905.686	17113
905.803	17102
905.921	16980
906.038	16949
906.155	16972
906.272	16877
906.389	16831
906.506	16672
906.623	16702
906.74	16599
906.857	16546
906.974	16607
907.091	16702
907.208	16839
907.324	16588
907.441	16592
907.557	16470
907.674	16356
907.79	16333
907.907	16421
908.023	16352
908.139	16428
908.256	16382
908.372	16219
908.488	16200
908.604	16139
908.72	16086
908.836	16150
908.952	16021
909.068	16048
909.184	16238
909.3	16067
909.415	16078
909.531	16112
909.647	15873
909.762	15724
909.878	15778
909.993	15793
910.108	15835
910.224	15793
910.339	15831
910.454	15770
910.57	15618
910.685	15576
910.8	15884
910.915	15804
911.03	15561
911.145	15420
911.259	15420
911.374	15321
911.489	15363
911.604	15287
911.718	15154
911.833	15218
911.947	15085
912.062	14967
912.176	15131
912.291	15165
912.405	15119
912.519	15272
912.633	15233
912.748	15165
912.862	15131
912.976	15020
913.09	14823
913.204	14910
913.318	15062
913.431	15123
913.545	15055
913.659	15005
913.772	14895
913.886	14918
914	14781
914.113	14857
914.226	14849
914.34	14861
914.453	14754
914.566	14769
914.68	14708
914.793	14678
914.906	14518
915.019	14366
915.132	14343
915.245	14404
915.358	14518
915.47	14434
915.583	14415
915.696	14564
915.809	14484
915.921	14549
916.034	14324
916.146	14267
916.259	14256
916.371	14385
916.483	14362
916.595	14191
916.708	14240
916.82	14263
916.932	14195
917.044	14195
917.156	14092
917.268	14043
917.38	14096
917.491	14103
917.603	14062
917.715	14210
917.826	14149
917.938	13997
918.049	14008
918.161	13993
918.272	14221
918.384	14164
918.495	14100
918.606	13833
918.717	13750
918.828	13936
918.939	13849
919.05	13712
919.161	13833
919.272	13575
919.383	13799
919.494	13849
919.604	13989
919.715	13841
919.826	13708
919.936	13734
920.047	13826
920.157	13746
920.267	13993
920.378	13852
920.488	13776
920.598	14024
920.708	14123
920.818	13963
920.928	13921
921.038	14062
921.148	14092
921.258	13791
921.368	13620
921.477	13491
921.587	13559
921.697	13396
921.806	13571
921.916	13449
922.025	13263
922.134	13251
922.244	13164
922.353	13289
922.462	13190
922.571	12985
922.68	12890
922.789	12897
922.898	12901
923.007	12768
923.116	12829
923.224	12814
923.333	12764
923.442	12692
923.55	12608
923.659	12711
923.767	12738
923.876	12764
923.984	12779
924.092	12658
924.201	12623
924.309	12707
924.417	12726
924.525	12528
924.633	12593
924.741	13285
924.849	12361
924.956	12563
925.064	12391
925.172	12235
925.279	12315
925.387	12407
925.494	12273
925.602	12418
925.709	12429
925.816	12186
925.924	12251
926.031	12437
926.138	12239
926.245	12315
926.352	12121
926.459	12346
926.566	12350
926.673	12197
926.779	12155
926.886	12022
926.993	11939
927.099	11874
927.206	11927
927.312	11893
927.419	11882
927.525	11935
927.631	11916
927.737	11798
927.843	11817
927.95	11718
928.056	11718
928.162	11707
928.267	11790
928.373	12251
928.479	11824
928.585	11558
928.69	11680
928.796	11786
928.901	11585
929.007	11528
929.112	11592
929.218	11577
929.323	11467
929.428	11463
929.533	11558
929.638	11429
929.743	11395
929.848	11459
929.953	11402
930.058	11273
930.163	11181
930.267	11159
930.372	11288
930.477	11113
930.581	11410
930.685	11147
930.79	10991
930.894	11060
930.998	11109
931.103	11155
931.207	10793
931.311	10675
931.415	10611
931.519	10481
931.623	10440
