Data from test_V78500241_468.txt Node
Date: Fri Mar 25 15:13:07 CST 2022
User: usil
Spectrometer: V785-0024
Trigger mode: 0
Integration Time (sec): 4.000000E-1
Scans to average: 1
Nonlinearity correction enabled: false
Boxcar width: 0
Storing dark spectrum: false
XAxis mode: Wavelengths
Number of Pixels in Spectrum: 1024
>>>>>Begin Spectral Data<<<<<
801.071	27458
801.214	27222
801.356	27051
801.499	26979
801.641	26925
801.783	27089
801.926	26948
802.068	26849
802.211	26876
802.353	26788
802.496	26667
802.638	26606
802.78	26579
802.923	26545
803.065	26552
803.208	26469
803.35	26583
803.492	26602
803.635	26769
803.777	26712
803.919	26708
804.061	27062
804.204	26754
804.346	26727
804.488	26708
804.63	26667
804.773	26541
804.915	26659
805.057	26800
805.199	26864
805.341	26960
805.483	26906
805.626	26937
805.768	26689
805.91	26857
806.052	26849
806.194	26807
806.336	27066
806.478	26925
806.62	26956
806.762	26967
806.904	27047
807.046	27241
807.188	27329
807.33	27207
807.472	27386
807.614	27264
807.756	27173
807.898	27173
808.04	26944
808.182	27116
808.324	27211
808.465	27214
808.607	27249
808.749	27481
808.891	27572
809.033	27671
809.174	27599
809.316	27504
809.458	27553
809.6	27401
809.741	27580
809.883	27561
810.025	27781
810.166	27701
810.308	27816
810.45	27732
810.591	27610
810.733	27538
810.875	27359
811.016	27344
811.158	27302
811.299	27519
811.441	27648
811.582	27854
811.724	27500
811.865	27481
812.007	27500
812.148	27454
812.29	27454
812.431	27633
812.573	27876
812.714	27899
812.855	28044
812.997	28177
813.138	28139
813.279	27991
813.421	28154
813.562	28147
813.703	27865
813.845	27789
813.986	27389
814.127	27306
814.268	27340
814.41	27127
814.551	27188
814.692	27241
814.833	27024
814.974	27074
815.115	27165
815.256	27138
815.397	27093
815.539	27047
815.68	26990
815.821	26944
815.962	26792
816.103	26902
816.244	26811
816.385	26686
816.526	26682
816.666	26480
816.807	26412
816.948	26526
817.089	26480
817.23	26560
817.371	26469
817.512	26453
817.653	26362
817.793	26271
817.934	26450
818.075	26400
818.216	26457
818.356	26423
818.497	26240
818.638	26119
818.778	26024
818.919	26103
819.06	26240
819.2	26317
819.341	26465
819.481	26442
819.622	26590
819.762	26800
819.903	26750
820.043	26629
820.184	26632
820.324	26518
820.465	26640
820.605	26533
820.746	26651
820.886	26377
821.026	26446
821.167	26522
821.307	26609
821.447	26537
821.588	26305
821.728	26126
821.868	26103
822.008	25989
822.149	25966
822.289	25875
822.429	25597
822.569	25723
822.709	25514
822.849	25487
822.99	25392
823.13	25419
823.27	25270
823.41	25183
823.55	25095
823.69	25285
823.83	25247
823.97	25080
824.11	24913
824.25	24920
824.389	25046
824.529	25065
824.669	25061
824.809	25187
824.949	25175
825.089	25034
825.228	24935
825.368	24810
825.508	24920
825.648	24897
825.787	24882
825.927	24970
826.067	24764
826.206	24920
826.346	24878
826.485	24939
826.625	24833
826.765	24943
826.904	24939
827.044	24620
827.183	24681
827.323	24551
827.462	24623
827.601	24601
827.741	24582
827.88	24654
828.02	24544
828.159	24627
828.298	24658
828.437	24684
828.577	24544
828.716	24623
828.855	24559
828.994	24327
829.134	24308
829.273	24388
829.412	24388
829.551	24247
829.69	24266
829.829	24334
829.968	24498
830.107	24429
830.246	24258
830.385	24292
830.524	24247
830.663	24087
830.802	24038
830.941	23958
831.08	23904
831.219	24091
831.357	23988
831.496	24174
831.635	23958
831.774	23885
831.913	23821
832.051	23737
832.19	23733
832.329	23794
832.467	23611
832.606	23653
832.744	23581
832.883	23722
833.022	23638
833.16	23642
833.299	23703
833.437	23649
833.576	23630
833.714	23767
833.852	23726
833.991	23661
834.129	23863
834.267	23783
834.406	23623
834.544	23733
834.682	23783
834.821	23726
834.959	23737
835.097	23604
835.235	23878
835.373	23798
835.511	23737
835.65	23615
835.788	23570
835.926	23410
836.064	23379
836.202	23345
836.34	23570
836.478	23505
836.615	23543
836.753	23558
836.891	23699
837.029	23474
837.167	23512
837.305	23467
837.443	23406
837.58	23417
837.718	23467
837.856	23326
837.993	23353
838.131	23406
838.269	23280
838.406	23250
838.544	23269
838.681	23014
838.819	23052
838.956	22862
839.094	22869
839.231	22934
839.369	22957
839.506	23265
839.643	23052
839.781	22938
839.918	22816
840.055	22782
840.193	22835
840.33	22812
840.467	22816
840.604	22801
840.742	22995
840.879	22740
841.016	22744
841.153	22611
841.29	22995
841.427	22698
841.564	22869
841.701	22782
841.838	22733
841.975	22664
842.112	22683
842.249	22744
842.385	22630
842.522	22668
842.659	22611
842.796	22493
842.933	22523
843.069	22481
843.206	22504
843.343	22538
843.479	22626
843.616	22653
843.752	22363
843.889	22363
844.025	22584
844.162	22363
844.298	22390
844.435	22284
844.571	22333
844.708	22371
844.844	22474
844.98	22596
845.117	22512
845.253	22310
845.389	22280
845.525	22318
845.661	22318
845.798	22063
845.934	22105
846.07	22070
846.206	21983
846.342	22112
846.478	22032
846.614	21991
846.75	21633
846.886	21797
847.022	21892
847.158	21846
847.294	21785
847.429	21766
847.565	21793
847.701	21979
847.837	21549
847.972	21447
848.108	21629
848.244	21709
848.379	21519
848.515	21340
848.65	21458
848.786	21492
848.921	21424
849.057	21485
849.192	21416
849.328	21439
849.463	21348
849.598	21340
849.734	21226
849.869	21222
850.004	21188
850.14	21291
850.275	21222
850.41	21135
850.545	21085
850.68	21146
850.815	21233
850.95	21165
851.085	21374
851.22	21313
851.355	21176
851.49	21233
851.625	21188
851.76	21066
851.895	21131
852.03	21142
852.165	21112
852.299	21116
852.434	21169
852.569	21264
852.703	21108
852.838	21241
852.973	21275
853.107	21249
853.242	21024
853.376	21100
853.511	20872
853.645	20914
853.78	21203
853.914	21024
854.048	20998
854.183	20902
854.317	21100
854.451	21154
854.585	21001
854.72	20960
854.854	21077
854.988	20929
855.122	20941
855.256	21017
855.39	20960
855.524	21085
855.658	21062
855.792	20918
855.926	21032
856.06	20960
856.194	21028
856.327	20998
856.461	20857
856.595	21009
856.729	20918
856.862	21070
856.996	20963
857.13	21043
857.263	21081
857.397	21112
857.53	21024
857.664	21032
857.797	21036
857.931	21081
858.064	20994
858.197	21146
858.331	20849
858.464	20937
858.597	20895
858.731	20891
858.864	20811
858.997	20937
859.13	20960
859.263	21020
859.396	21062
859.529	20906
859.662	20834
859.795	20872
859.928	21009
860.061	21135
860.194	21192
860.327	20948
860.46	20948
860.592	21127
860.725	21211
860.858	21032
860.99	20982
861.123	20952
861.256	20986
861.388	20960
861.521	21713
861.653	20868
861.786	20762
861.918	20891
862.05	20914
862.183	20956
862.315	20891
862.447	21005
862.58	20982
862.712	20807
862.844	20594
862.976	20693
863.108	20823
863.24	21264
863.372	20724
863.504	20769
863.636	20800
863.768	20819
863.9	20533
864.032	20579
864.164	20606
864.296	20682
864.428	20762
864.559	20629
864.691	20758
864.823	20648
864.954	20640
865.086	20682
865.217	20632
865.349	20507
865.48	20644
865.612	20625
865.743	20724
865.875	20617
866.006	20568
866.137	20579
866.269	20537
866.4	20545
866.531	20503
866.662	20533
866.793	20457
866.924	20552
867.055	20514
867.186	20552
867.317	20575
867.448	20461
867.579	20533
867.71	20499
867.841	20358
867.972	20537
868.103	20461
868.233	20511
868.364	20476
868.495	20526
868.625	20826
868.756	20887
868.886	20613
869.017	20788
869.147	20872
869.278	20834
869.408	20724
869.539	20651
869.669	20876
869.799	20845
869.929	20933
870.06	20849
870.19	20975
870.32	21020
870.45	21032
870.58	21104
870.71	21287
870.84	21344
870.97	21302
871.1	21287
871.23	21363
871.36	21389
871.489	21245
871.619	21313
871.749	21291
871.879	21378
872.008	21538
872.138	21405
872.267	21287
872.397	21176
872.526	21123
872.656	21157
872.785	21260
872.915	21450
873.044	21416
873.173	21393
873.303	21393
873.432	21481
873.561	21481
873.69	21416
873.819	21298
873.948	21523
874.077	21500
874.206	21355
874.335	21367
874.464	21504
874.593	21663
874.722	21450
874.851	21591
874.979	21614
875.108	21690
875.237	21523
875.365	21641
875.494	21591
875.623	21656
875.751	21450
875.88	21614
876.008	21823
876.136	21743
876.265	22051
876.393	22105
876.521	21911
876.65	22101
876.778	22048
876.906	22025
877.034	22017
877.162	22078
877.29	21800
877.418	21899
877.546	21949
877.674	21930
877.802	21831
877.93	21998
878.058	21907
878.185	21846
878.313	21934
878.441	21937
878.568	21747
878.696	21804
878.824	21991
878.951	22074
879.079	21987
879.206	22249
879.333	22246
879.461	21968
879.588	22051
879.715	22162
879.842	22295
879.97	21964
880.097	21812
880.224	21675
880.351	21812
880.478	21861
880.605	21755
880.732	21755
880.859	21987
880.986	21857
881.112	21755
881.239	21652
881.366	21587
881.493	21454
881.619	21523
881.746	21462
881.872	21568
881.999	21462
882.125	21294
882.252	21412
882.378	21439
882.505	21553
882.631	21275
882.757	20918
882.883	21127
883.01	21131
883.136	21096
883.262	20994
883.388	20948
883.514	21211
883.64	21131
883.766	20994
883.892	20807
884.018	20918
884.143	21001
884.269	21077
884.395	20838
884.52	20769
884.646	20758
884.772	20697
884.897	20552
885.023	20792
885.148	20842
885.274	20861
885.399	20815
885.524	20762
885.65	20849
885.775	20697
885.9	20640
886.025	20906
886.15	20746
886.275	20644
886.4	20549
886.525	20697
886.65	20613
886.775	20724
886.9	20849
887.025	20967
887.149	20644
887.274	20537
887.399	20598
887.523	20556
887.648	20511
887.773	20381
887.897	20594
888.021	20575
888.146	20454
888.27	20617
888.395	20659
888.519	20575
888.643	20629
888.767	20522
888.891	20355
889.015	20332
889.139	20358
889.263	20377
889.387	20488
889.511	20552
889.635	20484
889.759	20294
889.883	20271
890.006	20309
890.13	20431
890.254	20240
890.377	20180
890.501	19982
890.624	20065
890.748	20130
890.871	19967
890.995	20012
891.118	19860
891.241	19959
891.364	19928
891.488	19989
891.611	19974
891.734	20035
891.857	20062
891.98	19868
892.103	19913
892.226	19799
892.349	19841
892.471	19723
892.594	19788
892.717	19868
892.839	19803
892.962	19795
893.085	19833
893.207	19830
893.33	19624
893.452	19719
893.575	19978
893.697	19814
893.819	19993
893.941	19986
894.064	19989
894.186	19803
894.308	19746
894.43	19811
894.552	20008
894.674	19928
894.796	19734
894.918	19833
895.04	19795
895.161	19883
895.283	19803
895.405	19799
895.526	19879
895.648	19856
895.769	19769
895.891	19837
896.012	19967
896.134	19837
896.255	19791
896.376	19704
896.498	19788
896.619	19875
896.74	19814
896.861	19795
896.982	20054
897.103	20126
897.224	20176
897.345	19993
897.466	19967
897.587	20039
897.708	20183
897.828	20008
897.949	20081
898.07	19944
898.19	19936
898.311	20134
898.431	19970
898.552	20005
898.672	20077
898.792	20043
898.913	19978
899.033	19993
899.153	19780
899.273	19708
899.393	19791
899.513	19833
899.633	19742
899.753	19803
899.873	19753
899.993	19780
900.113	19788
900.232	19731
900.352	19662
900.472	19601
900.591	19480
900.711	19556
900.83	19499
900.95	19639
901.069	19715
901.189	19518
901.308	19240
901.427	19133
901.546	19076
901.665	19141
901.784	19346
901.904	19057
902.023	18996
902.141	18684
902.26	18768
902.379	18658
902.498	18673
902.617	18612
902.735	18700
902.854	18513
902.973	18555
903.091	18342
903.21	18384
903.328	18319
903.446	18285
903.565	18079
903.683	18140
903.801	18045
903.919	18030
904.038	18114
904.156	17908
904.274	17946
904.392	17836
904.51	17961
904.627	17935
904.745	17946
904.863	18022
904.981	17703
905.098	17497
905.216	17589
905.334	17665
905.451	17653
905.569	17604
905.686	17467
905.803	17611
905.921	17387
906.038	17558
906.155	17463
906.272	17277
906.389	17311
906.506	17181
906.623	17181
906.74	17056
906.857	17121
906.974	17033
907.091	17193
907.208	17258
907.324	17162
907.441	17083
907.557	16885
907.674	16824
907.79	16801
907.907	16713
908.023	16866
908.139	16805
908.256	16843
908.372	16725
908.488	16847
908.604	16626
908.72	16580
908.836	16538
908.952	16485
909.068	16607
909.184	16653
909.3	16580
909.415	16634
909.531	16542
909.647	16314
909.762	16348
909.878	16291
909.993	16333
910.108	16284
910.224	16246
910.339	16284
910.454	16116
910.57	16139
910.685	16147
910.8	16295
910.915	16287
911.03	16017
911.145	15983
911.259	15934
911.374	15907
911.489	15724
911.604	15671
911.718	15614
911.833	15637
911.947	15557
912.062	15530
912.176	15511
912.291	15595
912.405	15648
912.519	15823
912.633	15717
912.748	15660
912.862	15622
912.976	15504
913.09	15275
913.204	15393
913.318	15458
913.431	15428
913.545	15526
913.659	15599
913.772	15412
913.886	15252
914	15176
914.113	15363
914.226	15332
914.34	15294
914.453	15165
914.566	15272
914.68	15207
914.793	15138
914.906	14914
915.019	14883
915.132	14785
915.245	14933
915.358	14921
915.47	14845
915.583	14895
915.696	14883
915.809	15020
915.921	14960
916.034	14845
916.146	14826
916.259	14746
916.371	14883
916.483	14815
916.595	14758
916.708	14739
916.82	14648
916.932	14777
917.044	14587
917.156	14598
917.268	14492
917.38	14545
917.491	14533
917.603	14518
917.715	14617
917.826	14636
917.938	14473
918.049	14301
918.161	14541
918.272	14575
918.384	14606
918.495	14495
918.606	14282
918.717	14210
918.828	14389
918.939	14317
919.05	14256
919.161	14267
919.272	14111
919.383	14043
919.494	14412
919.604	14507
919.715	14358
919.826	14134
919.936	14210
920.047	14309
920.157	14244
920.267	14473
920.378	14267
920.488	14244
920.598	14366
920.708	14667
920.818	14336
920.928	14408
921.038	14568
921.148	14503
921.258	14244
921.368	14138
921.477	14050
921.587	13902
921.697	13898
921.806	13936
921.916	13898
922.025	13693
922.134	13582
922.244	13445
922.353	13731
922.462	13601
922.571	13476
922.68	13354
922.789	13324
922.898	13358
923.007	13232
923.116	13384
923.224	13301
923.333	13285
923.442	13221
923.55	13221
923.659	13202
923.767	13209
923.876	13076
923.984	13091
924.092	13050
924.201	13091
924.309	13133
924.417	13031
924.525	13015
924.633	12943
924.741	13898
924.849	12817
924.956	12920
925.064	12859
925.172	12681
925.279	12677
925.387	12654
925.494	12662
925.602	12810
925.709	12741
925.816	12654
925.924	12627
926.031	12783
926.138	12696
926.245	12722
926.352	12623
926.459	12700
926.566	12745
926.673	12566
926.779	12452
926.886	12479
926.993	12292
927.099	12323
927.206	12292
927.312	12289
927.419	12319
927.525	12285
927.631	12239
927.737	12201
927.843	12121
927.95	12098
928.056	12060
928.162	12117
928.267	12159
928.373	12768
928.479	12186
928.585	11912
928.69	12121
928.796	12083
928.901	12038
929.007	11866
929.112	11969
929.218	11992
929.323	11908
929.428	11931
929.533	11954
929.638	11798
929.743	11771
929.848	11843
929.953	11718
930.058	11634
930.163	11577
930.267	11486
930.372	11710
930.477	11486
930.581	11748
930.685	11573
930.79	11444
930.894	11429
930.998	11414
931.103	11600
931.207	11151
931.311	11083
931.415	11010
931.519	10748
931.623	10889
