Data from test_V78500241_677.txt Node
Date: Fri Mar 25 15:14:34 CST 2022
User: usil
Spectrometer: V785-0024
Trigger mode: 0
Integration Time (sec): 4.000000E-1
Scans to average: 1
Nonlinearity correction enabled: false
Boxcar width: 0
Storing dark spectrum: false
XAxis mode: Wavelengths
Number of Pixels in Spectrum: 1024
>>>>>Begin Spectral Data<<<<<
801.071	27953
801.214	27941
801.356	27747
801.499	27774
801.641	27561
801.783	27507
801.926	27625
802.068	27576
802.211	27576
802.353	27488
802.496	27264
802.638	27157
802.78	27329
802.923	27165
803.065	27195
803.208	27374
803.35	27306
803.492	27359
803.635	27401
803.777	27382
803.919	27447
804.061	27709
804.204	27363
804.346	27416
804.488	27195
804.63	27466
804.773	27401
804.915	27485
805.057	27542
805.199	27344
805.341	27591
805.483	27504
805.626	27557
805.768	27344
805.91	27576
806.052	27591
806.194	27427
806.336	27800
806.478	27682
806.62	27523
806.762	27747
806.904	27800
807.046	28040
807.188	27812
807.33	27934
807.472	28017
807.614	27907
807.756	27922
807.898	27911
808.04	27804
808.182	27835
808.324	27888
808.465	27945
808.607	28139
808.749	28063
808.891	28219
809.033	28325
809.174	28322
809.316	28291
809.458	28421
809.6	28348
809.741	28337
809.883	28344
810.025	28679
810.166	28504
810.308	28531
810.45	28527
810.591	28322
810.733	28333
810.875	28257
811.016	28147
811.158	28272
811.299	28379
811.441	28512
811.582	28356
811.724	28166
811.865	28154
812.007	28173
812.148	28280
812.29	28257
812.431	28550
812.573	28485
812.714	28824
812.855	28782
812.997	28877
813.138	29003
813.279	29029
813.421	28801
813.562	28759
813.703	28565
813.845	28557
813.986	28268
814.127	28013
814.268	27987
814.41	28063
814.551	28017
814.692	28051
814.833	27960
814.974	27960
815.115	28078
815.256	27766
815.397	27766
815.539	27994
815.68	27800
815.821	27641
815.962	27766
816.103	27709
816.244	27580
816.385	27523
816.526	27443
816.666	27294
816.807	27275
816.948	27275
817.089	27454
817.23	27321
817.371	27268
817.512	27241
817.653	27260
817.793	27222
817.934	27161
818.075	27386
818.216	27389
818.356	27260
818.497	27157
818.638	26971
818.778	26986
818.919	27017
819.06	27039
819.2	27039
819.341	27252
819.481	27351
819.622	27420
819.762	27496
819.903	27351
820.043	27382
820.184	27370
820.324	27401
820.465	27332
820.605	27348
820.746	27416
820.886	27420
821.026	27332
821.167	27294
821.307	27393
821.447	27272
821.588	27332
821.728	26925
821.868	26746
822.008	26796
822.149	26777
822.289	26705
822.429	26457
822.569	26526
822.709	26408
822.849	26301
822.99	26214
823.13	26161
823.27	26153
823.41	26168
823.55	25875
823.69	26001
823.83	25970
823.97	26024
824.11	25864
824.25	25925
824.389	25868
824.529	25906
824.669	25841
824.809	26054
824.949	25963
825.089	25963
825.228	25989
825.368	25655
825.508	25826
825.648	25795
825.787	25696
825.927	25723
826.067	25655
826.206	25491
826.346	25818
826.485	25875
826.625	25647
826.765	25753
826.904	25753
827.044	25552
827.183	25563
827.323	25384
827.462	25624
827.601	25381
827.741	25438
827.88	25548
828.02	25327
828.159	25445
828.298	25544
828.437	25639
828.577	25358
828.716	25651
828.855	25415
828.994	25213
829.134	25213
829.273	25187
829.412	25145
829.551	25217
829.69	25228
829.829	25141
829.968	25228
830.107	25354
830.246	25133
830.385	25103
830.524	24981
830.663	25008
830.802	24943
830.941	24871
831.08	24764
831.219	24844
831.357	24897
831.496	25061
831.635	24840
831.774	24688
831.913	24703
832.051	24787
832.19	24517
832.329	24589
832.467	24505
832.606	24521
832.744	24517
832.883	24441
833.022	24304
833.16	24498
833.299	24574
833.437	24608
833.576	24555
833.714	24574
833.852	24536
833.991	24509
834.129	24684
834.267	24517
834.406	24582
834.544	24654
834.682	24544
834.821	24654
834.959	24806
835.097	24426
835.235	24623
835.373	24547
835.511	24509
835.65	24452
835.788	24365
835.926	24228
836.064	24254
836.202	24350
836.34	24509
836.478	24369
836.615	24452
836.753	24525
836.891	24452
837.029	24357
837.167	24300
837.305	24315
837.443	24254
837.58	24224
837.718	24296
837.856	24235
837.993	24171
838.131	24136
838.269	24163
838.406	24015
838.544	23984
838.681	23923
838.819	23863
838.956	23634
839.094	23714
839.231	23661
839.369	23901
839.506	24007
839.643	23931
839.781	23703
839.918	23638
840.055	23672
840.193	23714
840.33	23657
840.467	23493
840.604	23558
840.742	23843
840.879	23448
841.016	23509
841.153	23543
841.29	23581
841.427	23604
841.564	23577
841.701	23752
841.838	23497
841.975	23535
842.112	23505
842.249	23311
842.385	23376
842.522	23531
842.659	23455
842.796	23395
842.933	23341
843.069	23231
843.206	23246
843.343	23402
843.479	23440
843.616	23296
843.752	23174
843.889	23102
844.025	23216
844.162	23113
844.298	23231
844.435	23010
844.571	23166
844.708	23231
844.844	23372
844.98	23239
845.117	23315
845.253	23151
845.389	23109
845.525	23052
845.661	22930
845.798	22900
845.934	22892
846.07	22828
846.206	22904
846.342	23048
846.478	22946
846.614	22565
846.75	22550
846.886	22599
847.022	22679
847.158	22599
847.294	22694
847.429	22599
847.565	22546
847.701	22797
847.837	22360
847.972	22268
848.108	22462
848.244	22379
848.379	22147
848.515	22169
848.65	22090
848.786	22333
848.921	22162
849.057	22272
849.192	22169
849.328	22105
849.463	22242
849.598	22139
849.734	22074
849.869	21884
850.004	21960
850.14	22078
850.275	21903
850.41	21838
850.545	21865
850.68	21895
850.815	21994
850.95	21895
851.085	22010
851.22	22044
851.355	21968
851.49	22044
851.625	21781
851.76	21899
851.895	21888
852.03	21850
852.165	21934
852.299	22013
852.434	22082
852.569	21968
852.703	21880
852.838	21960
852.973	22021
853.107	22070
853.242	21876
853.376	21732
853.511	21686
853.645	21804
853.78	21869
853.914	21869
854.048	21743
854.183	21709
854.317	21766
854.451	21964
854.585	21766
854.72	21698
854.854	21869
854.988	21690
855.122	21861
855.256	21591
855.39	21800
855.524	21789
855.658	21804
855.792	21766
855.926	21770
856.06	21789
856.194	21770
856.327	21614
856.461	21808
856.595	21576
856.729	21827
856.862	21800
856.996	21701
857.13	21838
857.263	21895
857.397	21907
857.53	21774
857.664	21785
857.797	21728
857.931	21789
858.064	21800
858.197	21842
858.331	21751
858.464	21637
858.597	21629
858.731	21762
858.864	21682
858.997	21717
859.13	21656
859.263	21736
859.396	21766
859.529	21648
859.662	21717
859.795	21762
859.928	21728
860.061	21907
860.194	21869
860.327	21789
860.46	21778
860.592	21831
860.725	21915
860.858	21797
860.99	21762
861.123	21618
861.256	21736
861.388	21774
861.521	22546
861.653	21606
861.786	21641
861.918	21656
862.05	21618
862.183	21667
862.315	21671
862.447	21713
862.58	21580
862.712	21424
862.844	21454
862.976	21466
863.108	21507
863.24	21797
863.372	21462
863.504	21485
863.636	21424
863.768	21473
863.9	21408
864.032	21272
864.164	21393
864.296	21389
864.428	21466
864.559	21500
864.691	21530
864.823	21576
864.954	21439
865.086	21382
865.217	21351
865.349	21256
865.48	21386
865.612	21359
865.743	21439
865.875	21287
866.006	21260
866.137	21306
866.269	21412
866.4	21294
866.531	21154
866.662	21207
866.793	21313
866.924	21275
867.055	21306
867.186	21359
867.317	21176
867.448	21146
867.579	21173
867.71	21188
867.841	21260
867.972	21317
868.103	21351
868.233	21252
868.364	21188
868.495	21302
868.625	21553
868.756	21618
868.886	21458
869.017	21526
869.147	21538
869.278	21663
869.408	21469
869.539	21610
869.669	21553
869.799	21633
869.929	21739
870.06	21568
870.19	21675
870.32	21930
870.45	21713
870.58	21888
870.71	21926
870.84	21915
870.97	21869
871.1	21926
871.23	21945
871.36	22070
871.489	22002
871.619	21998
871.749	22154
871.879	22120
872.008	22223
872.138	22124
872.267	22070
872.397	21975
872.526	21949
872.656	21918
872.785	21994
872.915	22128
873.044	22230
873.173	22230
873.303	22188
873.432	22185
873.561	22120
873.69	22204
873.819	22143
873.948	22242
874.077	22074
874.206	21956
874.335	22059
874.464	22246
874.593	22394
874.722	22318
874.851	22379
874.979	22367
875.108	22409
875.237	22333
875.365	22169
875.494	22382
875.623	22268
875.751	22166
875.88	22405
876.008	22500
876.136	22493
876.265	22630
876.393	22850
876.521	22786
876.65	22828
876.778	22694
876.906	22615
877.034	22725
877.162	22847
877.29	22740
877.418	22637
877.546	22725
877.674	22729
877.802	22687
877.93	22599
878.058	22592
878.185	22615
878.313	22607
878.441	22546
878.568	22474
878.696	22649
878.824	22797
878.951	22805
879.079	22812
879.206	22999
879.333	22828
879.461	22858
879.588	22721
879.715	22816
879.842	22911
879.97	22812
880.097	22535
880.224	22497
880.351	22580
880.478	22512
880.605	22405
880.732	22519
880.859	22668
880.986	22478
881.112	22493
881.239	22306
881.366	22265
881.493	22215
881.619	22048
881.746	22070
881.872	22185
881.999	22109
882.125	21968
882.252	22063
882.378	22029
882.505	22093
882.631	21808
882.757	21808
882.883	21797
883.01	21694
883.136	21663
883.262	21553
883.388	21618
883.514	21808
883.64	21770
883.766	21759
883.892	21526
884.018	21614
884.143	21686
884.269	21713
884.395	21515
884.52	21355
884.646	21420
884.772	21298
884.897	21454
885.023	21428
885.148	21401
885.274	21599
885.399	21538
885.524	21454
885.65	21488
885.775	21431
885.9	21389
886.025	21564
886.15	21553
886.275	21310
886.4	21310
886.525	21241
886.65	21325
886.775	21294
886.9	21443
887.025	21572
887.149	21401
887.274	21302
887.399	21211
887.523	21313
887.648	21138
887.773	21096
887.897	21180
888.021	21112
888.146	21119
888.27	21237
888.395	21245
888.519	21047
888.643	21199
888.767	21116
888.891	21112
889.015	20880
889.139	21051
889.263	20944
889.387	21154
889.511	21260
889.635	21131
889.759	20956
889.883	20891
890.006	20941
890.13	20960
890.254	20876
890.377	20876
890.501	20769
890.624	20701
890.748	20708
890.871	20663
890.995	20571
891.118	20499
891.241	20541
891.364	20507
891.488	20640
891.611	20507
891.734	20442
891.857	20632
891.98	20503
892.103	20571
892.226	20450
892.349	20530
892.471	20370
892.594	20495
892.717	20492
892.839	20415
892.962	20552
893.085	20465
893.207	20374
893.33	20358
893.452	20313
893.575	20503
893.697	20370
893.819	20575
893.941	20735
894.064	20518
894.186	20278
894.308	20286
894.43	20438
894.552	20492
894.674	20545
894.796	20298
894.918	20404
895.04	20366
895.161	20522
895.283	20514
895.405	20145
895.526	20336
895.648	20389
895.769	20427
895.891	20465
896.012	20469
896.134	20457
896.255	20450
896.376	20385
896.498	20438
896.619	20446
896.74	20377
896.861	20377
896.982	20625
897.103	20864
897.224	20686
897.345	20545
897.466	20568
897.587	20579
897.708	20716
897.828	20537
897.949	20488
898.07	20351
898.19	20571
898.311	20648
898.431	20488
898.552	20571
898.672	20522
898.792	20705
898.913	20571
899.033	20438
899.153	20480
899.273	20317
899.393	20457
899.513	20389
899.633	20358
899.753	20393
899.873	20309
899.993	20366
900.113	20267
900.232	20309
900.352	20263
900.472	20210
900.591	20100
900.711	20077
900.83	20145
900.95	20317
901.069	20130
901.189	19955
901.308	19852
901.427	19666
901.546	19738
901.665	19799
901.784	19780
901.904	19548
902.023	19567
902.141	19358
902.26	19266
902.379	19346
902.498	19228
902.617	19164
902.735	19206
902.854	19103
902.973	19217
903.091	18943
903.21	18844
903.328	18837
903.446	18795
903.565	18642
903.683	18700
903.801	18760
903.919	18635
904.038	18658
904.156	18528
904.274	18486
904.392	18410
904.51	18433
904.627	18342
904.745	18528
904.863	18547
904.981	18391
905.098	18194
905.216	18087
905.334	18232
905.451	18254
905.569	18171
905.686	18228
905.803	18209
905.921	17916
906.038	18095
906.155	17874
906.272	17802
906.389	17824
906.506	17699
906.623	17775
906.74	17566
906.857	17581
906.974	17627
907.091	17786
907.208	17783
907.324	17718
907.441	17646
907.557	17406
907.674	17417
907.79	17280
907.907	17467
908.023	17433
908.139	17417
908.256	17395
908.372	17265
908.488	17269
908.604	17280
908.72	17075
908.836	17155
908.952	17094
909.068	17117
909.184	17105
909.3	17140
909.415	17025
909.531	17083
909.647	16885
909.762	16816
909.878	16862
909.993	16820
910.108	16820
910.224	16767
910.339	16755
910.454	16763
910.57	16634
910.685	16577
910.8	16805
910.915	16812
911.03	16645
911.145	16489
911.259	16390
911.374	16375
911.489	16382
911.604	16341
911.718	16101
911.833	16185
911.947	16071
912.062	15934
912.176	16200
912.291	16166
912.405	16169
912.519	16268
912.633	16318
912.748	16246
912.862	16204
912.976	16067
913.09	15861
913.204	15926
913.318	15945
913.431	15975
913.545	15987
913.659	16086
913.772	15934
913.886	15736
914	15793
914.113	15873
914.226	15918
914.34	15755
914.453	15728
914.566	15846
914.68	15747
914.793	15576
914.906	15473
915.019	15473
915.132	15260
915.245	15359
915.358	15408
915.47	15370
915.583	15382
915.696	15374
915.809	15511
915.921	15389
916.034	15405
916.146	15214
916.259	15214
916.371	15355
916.483	15408
916.595	15150
916.708	15237
916.82	15249
916.932	15116
917.044	15131
917.156	15108
917.268	15135
917.38	15154
917.491	15032
917.603	15074
917.715	15051
917.826	15135
917.938	14948
918.049	14895
918.161	14952
918.272	15055
918.384	15028
918.495	15032
918.606	14804
918.717	14659
918.828	14800
918.939	14887
919.05	14632
919.161	14758
919.272	14556
919.383	14552
919.494	14883
919.604	14933
919.715	14842
919.826	14697
919.936	14682
920.047	14758
920.157	14720
920.267	14941
920.378	14701
920.488	14724
920.598	14937
920.708	14960
920.818	14819
920.928	14819
921.038	15081
921.148	14979
921.258	14640
921.368	14522
921.477	14514
921.587	14415
921.697	14339
921.806	14446
921.916	14328
922.025	14176
922.134	14157
922.244	14058
922.353	14100
922.462	14027
922.571	13890
922.68	13818
922.789	13791
922.898	13776
923.007	13636
923.116	13765
923.224	13670
923.333	13776
923.442	13567
923.55	13613
923.659	13605
923.767	13582
923.876	13567
923.984	13548
924.092	13525
924.201	13506
924.309	13415
924.417	13403
924.525	13400
924.633	13377
924.741	14168
924.849	13278
924.956	13312
925.064	13137
925.172	13076
925.279	13129
925.387	13217
925.494	13129
925.602	13358
925.709	13190
925.816	13034
925.924	13099
926.031	13107
926.138	13145
926.245	13156
926.352	12932
926.459	13175
926.566	13183
926.673	13114
926.779	12962
926.886	12943
926.993	12711
927.099	12779
927.206	12711
927.312	12582
927.419	12791
927.525	12684
927.631	12719
927.737	12616
927.843	12490
927.95	12479
928.056	12437
928.162	12574
928.267	12582
928.373	13263
928.479	12570
928.585	12395
928.69	12464
928.796	12506
928.901	12384
929.007	12235
929.112	12395
929.218	12315
929.323	12319
929.428	12289
929.533	12350
929.638	12201
929.743	12201
929.848	12155
929.953	12243
930.058	12114
930.163	12049
930.267	11954
930.372	12057
930.477	11999
930.581	12133
930.685	11927
930.79	11847
930.894	11874
930.998	11775
931.103	11973
931.207	11642
931.311	11452
931.415	11379
931.519	11296
931.623	11086
