Data from test_V78500241_2852.txt Node
Date: Fri Mar 25 15:29:43 CST 2022
User: usil
Spectrometer: V785-0024
Trigger mode: 0
Integration Time (sec): 4.000000E-1
Scans to average: 1
Nonlinearity correction enabled: false
Boxcar width: 0
Storing dark spectrum: false
XAxis mode: Wavelengths
Number of Pixels in Spectrum: 1024
>>>>>Begin Spectral Data<<<<<
801.071	27298
801.214	27173
801.356	27062
801.499	27001
801.641	26731
801.783	26750
801.926	26804
802.068	26849
802.211	26807
802.353	26644
802.496	26518
802.638	26465
802.78	26347
802.923	26480
803.065	26267
803.208	26370
803.35	26499
803.492	26480
803.635	26720
803.777	26438
803.919	26644
804.061	26963
804.204	26701
804.346	26549
804.488	26667
804.63	26613
804.773	26590
804.915	26583
805.057	26708
805.199	26552
805.341	26640
805.483	26701
805.626	26769
805.768	26773
805.91	26701
806.052	26667
806.194	26609
806.336	26819
806.478	26762
806.62	26667
806.762	26861
806.904	26937
807.046	27207
807.188	27074
807.33	27237
807.472	27131
807.614	26979
807.756	27074
807.898	26853
808.04	26929
808.182	26796
808.324	27009
808.465	26990
808.607	27165
808.749	27302
808.891	27435
809.033	27382
809.174	27386
809.316	27367
809.458	27348
809.6	27260
809.741	27481
809.883	27511
810.025	27675
810.166	27515
810.308	27652
810.45	27492
810.591	27663
810.733	27393
810.875	27176
811.016	27131
811.158	27302
811.299	27329
811.441	27458
811.582	27568
811.724	27272
811.865	27397
812.007	27241
812.148	27332
812.29	27348
812.431	27473
812.573	27526
812.714	27728
812.855	27816
812.997	27880
813.138	28067
813.279	27842
813.421	27743
813.562	27667
813.703	27572
813.845	27466
813.986	27252
814.127	27005
814.268	26944
814.41	26933
814.551	27055
814.692	27013
814.833	26910
814.974	26929
815.115	27093
815.256	26853
815.397	26800
815.539	26788
815.68	26625
815.821	26693
815.962	26739
816.103	26857
816.244	26674
816.385	26412
816.526	26415
816.666	26415
816.807	26195
816.948	26317
817.089	26301
817.23	26244
817.371	26153
817.512	26377
817.653	26157
817.793	26126
817.934	26183
818.075	26168
818.216	26271
818.356	26126
818.497	26027
818.638	25917
818.778	26031
818.919	25989
819.06	26058
819.2	26035
819.341	26309
819.481	26202
819.622	26385
819.762	26651
819.903	26362
820.043	26415
820.184	26465
820.324	26237
820.465	26381
820.605	26324
820.746	26385
820.886	26218
821.026	26328
821.167	26199
821.307	26256
821.447	26229
821.588	26244
821.728	26035
821.868	25864
822.008	25738
822.149	25708
822.289	25715
822.429	25400
822.569	25293
822.709	25419
822.849	25236
822.99	25213
823.13	25103
823.27	25156
823.41	25046
823.55	25050
823.69	24943
823.83	25012
823.97	24951
824.11	24688
824.25	24856
824.389	24779
824.529	25000
824.669	24935
824.809	24905
824.949	24863
825.089	24844
825.228	24905
825.368	24646
825.508	24684
825.648	24700
825.787	24650
825.927	24738
826.067	24585
826.206	24722
826.346	24852
826.485	24688
826.625	24703
826.765	24783
826.904	24776
827.044	24578
827.183	24479
827.323	24391
827.462	24445
827.601	24285
827.741	24399
827.88	24357
828.02	24300
828.159	24410
828.298	24346
828.437	24407
828.577	24251
828.716	24422
828.855	24235
828.994	24213
829.134	24022
829.273	24194
829.412	24011
829.551	24038
829.69	24136
829.829	24121
829.968	24159
830.107	24182
830.246	24155
830.385	24041
830.524	23984
830.663	23904
830.802	23840
830.941	23665
831.08	23684
831.219	23733
831.357	23775
831.496	23988
831.635	23729
831.774	23592
831.913	23520
832.051	23440
832.19	23436
832.329	23570
832.467	23337
832.606	23334
832.744	23292
832.883	23337
833.022	23284
833.16	23398
833.299	23429
833.437	23315
833.576	23452
833.714	23402
833.852	23376
833.991	23551
834.129	23604
834.267	23566
834.406	23372
834.544	23398
834.682	23493
834.821	23417
834.959	23573
835.097	23269
835.235	23543
835.373	23452
835.511	23421
835.65	23284
835.788	23231
835.926	23254
836.064	23185
836.202	23174
836.34	23353
836.478	23261
836.615	23216
836.753	23231
836.891	23387
837.029	23151
837.167	23200
837.305	23151
837.443	23128
837.58	23037
837.718	23117
837.856	23079
837.993	23121
838.131	23067
838.269	23037
838.406	23025
838.544	23014
838.681	22797
838.819	22725
838.956	22664
839.094	22660
839.231	22725
839.369	22630
839.506	23052
839.643	22873
839.781	22596
839.918	22592
840.055	22634
840.193	22531
840.33	22337
840.467	22523
840.604	22573
840.742	22752
840.879	22402
841.016	22497
841.153	22443
841.29	22710
841.427	22516
841.564	22485
841.701	22554
841.838	22455
841.975	22500
842.112	22398
842.249	22421
842.385	22303
842.522	22382
842.659	22261
842.796	22314
842.933	22238
843.069	22158
843.206	22257
843.343	22344
843.479	22211
843.616	22223
843.752	21998
843.889	22013
844.025	22120
844.162	22059
844.298	22021
844.435	22013
844.571	21911
844.708	22150
844.844	22196
844.98	22230
845.117	22109
845.253	22013
845.389	21873
845.525	21819
845.661	21873
845.798	21819
845.934	21793
846.07	21770
846.206	21800
846.342	21861
846.478	21663
846.614	21564
846.75	21507
846.886	21492
847.022	21549
847.158	21557
847.294	21492
847.429	21618
847.565	21526
847.701	21709
847.837	21222
847.972	21135
848.108	21370
848.244	21344
848.379	21077
848.515	21169
848.65	21233
848.786	21188
848.921	21142
849.057	21180
849.192	21230
849.328	21123
849.463	21154
849.598	21138
849.734	20990
849.869	20967
850.004	20872
850.14	20819
850.275	20960
850.41	20853
850.545	20777
850.68	20853
850.815	20952
850.95	20777
851.085	21081
851.22	21024
851.355	20952
851.49	20918
851.625	20739
851.76	20887
851.895	20849
852.03	20830
852.165	20944
852.299	20853
852.434	20937
852.569	20830
852.703	20899
852.838	20944
852.973	21013
853.107	20963
853.242	20868
853.376	20773
853.511	20495
853.645	20621
853.78	20792
853.914	20697
854.048	20541
854.183	20712
854.317	20811
854.451	20906
854.585	20674
854.72	20765
854.854	20739
854.988	20606
855.122	20731
855.256	20556
855.39	20640
855.524	20769
855.658	20750
855.792	20598
855.926	20830
856.06	20807
856.194	20769
856.327	20735
856.461	20568
856.595	20625
856.729	20682
856.862	20788
856.996	20807
857.13	20689
857.263	20689
857.397	20708
857.53	20663
857.664	20743
857.797	20727
857.931	20750
858.064	20689
858.197	20693
858.331	20609
858.464	20621
858.597	20541
858.731	20617
858.864	20602
858.997	20663
859.13	20667
859.263	20701
859.396	20743
859.529	20636
859.662	20659
859.795	20587
859.928	20762
860.061	20876
860.194	20788
860.327	20788
860.46	20651
860.592	20872
860.725	20933
860.858	20762
860.99	20659
861.123	20651
861.256	20545
861.388	20701
861.521	21397
861.653	20609
861.786	20366
861.918	20484
862.05	20549
862.183	20583
862.315	20613
862.447	20632
862.58	20598
862.712	20408
862.844	20396
862.976	20423
863.108	20454
863.24	20925
863.372	20438
863.504	20400
863.636	20377
863.768	20450
863.9	20476
864.032	20370
864.164	20313
864.296	20442
864.428	20495
864.559	20522
864.691	20434
864.823	20396
864.954	20187
865.086	20309
865.217	20377
865.349	20237
865.48	20271
865.612	20309
865.743	20408
865.875	20332
866.006	20233
866.137	20389
866.269	20263
866.4	20278
866.531	20233
866.662	20176
866.793	20176
866.924	20183
867.055	20263
867.186	20233
867.317	20233
867.448	20035
867.579	20313
867.71	20195
867.841	20218
867.972	20332
868.103	20218
868.233	20210
868.364	20324
868.495	20400
868.625	20514
868.756	20579
868.886	20514
869.017	20427
869.147	20655
869.278	20636
869.408	20450
869.539	20484
869.669	20609
869.799	20480
869.929	20587
870.06	20598
870.19	20743
870.32	20765
870.45	20883
870.58	20861
870.71	21119
870.84	21024
870.97	20842
871.1	20998
871.23	21116
871.36	20963
871.489	21001
871.619	21116
871.749	20998
871.879	21184
872.008	21146
872.138	21119
872.267	21024
872.397	20960
872.526	20899
872.656	20838
872.785	20963
872.915	20967
873.044	21230
873.173	21211
873.303	21192
873.432	21036
873.561	21313
873.69	21138
873.819	21188
873.948	21150
874.077	21226
874.206	21032
874.335	21001
874.464	21214
874.593	21447
874.722	21272
874.851	21439
874.979	21275
875.108	21450
875.237	21245
875.365	21119
875.494	21431
875.623	21389
875.751	21275
875.88	21363
876.008	21488
876.136	21458
876.265	21644
876.393	21892
876.521	21861
876.65	21876
876.778	21800
876.906	21614
877.034	21652
877.162	21759
877.29	21720
877.418	21717
877.546	21755
877.674	21705
877.802	21694
877.93	21599
878.058	21637
878.185	21568
878.313	21728
878.441	21587
878.568	21397
878.696	21599
878.824	21770
878.951	21857
879.079	21884
879.206	22082
879.333	21842
879.461	21747
879.588	21736
879.715	21876
879.842	21964
879.97	21778
880.097	21606
880.224	21667
880.351	21583
880.478	21618
880.605	21450
880.732	21542
880.859	21827
880.986	21519
881.112	21515
881.239	21428
881.366	21393
881.493	21165
881.619	21043
881.746	21135
881.872	21184
881.999	21047
882.125	21001
882.252	21203
882.378	21112
882.505	21161
882.631	20906
882.757	20785
882.883	20883
883.01	20845
883.136	20682
883.262	20648
883.388	20762
883.514	20769
883.64	20811
883.766	20716
883.892	20537
884.018	20541
884.143	20765
884.269	20948
884.395	20560
884.52	20419
884.646	20381
884.772	20351
884.897	20404
885.023	20545
885.148	20632
885.274	20438
885.399	20583
885.524	20495
885.65	20530
885.775	20541
885.9	20476
886.025	20579
886.15	20522
886.275	20377
886.4	20317
886.525	20503
886.65	20313
886.775	20324
886.9	20606
887.025	20693
887.149	20457
887.274	20301
887.399	20244
887.523	20191
887.648	20153
887.773	20107
887.897	20320
888.021	20256
888.146	20111
888.27	20275
888.395	20256
888.519	20301
888.643	20290
888.767	20259
888.891	20191
889.015	20119
889.139	20005
889.263	20065
889.387	20119
889.511	20191
889.635	20149
889.759	19974
889.883	20054
890.006	19928
890.13	20142
890.254	19921
890.377	19932
890.501	19811
890.624	19750
890.748	19849
890.871	19677
890.995	19700
891.118	19582
891.241	19670
891.364	19750
891.488	19837
891.611	19575
891.734	19624
891.857	19693
891.98	19670
892.103	19731
892.226	19674
892.349	19548
892.471	19346
892.594	19460
892.717	19556
892.839	19476
892.962	19567
893.085	19514
893.207	19518
893.33	19518
893.452	19533
893.575	19567
893.697	19552
893.819	19700
893.941	19696
894.064	19696
894.186	19487
894.308	19434
894.43	19757
894.552	19731
894.674	19601
894.796	19567
894.918	19533
895.04	19457
895.161	19639
895.283	19552
895.405	19521
895.526	19597
895.648	19453
895.769	19578
895.891	19544
896.012	19575
896.134	19655
896.255	19464
896.376	19499
896.498	19533
896.619	19616
896.74	19438
896.861	19594
896.982	19883
897.103	20096
897.224	19974
897.345	19799
897.466	19723
897.587	19723
897.708	19845
897.828	19753
897.949	19746
898.07	19525
898.19	19715
898.311	19871
898.431	19693
898.552	19761
898.672	19822
898.792	19803
898.913	19757
899.033	19712
899.153	19567
899.273	19548
899.393	19548
899.513	19582
899.633	19635
899.753	19510
899.873	19552
899.993	19590
900.113	19464
900.232	19571
900.352	19464
900.472	19278
900.591	19426
900.711	19259
900.83	19403
900.95	19400
901.069	19445
901.189	19202
901.308	18985
901.427	18890
901.546	18981
901.665	18989
901.784	18928
901.904	18726
902.023	18639
902.141	18502
902.26	18410
902.379	18502
902.498	18422
902.617	18372
902.735	18616
902.854	18456
902.973	18262
903.091	18133
903.21	18034
903.328	18220
903.446	18015
903.565	17958
903.683	17904
903.801	17748
903.919	17859
904.038	17874
904.156	17672
904.274	17672
904.392	17714
904.51	17665
904.627	17646
904.745	17798
904.863	17733
904.981	17512
905.098	17372
905.216	17356
905.334	17448
905.451	17341
905.569	17349
905.686	17417
905.803	17261
905.921	17197
906.038	17258
906.155	17124
906.272	17071
906.389	17094
906.506	17006
906.623	16934
906.74	16904
906.857	16885
906.974	16927
907.091	16946
907.208	17006
907.324	16923
907.441	16786
907.557	16740
907.674	16622
907.79	16550
907.907	16542
908.023	16641
908.139	16725
908.256	16478
908.372	16637
908.488	16607
908.604	16386
908.72	16299
908.836	16337
908.952	16337
909.068	16310
909.184	16451
909.3	16306
909.415	16386
909.531	16371
909.647	16105
909.762	16021
909.878	16051
909.993	16074
910.108	16006
910.224	15960
910.339	16029
910.454	15865
910.57	15850
910.685	15732
910.8	16059
910.915	16112
911.03	15899
911.145	15701
911.259	15641
911.374	15720
911.489	15663
911.604	15454
911.718	15336
911.833	15435
911.947	15252
912.062	15340
912.176	15473
912.291	15405
912.405	15443
912.519	15656
912.633	15595
912.748	15428
912.862	15386
912.976	15142
913.09	15077
913.204	15161
913.318	15249
913.431	15241
913.545	15306
913.659	15256
913.772	15192
913.886	15150
914	14963
914.113	15135
914.226	15108
914.34	15081
914.453	14963
914.566	15024
914.68	14929
914.793	14891
914.906	14731
915.019	14640
915.132	14537
915.245	14613
915.358	14644
915.47	14579
915.583	14720
915.696	14689
915.809	14765
915.921	14762
916.034	14644
916.146	14518
916.259	14571
916.371	14545
916.483	14594
916.595	14571
916.708	14423
916.82	14492
916.932	14503
917.044	14457
917.156	14400
917.268	14408
917.38	14351
917.491	14252
917.603	14408
917.715	14404
917.826	14336
917.938	14343
918.049	14115
918.161	14237
918.272	14446
918.384	14400
918.495	14317
918.606	14191
918.717	14001
918.828	14088
918.939	14202
919.05	13936
919.161	14035
919.272	13902
919.383	13978
919.494	14259
919.604	14259
919.715	14096
919.826	14020
919.936	13986
920.047	14054
920.157	14134
920.267	14317
920.378	14073
920.488	13959
920.598	14294
920.708	14381
920.818	14221
920.928	14202
921.038	14332
921.148	14324
921.258	14100
921.368	13940
921.477	13757
921.587	13757
921.697	13685
921.806	13837
921.916	13689
922.025	13483
922.134	13468
922.244	13468
922.353	13468
922.462	13346
922.571	13232
922.68	13069
922.789	13126
922.898	13126
923.007	13076
923.116	13149
923.224	13091
923.333	13061
923.442	12970
923.55	12901
923.659	12909
923.767	12977
923.876	12833
923.984	12886
924.092	12833
924.201	12875
924.309	12966
924.417	12791
924.525	12806
924.633	12848
924.741	13689
924.849	12547
924.956	12627
925.064	12528
925.172	12517
925.279	12563
925.387	12551
925.494	12677
925.602	12623
925.709	12658
925.816	12521
925.924	12585
926.031	12566
926.138	12479
926.245	12566
926.352	12372
926.459	12597
926.566	12563
926.673	12445
926.779	12388
926.886	12330
926.993	12068
927.099	12117
927.206	12163
927.312	12053
927.419	12182
927.525	12159
927.631	12175
927.737	12110
927.843	12019
927.95	11840
928.056	12030
928.162	11965
928.267	11996
928.373	12601
928.479	12041
928.585	11805
928.69	11878
928.796	11920
928.901	11786
929.007	11699
929.112	11726
929.218	11817
929.323	11703
929.428	11718
929.533	11855
929.638	11627
929.743	11630
929.848	11703
929.953	11684
930.058	11524
930.163	11349
930.267	11417
930.372	11524
930.477	11474
930.581	11528
930.685	11410
930.79	11277
930.894	11353
930.998	11315
931.103	11402
931.207	10995
931.311	11014
931.415	10858
931.519	10714
931.623	10645
