Data from test_V78500241_825.txt Node
Date: Fri Mar 25 15:15:36 CST 2022
User: usil
Spectrometer: V785-0024
Trigger mode: 0
Integration Time (sec): 4.000000E-1
Scans to average: 1
Nonlinearity correction enabled: false
Boxcar width: 0
Storing dark spectrum: false
XAxis mode: Wavelengths
Number of Pixels in Spectrum: 1024
>>>>>Begin Spectral Data<<<<<
801.071	28352
801.214	28238
801.356	28063
801.499	27823
801.641	27865
801.783	27835
801.926	28044
802.068	27842
802.211	27743
802.353	27755
802.496	27370
802.638	27561
802.78	27614
802.923	27599
803.065	27450
803.208	27583
803.35	27553
803.492	27580
803.635	27698
803.777	27751
803.919	27606
804.061	28086
804.204	27686
804.346	27667
804.488	27694
804.63	27610
804.773	27515
804.915	27747
805.057	27994
805.199	27603
805.341	27857
805.483	27869
805.626	27812
805.768	27542
805.91	27888
806.052	27804
806.194	27827
806.336	28082
806.478	27914
806.62	27861
806.762	28021
806.904	28166
807.046	28382
807.188	28348
807.33	28348
807.472	28280
807.614	28253
807.756	28318
807.898	28287
808.04	28272
808.182	28063
808.324	28093
808.465	28265
808.607	28371
808.749	28542
808.891	28527
809.033	28847
809.174	28577
809.316	28436
809.458	28656
809.6	28554
809.741	28637
809.883	28615
810.025	28820
810.166	28805
810.308	28809
810.45	28843
810.591	28809
810.733	28557
810.875	28622
811.016	28573
811.158	28386
811.299	28622
811.441	28733
811.582	28668
811.724	28615
811.865	28592
812.007	28615
812.148	28504
812.29	28577
812.431	28797
812.573	28809
812.714	29025
812.855	29132
812.997	29136
813.138	29284
813.279	29250
813.421	29094
813.562	29159
813.703	28911
813.845	28706
813.986	28428
814.127	28466
814.268	28280
814.41	28390
814.551	28124
814.692	28322
814.833	28242
814.974	28166
815.115	28185
815.256	28128
815.397	28124
815.539	28109
815.68	28112
815.821	28078
815.962	28246
816.103	27953
816.244	28032
816.385	27911
816.526	27850
816.666	27682
816.807	27542
816.948	27568
817.089	27789
817.23	27637
817.371	27519
817.512	27553
817.653	27477
817.793	27583
817.934	27603
818.075	27709
818.216	27583
818.356	27466
818.497	27519
818.638	27325
818.778	27264
818.919	27355
819.06	27336
819.2	27424
819.341	27610
819.481	27595
819.622	27663
819.762	27876
819.903	27835
820.043	27835
820.184	27705
820.324	27690
820.465	27724
820.605	27774
820.746	27675
820.886	27450
821.026	27606
821.167	27679
821.307	27728
821.447	27625
821.588	27374
821.728	27447
821.868	27264
822.008	27081
822.149	27001
822.289	26982
822.429	26849
822.569	26788
822.709	26735
822.849	26583
822.99	26613
823.13	26556
823.27	26613
823.41	26476
823.55	26381
823.69	26419
823.83	26480
823.97	26415
824.11	26229
824.25	26221
824.389	26119
824.529	26385
824.669	26240
824.809	26358
824.949	26221
825.089	26317
825.228	26263
825.368	26081
825.508	26199
825.648	26092
825.787	26016
825.927	26164
826.067	25970
826.206	26050
826.346	26233
826.485	26183
826.625	26046
826.765	26073
826.904	26107
827.044	25822
827.183	25890
827.323	25856
827.462	25811
827.601	25719
827.741	25677
827.88	25860
828.02	25757
828.159	25978
828.298	25902
828.437	25902
828.577	25807
828.716	25944
828.855	25795
828.994	25495
829.134	25396
829.273	25647
829.412	25457
829.551	25392
829.69	25472
829.829	25601
829.968	25582
830.107	25628
830.246	25643
830.385	25422
830.524	25289
830.663	25274
830.802	25358
830.941	25141
831.08	25057
831.219	25247
831.357	25110
831.496	25381
831.635	25103
831.774	24981
831.913	25015
832.051	25023
832.19	24848
832.329	25038
832.467	24798
832.606	24654
832.744	24722
832.883	24825
833.022	24661
833.16	24848
833.299	24779
833.437	24791
833.576	24913
833.714	24939
833.852	24821
833.991	24935
834.129	24894
834.267	24901
834.406	24738
834.544	24844
834.682	24837
834.821	24802
834.959	25088
835.097	24692
835.235	24882
835.373	24814
835.511	24776
835.65	24776
835.788	24776
835.926	24521
836.064	24574
836.202	24555
836.34	24802
836.478	24741
836.615	24719
836.753	24593
836.891	24768
837.029	24684
837.167	24787
837.305	24627
837.443	24635
837.58	24544
837.718	24688
837.856	24601
837.993	24597
838.131	24486
838.269	24429
838.406	24445
838.544	24266
838.681	24106
838.819	24098
838.956	23984
839.094	24087
839.231	23912
839.369	24091
839.506	24384
839.643	24140
839.781	23999
839.918	23950
840.055	23908
840.193	23805
840.33	23836
840.467	23904
840.604	24003
840.742	24041
840.879	23729
841.016	23855
841.153	23634
841.29	23817
841.427	23828
841.564	23931
841.701	23885
841.838	23817
841.975	23737
842.112	23802
842.249	23657
842.385	23699
842.522	23786
842.659	23531
842.796	23733
842.933	23802
843.069	23577
843.206	23707
843.343	23783
843.479	23653
843.616	23634
843.752	23326
843.889	23402
844.025	23501
844.162	23474
844.298	23493
844.435	23391
844.571	23318
844.708	23509
844.844	23512
844.98	23501
845.117	23429
845.253	23402
845.389	23337
845.525	23216
845.661	23265
845.798	23162
845.934	23178
846.07	23098
846.206	23117
846.342	23273
846.478	23022
846.614	22923
846.75	22889
846.886	22763
847.022	22797
847.158	23010
847.294	22904
847.429	22942
847.565	22892
847.701	23159
847.837	22622
847.972	22683
848.108	22778
848.244	22740
848.379	22542
848.515	22375
848.65	22504
848.786	22409
848.921	22500
849.057	22664
849.192	22538
849.328	22500
849.463	22485
849.598	22523
849.734	22287
849.869	22337
850.004	22402
850.14	22207
850.275	22219
850.41	22154
850.545	22261
850.68	22181
850.815	22230
850.95	22086
851.085	22447
851.22	22268
851.355	22257
851.49	22261
851.625	22147
851.76	22162
851.895	22101
852.03	22185
852.165	22086
852.299	22238
852.434	22234
852.569	22352
852.703	22272
852.838	22276
852.973	22500
853.107	22360
853.242	22074
853.376	21949
853.511	22013
853.645	21979
853.78	22120
853.914	22017
854.048	22002
854.183	22048
854.317	22074
854.451	22333
854.585	22067
854.72	22025
854.854	22162
854.988	22139
855.122	22051
855.256	22010
855.39	22006
855.524	22223
855.658	22059
855.792	22036
855.926	22055
856.06	22158
856.194	22101
856.327	21941
856.461	22010
856.595	22021
856.729	22021
856.862	22090
856.996	22097
857.13	22025
857.263	22204
857.397	22051
857.53	21949
857.664	22200
857.797	22207
857.931	22040
858.064	22002
858.197	22067
858.331	22029
858.464	21941
858.597	21911
858.731	22032
858.864	22101
858.997	21987
859.13	22032
859.263	22131
859.396	22268
859.529	22131
859.662	22025
859.795	21964
859.928	21998
860.061	22158
860.194	22105
860.327	22040
860.46	21953
860.592	22044
860.725	22219
860.858	22181
860.99	22010
861.123	21937
861.256	22051
861.388	22029
861.521	22771
861.653	21918
861.786	21850
861.918	21975
862.05	21972
862.183	22002
862.315	21838
862.447	21941
862.58	22032
862.712	21873
862.844	21671
862.976	21743
863.108	21812
863.24	22158
863.372	21739
863.504	21861
863.636	21679
863.768	21854
863.9	21694
864.032	21686
864.164	21656
864.296	21785
864.428	21819
864.559	21892
864.691	21823
864.823	21804
864.954	21762
865.086	21808
865.217	21694
865.349	21488
865.48	21701
865.612	21648
865.743	21720
865.875	21625
866.006	21568
866.137	21682
866.269	21561
866.4	21606
866.531	21641
866.662	21458
866.793	21564
866.924	21603
867.055	21709
867.186	21496
867.317	21530
867.448	21401
867.579	21625
867.71	21401
867.841	21488
867.972	21507
868.103	21492
868.233	21595
868.364	21610
868.495	21652
868.625	21682
868.756	21739
868.886	21694
869.017	21850
869.147	21918
869.278	21956
869.408	21751
869.539	21789
869.669	21857
869.799	21808
869.929	22010
870.06	21861
870.19	22124
870.32	22120
870.45	22128
870.58	22135
870.71	22280
870.84	22223
870.97	22207
871.1	22238
871.23	22409
871.36	22363
871.489	22276
871.619	22230
871.749	22367
871.879	22462
872.008	22538
872.138	22356
872.267	22333
872.397	22276
872.526	22154
872.656	22238
872.785	22162
872.915	22466
873.044	22417
873.173	22314
873.303	22500
873.432	22508
873.561	22428
873.69	22341
873.819	22485
873.948	22455
874.077	22436
874.206	22280
874.335	22440
874.464	22443
874.593	22626
874.722	22523
874.851	22744
874.979	22691
875.108	22584
875.237	22611
875.365	22584
875.494	22519
875.623	22694
875.751	22516
875.88	22481
876.008	22755
876.136	22702
876.265	22972
876.393	23071
876.521	23094
876.65	23079
876.778	23029
876.906	22908
877.034	22858
877.162	22946
877.29	22892
877.418	22995
877.546	22957
877.674	22927
877.802	22972
877.93	22934
878.058	22900
878.185	22763
878.313	22968
878.441	23037
878.568	22603
878.696	22896
878.824	22972
878.951	23090
879.079	23178
879.206	23128
879.333	23170
879.461	22991
879.588	23143
879.715	23170
879.842	23280
879.97	23044
880.097	22793
880.224	22755
880.351	22809
880.478	22763
880.605	22752
880.732	22698
880.859	23029
880.986	22809
881.112	22866
881.239	22656
881.366	22535
881.493	22417
881.619	22341
881.746	22417
881.872	22455
881.999	22432
882.125	22329
882.252	22394
882.378	22344
882.505	22348
882.631	22158
882.757	22021
882.883	22112
883.01	22029
883.136	22063
883.262	21968
883.388	21876
883.514	22021
883.64	22013
883.766	22074
883.892	21682
884.018	21743
884.143	21895
884.269	22017
884.395	21709
884.52	21690
884.646	21701
884.772	21641
884.897	21625
885.023	21580
885.148	21823
885.274	21781
885.399	21701
885.524	21785
885.65	21618
885.775	21652
885.9	21587
886.025	21793
886.15	21713
886.275	21530
886.4	21622
886.525	21671
886.65	21572
886.775	21523
886.9	21827
887.025	21884
887.149	21618
887.274	21519
887.399	21466
887.523	21439
887.648	21382
887.773	21500
887.897	21462
888.021	21450
888.146	21336
888.27	21576
888.395	21496
888.519	21431
888.643	21454
888.767	21519
888.891	21420
889.015	21272
889.139	21268
889.263	21218
889.387	21264
889.511	21363
889.635	21412
889.759	21108
889.883	21154
890.006	21389
890.13	21401
890.254	21146
890.377	21161
890.501	20853
890.624	20861
890.748	21009
890.871	20899
890.995	20701
891.118	20682
891.241	20823
891.364	20792
891.488	20975
891.611	20868
891.734	20773
891.857	20735
891.98	20754
892.103	20914
892.226	20758
892.349	20674
892.471	20503
892.594	20712
892.717	20659
892.839	20701
892.962	20727
893.085	20727
893.207	20590
893.33	20636
893.452	20727
893.575	20644
893.697	20655
893.819	20842
893.941	20902
894.064	20842
894.186	20530
894.308	20598
894.43	20727
894.552	20727
894.674	20727
894.796	20651
894.918	20636
895.04	20507
895.161	20727
895.283	20807
895.405	20571
895.526	20739
895.648	20644
895.769	20648
895.891	20629
896.012	20735
896.134	20648
896.255	20720
896.376	20552
896.498	20602
896.619	20731
896.74	20712
896.861	20724
896.982	20868
897.103	21081
897.224	20823
897.345	20895
897.466	20788
897.587	20956
897.708	20998
897.828	20868
897.949	20830
898.07	20594
898.19	20826
898.311	20921
898.431	20750
898.552	20796
898.672	20937
898.792	20960
898.913	20765
899.033	20731
899.153	20838
899.273	20549
899.393	20678
899.513	20716
899.633	20648
899.753	20590
899.873	20396
899.993	20594
900.113	20533
900.232	20522
900.352	20465
900.472	20454
900.591	20355
900.711	20457
900.83	20324
900.95	20522
901.069	20469
901.189	20252
901.308	19997
901.427	19967
901.546	19967
901.665	19807
901.784	19944
901.904	19765
902.023	19772
902.141	19544
902.26	19594
902.379	19647
902.498	19594
902.617	19445
902.735	19441
902.854	19476
902.973	19430
903.091	19171
903.21	19114
903.328	19236
903.446	18951
903.565	18913
903.683	18928
903.801	18757
903.919	18802
904.038	18753
904.156	18741
904.274	18707
904.392	18696
904.51	18829
904.627	18559
904.745	18715
904.863	18684
904.981	18490
905.098	18353
905.216	18403
905.334	18407
905.451	18433
905.569	18277
905.686	18361
905.803	18311
905.921	18163
906.038	18235
906.155	18197
906.272	18060
906.389	18030
906.506	17859
906.623	18015
906.74	17878
906.857	17722
906.974	17794
907.091	17931
907.208	17973
907.324	17969
907.441	17775
907.557	17680
907.674	17653
907.79	17558
907.907	17570
908.023	17592
908.139	17745
908.256	17509
908.372	17509
908.488	17501
908.604	17440
908.72	17326
908.836	17288
908.952	17258
909.068	17360
909.184	17292
909.3	17258
909.415	17337
909.531	17254
909.647	17151
909.762	17018
909.878	17083
909.993	16927
910.108	17029
910.224	16984
910.339	16995
910.454	16953
910.57	16934
910.685	16843
910.8	16965
910.915	16892
911.03	16873
911.145	16630
911.259	16497
911.374	16565
911.489	16478
911.604	16455
911.718	16352
911.833	16306
911.947	16223
912.062	16219
912.176	16299
912.291	16306
912.405	16204
912.519	16440
912.633	16519
912.748	16322
912.862	16325
912.976	16196
913.09	16086
913.204	16063
913.318	16196
913.431	16246
913.545	16261
913.659	16249
913.772	16090
913.886	15934
914	15918
914.113	15983
914.226	16097
914.34	15991
914.453	15812
914.566	16036
914.68	15857
914.793	15850
914.906	15660
915.019	15568
915.132	15397
915.245	15545
915.358	15557
915.47	15549
915.583	15561
915.696	15542
915.809	15663
915.921	15652
916.034	15496
916.146	15439
916.259	15363
916.371	15542
916.483	15507
916.595	15408
916.708	15397
916.82	15416
916.932	15283
917.044	15378
917.156	15283
917.268	15097
917.38	15222
917.491	15230
917.603	15192
917.715	15214
917.826	15249
917.938	15135
918.049	14937
918.161	15005
918.272	15203
918.384	15275
918.495	15043
918.606	14944
918.717	14823
918.828	14982
918.939	14971
919.05	14861
919.161	14895
919.272	14785
919.383	14785
919.494	14944
919.604	15104
919.715	14914
919.826	14872
919.936	14883
920.047	15047
920.157	14895
920.267	15085
920.378	14910
920.488	14819
920.598	15024
920.708	15173
920.818	15032
920.928	14990
921.038	15199
921.148	15165
921.258	14804
921.368	14655
921.477	14670
921.587	14579
921.697	14484
921.806	14480
921.916	14499
922.025	14343
922.134	14187
922.244	14195
922.353	14202
922.462	14100
922.571	14100
922.68	13951
922.789	13925
922.898	13898
923.007	13898
923.116	13860
923.224	13841
923.333	13833
923.442	13799
923.55	13795
923.659	13700
923.767	13772
923.876	13651
923.984	13765
924.092	13613
924.201	13681
924.309	13578
924.417	13651
924.525	13556
924.633	13540
924.741	14305
924.849	13350
924.956	13457
925.064	13320
925.172	13289
925.279	13297
925.387	13301
925.494	13228
925.602	13407
925.709	13301
925.816	13141
925.924	13293
926.031	13354
926.138	13206
926.245	13270
926.352	13198
926.459	13308
926.566	13377
926.673	13164
926.779	13122
926.886	12981
926.993	12890
927.099	12875
927.206	12760
927.312	12814
927.419	12928
927.525	12840
927.631	12837
927.737	12707
927.843	12700
927.95	12604
928.056	12681
928.162	12711
928.267	12802
928.373	13282
928.479	12688
928.585	12483
928.69	12578
928.796	12646
928.901	12475
929.007	12365
929.112	12509
929.218	12479
929.323	12357
929.428	12388
929.533	12464
929.638	12292
929.743	12350
929.848	12304
929.953	12292
930.058	12243
930.163	12133
930.267	12133
930.372	12209
930.477	12034
930.581	12247
930.685	12034
930.79	11912
930.894	11920
930.998	11878
931.103	12049
931.207	11703
931.311	11653
931.415	11551
931.519	11315
931.623	11265
