Data from test_V78500241_2586.txt Node
Date: Fri Mar 25 15:27:52 CST 2022
User: usil
Spectrometer: V785-0024
Trigger mode: 0
Integration Time (sec): 4.000000E-1
Scans to average: 1
Nonlinearity correction enabled: false
Boxcar width: 0
Storing dark spectrum: false
XAxis mode: Wavelengths
Number of Pixels in Spectrum: 1024
>>>>>Begin Spectral Data<<<<<
801.071	27161
801.214	26960
801.356	26777
801.499	26670
801.641	26689
801.783	26769
801.926	26705
802.068	26648
802.211	26564
802.353	26697
802.496	26404
802.638	26252
802.78	26366
802.923	26164
803.065	26130
803.208	26183
803.35	26313
803.492	26434
803.635	26488
803.777	26294
803.919	26518
804.061	26838
804.204	26457
804.346	26328
804.488	26419
804.63	26484
804.773	26324
804.915	26336
805.057	26488
805.199	26328
805.341	26347
805.483	26712
805.626	26469
805.768	26256
805.91	26514
806.052	26492
806.194	26556
806.336	26727
806.478	26568
806.62	26480
806.762	26583
806.904	26800
807.046	27005
807.188	26933
807.33	26937
807.472	26929
807.614	26876
807.756	26914
807.898	26667
808.04	26674
808.182	26830
808.324	26796
808.465	26807
808.607	27127
808.749	27199
808.891	27192
809.033	27249
809.174	27150
809.316	27100
809.458	27104
809.6	27020
809.741	27317
809.883	27325
810.025	27275
810.166	27351
810.308	27420
810.45	27447
810.591	27237
810.733	27077
810.875	26967
811.016	27024
811.158	27108
811.299	27237
811.441	27291
811.582	27523
811.724	27024
811.865	27104
812.007	27039
812.148	26963
812.29	27036
812.431	27207
812.573	27412
812.714	27454
812.855	27526
812.997	27656
813.138	27755
813.279	27751
813.421	27682
813.562	27606
813.703	27287
813.845	27127
813.986	26975
814.127	26849
814.268	26708
814.41	26826
814.551	26743
814.692	26815
814.833	26724
814.974	26689
815.115	26815
815.256	26625
815.397	26568
815.539	26724
815.68	26492
815.821	26453
815.962	26522
816.103	26549
816.244	26370
816.385	26225
816.526	26187
816.666	26035
816.807	25970
816.948	26115
817.089	26142
817.23	26027
817.371	26031
817.512	26065
817.653	25894
817.793	25868
817.934	25986
818.075	26111
818.216	25974
818.356	25887
818.497	25712
818.638	25738
818.778	25769
818.919	25830
819.06	25765
819.2	25837
819.341	25963
819.481	25959
819.622	26206
819.762	26317
819.903	26214
820.043	26210
820.184	26187
820.324	26240
820.465	26107
820.605	26084
820.746	26142
820.886	25890
821.026	26027
821.167	26062
821.307	26164
821.447	25993
821.588	25917
821.728	25784
821.868	25594
822.008	25575
822.149	25613
822.289	25453
822.429	25316
822.569	25198
822.709	25255
822.849	25004
822.99	25095
823.13	24989
823.27	24890
823.41	24905
823.55	24711
823.69	24795
823.83	24726
823.97	24642
824.11	24711
824.25	24490
824.389	24681
824.529	24661
824.669	24521
824.809	24829
824.949	24707
825.089	24741
825.228	24639
825.368	24319
825.508	24391
825.648	24475
825.787	24498
825.927	24532
826.067	24502
826.206	24486
826.346	24677
826.485	24502
826.625	24627
826.765	24566
826.904	24570
827.044	24372
827.183	24235
827.323	24270
827.462	24429
827.601	24277
827.741	24178
827.88	24235
828.02	24228
828.159	24285
828.298	24254
828.437	24281
828.577	24213
828.716	24209
828.855	24098
828.994	23885
829.134	23950
829.273	23935
829.412	23916
829.551	23885
829.69	23935
829.829	23897
829.968	24083
830.107	24015
830.246	23961
830.385	23988
830.524	23745
830.663	23824
830.802	23611
830.941	23562
831.08	23562
831.219	23581
831.357	23596
831.496	23824
831.635	23558
831.774	23619
831.913	23395
832.051	23326
832.19	23334
832.329	23223
832.467	23227
832.606	23162
832.744	23178
832.883	23273
833.022	23181
833.16	23159
833.299	23353
833.437	23231
833.576	23330
833.714	23265
833.852	23433
833.991	23395
834.129	23299
834.267	23322
834.406	23299
834.544	23208
834.682	23311
834.821	23383
834.959	23387
835.097	23220
835.235	23345
835.373	23307
835.511	23337
835.65	23200
835.788	23170
835.926	22968
836.064	22946
836.202	23044
836.34	23178
836.478	23178
836.615	23086
836.753	23231
836.891	23337
837.029	23220
837.167	23041
837.305	23124
837.443	23136
837.58	22938
837.718	23170
837.856	23064
837.993	22984
838.131	22942
838.269	22927
838.406	22965
838.544	22965
838.681	22717
838.819	22683
838.956	22523
839.094	22466
839.231	22565
839.369	22668
839.506	22835
839.643	22744
839.781	22485
839.918	22493
840.055	22466
840.193	22546
840.33	22459
840.467	22287
840.604	22432
840.742	22790
840.879	22314
841.016	22314
841.153	22329
841.29	22573
841.427	22417
841.564	22466
841.701	22459
841.838	22440
841.975	22363
842.112	22295
842.249	22249
842.385	22322
842.522	22504
842.659	22337
842.796	22169
842.933	22150
843.069	22177
843.206	22257
843.343	22158
843.479	22242
843.616	22188
843.752	21869
843.889	21998
844.025	22109
844.162	21926
844.298	21964
844.435	21972
844.571	21960
844.708	21956
844.844	22093
844.98	22116
845.117	22147
845.253	21937
845.389	21827
845.525	21865
845.661	21816
845.798	21751
845.934	21732
846.07	21713
846.206	21728
846.342	21842
846.478	21656
846.614	21523
846.75	21401
846.886	21492
847.022	21557
847.158	21507
847.294	21447
847.429	21447
847.565	21412
847.701	21652
847.837	21188
847.972	21169
848.108	21161
848.244	21268
848.379	21070
848.515	21032
848.65	20941
848.786	21013
848.921	20967
849.057	21165
849.192	21142
849.328	21043
849.463	20933
849.598	20918
849.734	20941
849.869	20971
850.004	20804
850.14	20754
850.275	20804
850.41	20636
850.545	20689
850.68	20815
850.815	20834
850.95	20830
851.085	20914
851.22	20845
851.355	20746
851.49	20811
851.625	20785
851.76	20788
851.895	20716
852.03	20781
852.165	20743
852.299	20758
852.434	20952
852.569	20796
852.703	20925
852.838	20781
852.973	20933
853.107	20906
853.242	20708
853.376	20533
853.511	20377
853.645	20549
853.78	20773
853.914	20712
854.048	20541
854.183	20587
854.317	20625
854.451	20750
854.585	20594
854.72	20511
854.854	20636
854.988	20697
855.122	20606
855.256	20461
855.39	20530
855.524	20674
855.658	20583
855.792	20689
855.926	20697
856.06	20644
856.194	20644
856.327	20655
856.461	20568
856.595	20590
856.729	20663
856.862	20781
856.996	20689
857.13	20659
857.263	20724
857.397	20739
857.53	20583
857.664	20625
857.797	20663
857.931	20674
858.064	20716
858.197	20746
858.331	20613
858.464	20644
858.597	20549
858.731	20594
858.864	20533
858.997	20560
859.13	20613
859.263	20716
859.396	20670
859.529	20629
859.662	20560
859.795	20564
859.928	20667
860.061	20712
860.194	20929
860.327	20792
860.46	20571
860.592	20838
860.725	20762
860.858	20762
860.99	20632
861.123	20682
861.256	20545
861.388	20575
861.521	21214
861.653	20564
861.786	20495
861.918	20438
862.05	20549
862.183	20514
862.315	20552
862.447	20511
862.58	20537
862.712	20400
862.844	20404
862.976	20438
863.108	20381
863.24	20788
863.372	20191
863.504	20301
863.636	20347
863.768	20301
863.9	20343
864.032	20305
864.164	20294
864.296	20434
864.428	20419
864.559	20400
864.691	20488
864.823	20377
864.954	20263
865.086	20278
865.217	20298
865.349	20119
865.48	20172
865.612	20301
865.743	20377
865.875	20176
866.006	20096
866.137	20191
866.269	20218
866.4	20199
866.531	20176
866.662	20126
866.793	20172
866.924	20115
867.055	20248
867.186	20210
867.317	20168
867.448	20199
867.579	20187
867.71	20164
867.841	20107
867.972	20313
868.103	20286
868.233	20183
868.364	20187
868.495	20275
868.625	20415
868.756	20602
868.886	20366
869.017	20495
869.147	20537
869.278	20412
869.408	20495
869.539	20511
869.669	20533
869.799	20450
869.929	20511
870.06	20545
870.19	20773
870.32	20724
870.45	20823
870.58	20895
870.71	20868
870.84	20708
870.97	20773
871.1	20765
871.23	21028
871.36	20986
871.489	20982
871.619	20956
871.749	21055
871.879	21089
872.008	21119
872.138	20952
872.267	21081
872.397	20918
872.526	20857
872.656	20868
872.785	20819
872.915	21074
873.044	21077
873.173	21024
873.303	21100
873.432	21165
873.561	21043
873.69	21036
873.819	21047
873.948	21123
874.077	21123
874.206	20986
874.335	21051
874.464	21123
874.593	21344
874.722	21237
874.851	21310
874.979	21241
875.108	21252
875.237	21222
875.365	21252
875.494	21218
875.623	21401
875.751	21237
875.88	21321
876.008	21492
876.136	21443
876.265	21747
876.393	21922
876.521	21759
876.65	21717
876.778	21705
876.906	21652
877.034	21652
877.162	21538
877.29	21557
877.418	21606
877.546	21705
877.674	21633
877.802	21739
877.93	21682
878.058	21515
878.185	21507
878.313	21633
878.441	21515
878.568	21458
878.696	21504
878.824	21595
878.951	21656
879.079	21720
879.206	21884
879.333	21762
879.461	21682
879.588	21797
879.715	21755
879.842	21911
879.97	21667
880.097	21488
880.224	21386
880.351	21583
880.478	21523
880.605	21534
880.732	21408
880.859	21667
880.986	21523
881.112	21549
881.239	21424
881.366	21241
881.493	21135
881.619	21047
881.746	21081
881.872	21036
881.999	20914
882.125	21055
882.252	21017
882.378	21055
882.505	20956
882.631	20986
882.757	20792
882.883	20838
883.01	20735
883.136	20762
883.262	20552
883.388	20541
883.514	20579
883.64	20834
883.766	20617
883.892	20446
884.018	20461
884.143	20750
884.269	20785
884.395	20446
884.52	20343
884.646	20351
884.772	20366
884.897	20328
885.023	20511
885.148	20583
885.274	20514
885.399	20556
885.524	20385
885.65	20461
885.775	20320
885.9	20427
886.025	20476
886.15	20415
886.275	20286
886.4	20233
886.525	20301
886.65	20275
886.775	20313
886.9	20476
887.025	20587
887.149	20324
887.274	20294
887.399	20206
887.523	20130
887.648	20054
887.773	20016
887.897	20191
888.021	20206
888.146	20115
888.27	20362
888.395	20324
888.519	20161
888.643	20199
888.767	20202
888.891	20024
889.015	20100
889.139	20001
889.263	20012
889.387	20115
889.511	20202
889.635	20134
889.759	19875
889.883	19993
890.006	19913
890.13	20187
890.254	19883
890.377	19898
890.501	19753
890.624	19681
890.748	19887
890.871	19704
890.995	19556
891.118	19548
891.241	19590
891.364	19571
891.488	19685
891.611	19662
891.734	19643
891.857	19582
891.98	19655
892.103	19662
892.226	19483
892.349	19464
892.471	19358
892.594	19559
892.717	19438
892.839	19537
892.962	19441
893.085	19495
893.207	19499
893.33	19407
893.452	19419
893.575	19506
893.697	19422
893.819	19578
893.941	19670
894.064	19601
894.186	19445
894.308	19468
894.43	19521
894.552	19635
894.674	19529
894.796	19441
894.918	19594
895.04	19476
895.161	19518
895.283	19514
895.405	19384
895.526	19468
895.648	19365
895.769	19613
895.891	19613
896.012	19521
896.134	19434
896.255	19518
896.376	19487
896.498	19460
896.619	19533
896.74	19548
896.861	19510
896.982	19788
897.103	19925
897.224	19708
897.345	19731
897.466	19597
897.587	19719
897.708	19890
897.828	19784
897.949	19578
898.07	19559
898.19	19700
898.311	19761
898.431	19670
898.552	19715
898.672	19784
898.792	19742
898.913	19757
899.033	19571
899.153	19567
899.273	19480
899.393	19514
899.513	19449
899.633	19601
899.753	19514
899.873	19316
899.993	19529
900.113	19396
900.232	19518
900.352	19422
900.472	19346
900.591	19164
900.711	19316
900.83	19244
900.95	19369
901.069	19187
901.189	19107
901.308	18821
901.427	18859
901.546	18760
901.665	18878
901.784	18833
901.904	18700
902.023	18677
902.141	18369
902.26	18403
902.379	18441
902.498	18304
902.617	18300
902.735	18334
902.854	18376
902.973	18311
903.091	18045
903.21	18083
903.328	17958
903.446	17935
903.565	17798
903.683	17817
903.801	17752
903.919	17809
904.038	17836
904.156	17718
904.274	17775
904.392	17573
904.51	17691
904.627	17539
904.745	17672
904.863	17649
904.981	17463
905.098	17356
905.216	17467
905.334	17345
905.451	17292
905.569	17250
905.686	17326
905.803	17292
905.921	17109
906.038	17128
906.155	17242
906.272	17022
906.389	17025
906.506	16873
906.623	16908
906.74	16782
906.857	16774
906.974	16759
907.091	16991
907.208	17018
907.324	16831
907.441	16820
907.557	16580
907.674	16474
907.79	16443
907.907	16390
908.023	16554
908.139	16626
908.256	16455
908.372	16462
908.488	16466
908.604	16356
908.72	16314
908.836	16329
908.952	16299
909.068	16356
909.184	16386
909.3	16341
909.415	16284
909.531	16352
909.647	16074
909.762	16021
909.878	15892
909.993	16036
910.108	16032
910.224	15998
910.339	15892
910.454	15930
910.57	15850
910.685	15739
910.8	16059
910.915	15945
911.03	15789
911.145	15648
911.259	15698
911.374	15656
911.489	15622
911.604	15477
911.718	15370
911.833	15458
911.947	15393
912.062	15245
912.176	15321
912.291	15462
912.405	15466
912.519	15595
912.633	15652
912.748	15439
912.862	15329
912.976	15222
913.09	15020
913.204	15180
913.318	15203
913.431	15245
913.545	15135
913.659	15230
913.772	15127
913.886	15024
914	14994
914.113	14994
914.226	15036
914.34	15131
914.453	14834
914.566	14941
914.68	15020
914.793	14765
914.906	14693
915.019	14583
915.132	14606
915.245	14530
915.358	14590
915.47	14712
915.583	14575
915.696	14686
915.809	14701
915.921	14743
916.034	14549
916.146	14518
916.259	14560
916.371	14606
916.483	14552
916.595	14412
916.708	14446
916.82	14492
916.932	14465
917.044	14366
917.156	14454
917.268	14256
917.38	14336
917.491	14282
917.603	14240
917.715	14320
917.826	14377
917.938	14313
918.049	14191
918.161	14214
918.272	14317
918.384	14370
918.495	14149
918.606	14035
918.717	14016
918.828	14103
918.939	14069
919.05	13963
919.161	14001
919.272	13757
919.383	13944
919.494	14088
919.604	14168
919.715	13970
919.826	13959
919.936	13940
920.047	14100
920.157	14103
920.267	14107
920.378	13997
920.488	13947
920.598	14145
920.708	14408
920.818	14153
920.928	14126
921.038	14374
921.148	14343
921.258	13894
921.368	13925
921.477	13746
921.587	13769
921.697	13704
921.806	13750
921.916	13563
922.025	13388
922.134	13449
922.244	13392
922.353	13544
922.462	13297
922.571	13244
922.68	13084
922.789	13027
922.898	13114
923.007	12989
923.116	13118
923.224	13076
923.333	13072
923.442	12920
923.55	12954
923.659	12962
923.767	12954
923.876	12886
923.984	13034
924.092	12776
924.201	12878
924.309	12753
924.417	12852
924.525	12711
924.633	12795
924.741	13651
924.849	12639
924.956	12719
925.064	12555
925.172	12551
925.279	12437
925.387	12551
925.494	12551
925.602	12635
925.709	12532
925.816	12456
925.924	12502
926.031	12509
926.138	12422
926.245	12490
926.352	12388
926.459	12441
926.566	12540
926.673	12403
926.779	12315
926.886	12239
926.993	12167
927.099	12114
927.206	12064
927.312	12053
927.419	12194
927.525	12057
927.631	12068
927.737	11942
927.843	11950
927.95	11817
928.056	11874
928.162	11920
928.267	11889
928.373	12570
928.479	12053
928.585	11729
928.69	11893
928.796	11923
928.901	11824
929.007	11649
929.112	11783
929.218	11737
929.323	11718
929.428	11665
929.533	11752
929.638	11585
929.743	11554
929.848	11714
929.953	11562
930.058	11497
930.163	11330
930.267	11383
930.372	11467
930.477	11307
930.581	11619
930.685	11410
930.79	11269
930.894	11288
930.998	11284
931.103	11311
931.207	10987
931.311	10946
931.415	10824
931.519	10706
931.623	10641
