Data from test_V78500241_495.txt Node
Date: Fri Mar 25 15:13:18 CST 2022
User: usil
Spectrometer: V785-0024
Trigger mode: 0
Integration Time (sec): 4.000000E-1
Scans to average: 1
Nonlinearity correction enabled: false
Boxcar width: 0
Storing dark spectrum: false
XAxis mode: Wavelengths
Number of Pixels in Spectrum: 1024
>>>>>Begin Spectral Data<<<<<
801.071	27439
801.214	27458
801.356	27348
801.499	27237
801.641	26994
801.783	27062
801.926	27135
802.068	27013
802.211	26944
802.353	26963
802.496	26899
802.638	26655
802.78	26579
802.923	26575
803.065	26644
803.208	26617
803.35	26750
803.492	26868
803.635	26902
803.777	26842
803.919	26906
804.061	27135
804.204	26861
804.346	26815
804.488	26864
804.63	26929
804.773	26823
804.915	26944
805.057	27055
805.199	26891
805.341	26864
805.483	26944
805.626	26963
805.768	26864
805.91	27032
806.052	27005
806.194	26880
806.336	27180
806.478	27138
806.62	27062
806.762	27176
806.904	27180
807.046	27500
807.188	27336
807.33	27401
807.472	27504
807.614	27336
807.756	27412
807.898	27256
808.04	27294
808.182	27272
808.324	27180
808.465	27154
808.607	27443
808.749	27599
808.891	27572
809.033	27808
809.174	27724
809.316	27629
809.458	27523
809.6	27473
809.741	27743
809.883	27629
810.025	27774
810.166	27816
810.308	27914
810.45	27838
810.591	27743
810.733	27690
810.875	27663
811.016	27382
811.158	27557
811.299	27701
811.441	27778
811.582	27781
811.724	27576
811.865	27481
812.007	27587
812.148	27610
812.29	27637
812.431	27778
812.573	27838
812.714	28067
812.855	28070
812.997	28257
813.138	28417
813.279	28287
813.421	28093
813.562	28173
813.703	28097
813.845	27907
813.986	27507
814.127	27378
814.268	27386
814.41	27165
814.551	27093
814.692	27412
814.833	27268
814.974	27108
815.115	27321
815.256	27112
815.397	27127
815.539	27169
815.68	27154
815.821	26956
815.962	27230
816.103	27123
816.244	26895
816.385	26815
816.526	26773
816.666	26693
816.807	26518
816.948	26625
817.089	26598
817.23	26724
817.371	26686
817.512	26636
817.653	26594
817.793	26533
817.934	26499
818.075	26602
818.216	26583
818.356	26480
818.497	26366
818.638	26248
818.778	26282
818.919	26328
819.06	26339
819.2	26351
819.341	26575
819.481	26511
819.622	26629
819.762	26868
819.903	26819
820.043	26785
820.184	26727
820.324	26625
820.465	26826
820.605	26609
820.746	26549
820.886	26526
821.026	26686
821.167	26602
821.307	26712
821.447	26613
821.588	26655
821.728	26503
821.868	26237
822.008	26149
822.149	25986
822.289	26092
822.429	25890
822.569	25753
822.709	25715
822.849	25658
822.99	25514
823.13	25601
823.27	25582
823.41	25449
823.55	25160
823.69	25324
823.83	25346
823.97	25312
824.11	25118
824.25	25221
824.389	25304
824.529	25236
824.669	25274
824.809	25392
824.949	25331
825.089	25343
825.228	25156
825.368	24867
825.508	25084
825.648	25080
825.787	25206
825.927	25095
826.067	25042
826.206	25053
826.346	25133
826.485	25050
826.625	25103
826.765	25282
826.904	25019
827.044	24878
827.183	24798
827.323	24715
827.462	24757
827.601	24802
827.741	24745
827.88	24745
828.02	24703
828.159	24768
828.298	24749
828.437	24760
828.577	24757
828.716	24859
828.855	24616
828.994	24437
829.134	24498
829.273	24517
829.412	24551
829.551	24547
829.69	24464
829.829	24399
829.968	24639
830.107	24620
830.246	24502
830.385	24483
830.524	24342
830.663	24273
830.802	24133
830.941	24121
831.08	24026
831.219	24045
831.357	24114
831.496	24228
831.635	24011
831.774	23874
831.913	24064
832.051	23901
832.19	23783
832.329	23916
832.467	23722
832.606	23691
832.744	23805
832.883	23824
833.022	23604
833.16	23691
833.299	23786
833.437	23733
833.576	23946
833.714	23851
833.852	23863
833.991	23878
834.129	23904
834.267	23973
834.406	23802
834.544	23733
834.682	23889
834.821	23805
834.959	24057
835.097	23741
835.235	23878
835.373	23745
835.511	23764
835.65	23790
835.788	23718
835.926	23653
836.064	23467
836.202	23615
836.34	23703
836.478	23714
836.615	23581
836.753	23729
836.891	23756
837.029	23737
837.167	23596
837.305	23497
837.443	23649
837.58	23478
837.718	23615
837.856	23573
837.993	23395
838.131	23566
838.269	23379
838.406	23341
838.544	23387
838.681	23200
838.819	23102
838.956	23060
839.094	22953
839.231	23113
839.369	23105
839.506	23341
839.643	23296
839.781	23006
839.918	23014
840.055	23052
840.193	22968
840.33	22923
840.467	23037
840.604	22980
840.742	23166
840.879	22847
841.016	22938
841.153	22809
841.29	23010
841.427	22885
841.564	22862
841.701	22938
841.838	22896
841.975	22927
842.112	22820
842.249	22649
842.385	22668
842.522	22953
842.659	22782
842.796	22618
842.933	22679
843.069	22599
843.206	22656
843.343	22683
843.479	22774
843.616	22679
843.752	22428
843.889	22474
844.025	22679
844.162	22432
844.298	22557
844.435	22550
844.571	22478
844.708	22531
844.844	22599
844.98	22519
845.117	22565
845.253	22390
845.389	22329
845.525	22474
845.661	22447
845.798	22257
845.934	22242
846.07	22147
846.206	22124
846.342	22287
846.478	22238
846.614	22040
846.75	21781
846.886	21884
847.022	21953
847.158	21983
847.294	21953
847.429	21922
847.565	21987
847.701	22158
847.837	21732
847.972	21698
848.108	21656
848.244	21880
848.379	21591
848.515	21523
848.65	21519
848.786	21458
848.921	21599
849.057	21591
849.192	21732
849.328	21534
849.463	21591
849.598	21412
849.734	21511
849.869	21454
850.004	21389
850.14	21260
850.275	21294
850.41	21192
850.545	21233
850.68	21176
850.815	21268
850.95	21294
851.085	21477
851.22	21344
851.355	21412
851.49	21161
851.625	21222
851.76	21272
851.895	21188
852.03	21077
852.165	21287
852.299	21332
852.434	21389
852.569	21389
852.703	21382
852.838	21408
852.973	21507
853.107	21469
853.242	21302
853.376	21096
853.511	21081
853.645	21138
853.78	21241
853.914	21116
854.048	21154
854.183	21127
854.317	21173
854.451	21233
854.585	21043
854.72	21123
854.854	21096
854.988	20979
855.122	21123
855.256	20979
855.39	21032
855.524	21283
855.658	21146
855.792	21043
855.926	21211
856.06	21173
856.194	21230
856.327	21154
856.461	21036
856.595	21142
856.729	21024
856.862	21192
856.996	21195
857.13	21173
857.263	21112
857.397	21195
857.53	21195
857.664	21180
857.797	21173
857.931	21283
858.064	21104
858.197	21157
858.331	21039
858.464	21085
858.597	20960
858.731	21001
858.864	21081
858.997	21085
859.13	21062
859.263	21142
859.396	21233
859.529	21055
859.662	21047
859.795	21108
859.928	21112
860.061	21268
860.194	21176
860.327	21214
860.46	21195
860.592	21279
860.725	21420
860.858	21218
860.99	21165
861.123	21070
861.256	21017
861.388	21112
861.521	21838
861.653	21024
861.786	20918
861.918	20979
862.05	21005
862.183	21089
862.315	21081
862.447	21070
862.58	21123
862.712	20880
862.844	20800
862.976	20785
863.108	20914
863.24	21112
863.372	20800
863.504	20849
863.636	20785
863.768	20872
863.9	20758
864.032	20746
864.164	20823
864.296	20883
864.428	21001
864.559	20918
864.691	20941
864.823	20853
864.954	20785
865.086	20769
865.217	20777
865.349	20743
865.48	20697
865.612	20583
865.743	20864
865.875	20792
866.006	20667
866.137	20716
866.269	20895
866.4	20682
866.531	20617
866.662	20659
866.793	20682
866.924	20731
867.055	20689
867.186	20674
867.317	20670
867.448	20640
867.579	20606
867.71	20590
867.841	20613
867.972	20754
868.103	20640
868.233	20667
868.364	20564
868.495	20705
868.625	20864
868.756	21074
868.886	20899
869.017	21013
869.147	21017
869.278	21093
869.408	20849
869.539	21043
869.669	21017
869.799	20842
869.929	21047
870.06	20960
870.19	21272
870.32	21173
870.45	21306
870.58	21321
870.71	21405
870.84	21443
870.97	21252
871.1	21321
871.23	21447
871.36	21492
871.489	21424
871.619	21412
871.749	21462
871.879	21504
872.008	21561
872.138	21405
872.267	21428
872.397	21374
872.526	21283
872.656	21386
872.785	21325
872.915	21351
873.044	21561
873.173	21587
873.303	21538
873.432	21515
873.561	21583
873.69	21564
873.819	21492
873.948	21587
874.077	21637
874.206	21523
874.335	21599
874.464	21625
874.593	21759
874.722	21682
874.851	21800
874.979	21728
875.108	21838
875.237	21766
875.365	21656
875.494	21747
875.623	21800
875.751	21709
875.88	21797
876.008	21926
876.136	21915
876.265	22169
876.393	22128
876.521	22185
876.65	22265
876.778	22109
876.906	22044
877.034	22188
877.162	21991
877.29	21975
877.418	22143
877.546	22162
877.674	22139
877.802	22063
877.93	22086
878.058	22162
878.185	21968
878.313	22200
878.441	22143
878.568	21953
878.696	22055
878.824	22219
878.951	22215
879.079	22306
879.206	22337
879.333	22287
879.461	22188
879.588	22257
879.715	22284
879.842	22451
879.97	22128
880.097	22021
880.224	21793
880.351	21930
880.478	22025
880.605	21827
880.732	21937
880.859	22177
880.986	21888
881.112	22021
881.239	21766
881.366	21587
881.493	21530
881.619	21504
881.746	21641
881.872	21447
881.999	21393
882.125	21462
882.252	21420
882.378	21416
882.505	21583
882.631	21348
882.757	21279
882.883	21192
883.01	21135
883.136	21127
883.262	21039
883.388	20975
883.514	21203
883.64	21180
883.766	21131
883.892	21036
884.018	21032
884.143	21161
884.269	21131
884.395	20960
884.52	20838
884.646	20929
884.772	20815
884.897	20746
885.023	20853
885.148	20883
885.274	21032
885.399	20975
885.524	20914
885.65	20792
885.775	20849
885.9	20739
886.025	20967
886.15	20883
886.275	20781
886.4	20838
886.525	20773
886.65	20933
886.775	20648
886.9	20800
887.025	20929
887.149	20815
887.274	20640
887.399	20613
887.523	20587
887.648	20636
887.773	20594
887.897	20743
888.021	20617
888.146	20655
888.27	20689
888.395	20655
888.519	20754
888.643	20651
888.767	20640
888.891	20423
889.015	20434
889.139	20511
889.263	20465
889.387	20530
889.511	20526
889.635	20541
889.759	20408
889.883	20438
890.006	20362
890.13	20484
890.254	20385
890.377	20404
890.501	20244
890.624	20062
890.748	20191
890.871	19940
890.995	19982
891.118	19852
891.241	19974
891.364	19967
891.488	20065
891.611	19917
891.734	19921
891.857	19947
891.98	19997
892.103	20031
892.226	20122
892.349	19970
892.471	19715
892.594	19887
892.717	19986
892.839	20035
892.962	19970
893.085	19917
893.207	19917
893.33	19811
893.452	19799
893.575	19906
893.697	19837
893.819	19959
893.941	20050
894.064	19940
894.186	19841
894.308	19753
894.43	19989
894.552	20058
894.674	20020
894.796	19776
894.918	19898
895.04	19894
895.161	19951
895.283	19852
895.405	19772
895.526	19860
895.648	19902
895.769	19852
895.891	19868
896.012	19986
896.134	19940
896.255	19925
896.376	19871
896.498	19860
896.619	19944
896.74	19879
896.861	19936
896.982	20145
897.103	20389
897.224	20218
897.345	20092
897.466	20046
897.587	20035
897.708	20183
897.828	20138
897.949	20043
898.07	19921
898.19	19989
898.311	20187
898.431	20142
898.552	20088
898.672	20240
898.792	20206
898.913	20153
899.033	19989
899.153	19879
899.273	19826
899.393	19814
899.513	19845
899.633	19871
899.753	19890
899.873	19818
899.993	19799
900.113	19689
900.232	19845
900.352	19799
900.472	19651
900.591	19727
900.711	19696
900.83	19552
900.95	19666
901.069	19674
901.189	19556
901.308	19259
901.427	19240
901.546	19301
901.665	19263
901.784	19221
901.904	19099
902.023	19080
902.141	18776
902.26	18734
902.379	18817
902.498	18760
902.617	18707
902.735	18795
902.854	18772
902.973	18612
903.091	18471
903.21	18338
903.328	18426
903.446	18353
903.565	18273
903.683	18281
903.801	18171
903.919	18167
904.038	18152
904.156	17999
904.274	18155
904.392	17958
904.51	17961
904.627	17954
904.745	18057
904.863	18098
904.981	17737
905.098	17646
905.216	17554
905.334	17646
905.451	17676
905.569	17570
905.686	17718
905.803	17687
905.921	17516
906.038	17535
906.155	17425
906.272	17360
906.389	17425
906.506	17337
906.623	17223
906.74	17189
906.857	17083
906.974	17094
907.091	17280
907.208	17296
907.324	17147
907.441	17121
907.557	16946
907.674	17041
907.79	16839
907.907	16934
908.023	16953
908.139	17037
908.256	16801
908.372	16721
908.488	16782
908.604	16668
908.72	16603
908.836	16744
908.952	16645
909.068	16649
909.184	16679
909.3	16679
909.415	16683
909.531	16729
909.647	16523
909.762	16405
909.878	16230
909.993	16310
910.108	16356
910.224	16341
910.339	16390
910.454	16177
910.57	16139
910.685	16082
910.8	16398
910.915	16299
911.03	16230
911.145	16021
911.259	16067
911.374	15911
911.489	15949
911.604	15850
911.718	15694
911.833	15701
911.947	15637
912.062	15538
912.176	15743
912.291	15679
912.405	15679
912.519	15827
912.633	15953
912.748	15720
912.862	15682
912.976	15523
913.09	15469
913.204	15443
913.318	15572
913.431	15606
913.545	15561
913.659	15542
913.772	15431
913.886	15256
914	15348
914.113	15382
914.226	15435
914.34	15454
914.453	15180
914.566	15340
914.68	15272
914.793	15165
914.906	15070
915.019	14933
915.132	14998
915.245	14868
915.358	14982
915.47	14990
915.583	14979
915.696	15024
915.809	14979
915.921	15085
916.034	14815
916.146	14838
916.259	14697
916.371	14899
916.483	14834
916.595	14830
916.708	14727
916.82	14842
916.932	14705
917.044	14792
917.156	14712
917.268	14503
917.38	14571
917.491	14552
917.603	14537
917.715	14663
917.826	14716
917.938	14465
918.049	14457
918.161	14514
918.272	14648
918.384	14644
918.495	14537
918.606	14370
918.717	14298
918.828	14358
918.939	14393
919.05	14339
919.161	14358
919.272	14088
919.383	14161
919.494	14381
919.604	14530
919.715	14290
919.826	14244
919.936	14313
920.047	14347
920.157	14237
920.267	14556
920.378	14347
920.488	14343
920.598	14488
920.708	14651
920.818	14484
920.928	14495
921.038	14686
921.148	14545
921.258	14309
921.368	14206
921.477	14214
921.587	14088
921.697	13894
921.806	14027
921.916	13921
922.025	13727
922.134	13700
922.244	13765
922.353	13803
922.462	13548
922.571	13518
922.68	13415
922.789	13373
922.898	13422
923.007	13251
923.116	13320
923.224	13369
923.333	13327
923.442	13171
923.55	13122
923.659	13251
923.767	13198
923.876	13179
923.984	13194
924.092	13099
924.201	13076
924.309	13156
924.417	13023
924.525	13065
924.633	13076
924.741	13761
924.849	12783
924.956	12985
925.064	12844
925.172	12684
925.279	12745
925.387	12833
925.494	12791
925.602	12894
925.709	12772
925.816	12707
925.924	12810
926.031	12745
926.138	12738
926.245	12722
926.352	12639
926.459	12795
926.566	12821
926.673	12745
926.779	12460
926.886	12525
926.993	12422
927.099	12369
927.206	12429
927.312	12304
927.419	12357
927.525	12327
927.631	12311
927.737	12216
927.843	12201
927.95	12136
928.056	12201
928.162	12148
928.267	12182
928.373	12764
928.479	12247
928.585	12083
928.69	12144
928.796	12155
928.901	12125
929.007	11920
929.112	12011
929.218	11942
929.323	11973
929.428	11901
929.533	11996
929.638	11882
929.743	11901
929.848	11931
929.953	11813
930.058	11707
930.163	11596
930.267	11710
930.372	11726
930.477	11570
930.581	11794
930.685	11630
930.79	11497
930.894	11509
930.998	11395
931.103	11585
931.207	11204
931.311	11178
931.415	11045
931.519	10869
931.623	10885
