Data from test_V78500241_861.txt Node
Date: Fri Mar 25 15:15:51 CST 2022
User: usil
Spectrometer: V785-0024
Trigger mode: 0
Integration Time (sec): 4.000000E-1
Scans to average: 1
Nonlinearity correction enabled: false
Boxcar width: 0
Storing dark spectrum: false
XAxis mode: Wavelengths
Number of Pixels in Spectrum: 1024
>>>>>Begin Spectral Data<<<<<
801.071	28314
801.214	28192
801.356	27949
801.499	27956
801.641	27854
801.783	27724
801.926	27907
802.068	27705
802.211	27709
802.353	27580
802.496	27401
802.638	27447
802.78	27420
802.923	27317
803.065	27340
803.208	27348
803.35	27488
803.492	27534
803.635	27599
803.777	27591
803.919	27686
804.061	27914
804.204	27568
804.346	27633
804.488	27435
804.63	27629
804.773	27458
804.915	27732
805.057	27918
805.199	27698
805.341	27831
805.483	27812
805.626	27800
805.768	27831
805.91	27789
806.052	27751
806.194	27686
806.336	27968
806.478	27804
806.62	27785
806.762	28006
806.904	28192
807.046	28314
807.188	28181
807.33	28166
807.472	28409
807.614	28200
807.756	28185
807.898	28181
808.04	28017
808.182	27987
808.324	28154
808.465	28158
808.607	28226
808.749	28459
808.891	28440
809.033	28622
809.174	28348
809.316	28504
809.458	28478
809.6	28519
809.741	28580
809.883	28523
810.025	28603
810.166	28763
810.308	28599
810.45	28630
810.591	28744
810.733	28508
810.875	28459
811.016	28310
811.158	28356
811.299	28538
811.441	28615
811.582	28516
811.724	28550
811.865	28352
812.007	28485
812.148	28485
812.29	28596
812.431	28660
812.573	28839
812.714	28866
812.855	29140
812.997	29102
813.138	29273
813.279	29151
813.421	29140
813.562	28881
813.703	28850
813.845	28835
813.986	28459
814.127	28360
814.268	28268
814.41	28249
814.551	28230
814.692	28337
814.833	28135
814.974	28029
815.115	28200
815.256	27972
815.397	28143
815.539	28135
815.68	27861
815.821	27979
815.962	28006
816.103	27956
816.244	27755
816.385	27861
816.526	27812
816.666	27618
816.807	27443
816.948	27595
817.089	27587
817.23	27641
817.371	27447
817.512	27469
817.653	27408
817.793	27576
817.934	27526
818.075	27439
818.216	27606
818.356	27450
818.497	27458
818.638	27245
818.778	27195
818.919	27245
819.06	27408
819.2	27374
819.341	27500
819.481	27363
819.622	27530
819.762	27762
819.903	27785
820.043	27637
820.184	27663
820.324	27538
820.465	27648
820.605	27694
820.746	27698
820.886	27542
821.026	27637
821.167	27492
821.307	27523
821.447	27583
821.588	27431
821.728	27249
821.868	27119
822.008	26887
822.149	26925
822.289	26975
822.429	26792
822.569	26663
822.709	26678
822.849	26571
822.99	26579
823.13	26473
823.27	26609
823.41	26244
823.55	26199
823.69	26366
823.83	26271
823.97	26107
824.11	26100
824.25	26008
824.389	26191
824.529	26142
824.669	26256
824.809	26278
824.949	26149
825.089	26294
825.228	26210
825.368	25966
825.508	25944
825.648	26016
825.787	26027
825.927	25959
826.067	25932
826.206	25849
826.346	26084
826.485	26103
826.625	25959
826.765	26073
826.904	25936
827.044	25761
827.183	25753
827.323	25643
827.462	25784
827.601	25746
827.741	25685
827.88	25822
828.02	25639
828.159	25708
828.298	25837
828.437	25879
828.577	25563
828.716	25769
828.855	25731
828.994	25468
829.134	25556
829.273	25449
829.412	25514
829.551	25293
829.69	25514
829.829	25453
829.968	25396
830.107	25392
830.246	25381
830.385	25312
830.524	25202
830.663	25209
830.802	25099
830.941	25099
831.08	25057
831.219	25069
831.357	25232
831.496	25331
831.635	25133
831.774	24943
831.913	24947
832.051	24802
832.19	24749
832.329	24897
832.467	24669
832.606	24658
832.744	24779
832.883	24597
833.022	24738
833.16	24772
833.299	24844
833.437	24768
833.576	24878
833.714	24810
833.852	24726
833.991	24772
834.129	24981
834.267	24901
834.406	24726
834.544	24757
834.682	24688
834.821	24703
834.959	24966
835.097	24669
835.235	24783
835.373	24768
835.511	24703
835.65	24521
835.788	24578
835.926	24601
836.064	24384
836.202	24471
836.34	24563
836.478	24764
836.615	24585
836.753	24616
836.891	24623
837.029	24623
837.167	24627
837.305	24566
837.443	24536
837.58	24498
837.718	24433
837.856	24479
837.993	24445
838.131	24410
838.269	24376
838.406	24422
838.544	24311
838.681	24129
838.819	24087
838.956	23988
839.094	23939
839.231	23973
839.369	24133
839.506	24281
839.643	24140
839.781	24038
839.918	23779
840.055	23874
840.193	23870
840.33	23847
840.467	23817
840.604	23931
840.742	24068
840.879	23687
841.016	23767
841.153	23657
841.29	23927
841.427	23729
841.564	23870
841.701	23752
841.838	23714
841.975	23767
842.112	23726
842.249	23505
842.385	23577
842.522	23771
842.659	23665
842.796	23630
842.933	23562
843.069	23463
843.206	23589
843.343	23623
843.479	23505
843.616	23585
843.752	23223
843.889	23395
844.025	23395
844.162	23353
844.298	23497
844.435	23372
844.571	23288
844.708	23360
844.844	23501
844.98	23524
845.117	23471
845.253	23235
845.389	23155
845.525	23185
845.661	23025
845.798	23166
845.934	23174
846.07	22957
846.206	23071
846.342	23178
846.478	23136
846.614	22885
846.75	22691
846.886	22896
847.022	23014
847.158	22869
847.294	22759
847.429	22850
847.565	22752
847.701	22900
847.837	22546
847.972	22470
848.108	22622
848.244	22637
848.379	22470
848.515	22360
848.65	22375
848.786	22462
848.921	22344
849.057	22519
849.192	22424
849.328	22508
849.463	22409
849.598	22226
849.734	22219
849.869	22337
850.004	22143
850.14	22284
850.275	22116
850.41	22097
850.545	22093
850.68	22006
850.815	22086
850.95	22048
851.085	22329
851.22	22405
851.355	22185
851.49	22135
851.625	22128
851.76	22074
851.895	22082
852.03	21998
852.165	22276
852.299	22204
852.434	22124
852.569	22105
852.703	22200
852.838	22242
852.973	22363
853.107	22322
853.242	21987
853.376	22051
853.511	21869
853.645	21934
853.78	22101
853.914	21949
854.048	21964
854.183	21888
854.317	22048
854.451	22242
854.585	21964
854.72	22006
854.854	21987
854.988	21873
855.122	21956
855.256	21816
855.39	21953
855.524	21960
855.658	21991
855.792	22032
855.926	21956
856.06	22093
856.194	21968
856.327	21979
856.461	21930
856.595	21842
856.729	21960
856.862	22109
856.996	22025
857.13	22086
857.263	22059
857.397	22090
857.53	21907
857.664	21983
857.797	21949
857.931	22223
858.064	21892
858.197	22135
858.331	21941
858.464	21854
858.597	21850
858.731	21945
858.864	21869
858.997	21964
859.13	22006
859.263	21991
859.396	21926
859.529	21964
859.662	21987
859.795	21880
859.928	22040
860.061	22021
860.194	22116
860.327	22074
860.46	21991
860.592	22086
860.725	22246
860.858	22135
860.99	21930
861.123	21823
861.256	21812
861.388	21915
861.521	22637
861.653	21884
861.786	21682
861.918	21873
862.05	21960
862.183	21854
862.315	21972
862.447	21838
862.58	21857
862.712	21705
862.844	21671
862.976	21778
863.108	21766
863.24	21979
863.372	21618
863.504	21747
863.636	21625
863.768	21713
863.9	21671
864.032	21523
864.164	21633
864.296	21690
864.428	21625
864.559	21736
864.691	21724
864.823	21785
864.954	21682
865.086	21492
865.217	21572
865.349	21500
865.48	21462
865.612	21564
865.743	21728
865.875	21523
866.006	21450
866.137	21622
866.269	21641
866.4	21481
866.531	21466
866.662	21481
866.793	21420
866.924	21454
867.055	21477
867.186	21485
867.317	21496
867.448	21435
867.579	21488
867.71	21378
867.841	21408
867.972	21534
868.103	21485
868.233	21458
868.364	21511
868.495	21530
868.625	21690
868.756	21823
868.886	21622
869.017	21724
869.147	21816
869.278	21915
869.408	21766
869.539	21698
869.669	21903
869.799	21698
869.929	21842
870.06	21838
870.19	22120
870.32	21968
870.45	22177
870.58	22207
870.71	22181
870.84	22200
870.97	22173
871.1	22097
871.23	22341
871.36	22318
871.489	22287
871.619	22188
871.749	22272
871.879	22360
872.008	22360
872.138	22333
872.267	22261
872.397	22291
872.526	22162
872.656	22284
872.785	22188
872.915	22253
873.044	22428
873.173	22322
873.303	22352
873.432	22314
873.561	22318
873.69	22310
873.819	22322
873.948	22531
874.077	22367
874.206	22276
874.335	22223
874.464	22428
874.593	22500
874.722	22497
874.851	22527
874.979	22584
875.108	22615
875.237	22523
875.365	22363
875.494	22413
875.623	22493
875.751	22512
875.88	22516
876.008	22523
876.136	22637
876.265	23033
876.393	22942
876.521	23003
876.65	22987
876.778	22919
876.906	22809
877.034	22759
877.162	22873
877.29	22778
877.418	22843
877.546	22908
877.674	22828
877.802	22908
877.93	22896
878.058	22889
878.185	22850
878.313	22816
878.441	22995
878.568	22679
878.696	22843
878.824	22816
878.951	23109
879.079	23064
879.206	23246
879.333	23098
879.461	22904
879.588	23090
879.715	23083
879.842	23117
879.97	23003
880.097	22717
880.224	22588
880.351	22725
880.478	22691
880.605	22653
880.732	22698
880.859	22877
880.986	22561
881.112	22694
881.239	22611
881.366	22440
881.493	22303
881.619	22234
881.746	22344
881.872	22207
881.999	22192
882.125	22238
882.252	22337
882.378	22280
882.505	22352
882.631	22147
882.757	22010
882.883	22086
883.01	21934
883.136	21937
883.262	21720
883.388	21838
883.514	21968
883.64	22002
883.766	21915
883.892	21717
884.018	21804
884.143	21876
884.269	21918
884.395	21701
884.52	21618
884.646	21557
884.772	21530
884.897	21538
885.023	21496
885.148	21709
885.274	21774
885.399	21747
885.524	21561
885.65	21736
885.775	21530
885.9	21603
886.025	21789
886.15	21694
886.275	21595
886.4	21466
886.525	21580
886.65	21542
886.775	21595
886.9	21774
887.025	21819
887.149	21587
887.274	21435
887.399	21397
887.523	21355
887.648	21382
887.773	21218
887.897	21397
888.021	21359
888.146	21252
888.27	21538
888.395	21389
888.519	21329
888.643	21389
888.767	21355
888.891	21374
889.015	21085
889.139	21249
889.263	21222
889.387	21298
889.511	21332
889.635	21237
889.759	21207
889.883	21233
890.006	21150
890.13	21283
890.254	21119
890.377	21017
890.501	20883
890.624	20914
890.748	20948
890.871	20754
890.995	20758
891.118	20609
891.241	20727
891.364	20811
891.488	20819
891.611	20693
891.734	20724
891.857	20644
891.98	20743
892.103	20811
892.226	20853
892.349	20629
892.471	20571
892.594	20689
892.717	20769
892.839	20754
892.962	20663
893.085	20716
893.207	20648
893.33	20507
893.452	20465
893.575	20659
893.697	20594
893.819	20762
893.941	20762
894.064	20769
894.186	20598
894.308	20560
894.43	20625
894.552	20746
894.674	20712
894.796	20530
894.918	20522
895.04	20541
895.161	20629
895.283	20655
895.405	20640
895.526	20560
895.648	20541
895.769	20625
895.891	20609
896.012	20705
896.134	20549
896.255	20648
896.376	20499
896.498	20571
896.619	20560
896.74	20587
896.861	20617
896.982	20853
897.103	21051
897.224	20883
897.345	20925
897.466	20826
897.587	20716
897.708	20902
897.828	20796
897.949	20788
898.07	20659
898.19	20773
898.311	20883
898.431	20705
898.552	20781
898.672	20876
898.792	20906
898.913	20686
899.033	20682
899.153	20625
899.273	20446
899.393	20583
899.513	20552
899.633	20560
899.753	20370
899.873	20389
899.993	20556
900.113	20434
900.232	20533
900.352	20415
900.472	20442
900.591	20237
900.711	20370
900.83	20191
900.95	20473
901.069	20476
901.189	20191
901.308	19959
901.427	19875
901.546	19921
901.665	19978
901.784	19902
901.904	19837
902.023	19677
902.141	19476
902.26	19422
902.379	19499
902.498	19373
902.617	19362
902.735	19460
902.854	19369
902.973	19324
903.091	19122
903.21	19042
903.328	18996
903.446	18867
903.565	18905
903.683	18814
903.801	18806
903.919	18913
904.038	18875
904.156	18654
904.274	18703
904.392	18681
904.51	18623
904.627	18585
904.745	18684
904.863	18616
904.981	18380
905.098	18232
905.216	18315
905.334	18426
905.451	18311
905.569	18155
905.686	18448
905.803	18224
905.921	18053
906.038	18254
906.155	18159
906.272	17973
906.389	17939
906.506	17843
906.623	17912
906.74	17866
906.857	17680
906.974	17809
907.091	17832
907.208	18053
907.324	17882
907.441	17752
907.557	17665
907.674	17665
907.79	17497
907.907	17486
908.023	17509
908.139	17543
908.256	17459
908.372	17467
908.488	17459
908.604	17288
908.72	17212
908.836	17280
908.952	17288
909.068	17261
909.184	17353
909.3	17254
909.415	17307
909.531	17330
909.647	16991
909.762	16900
909.878	16911
909.993	16995
910.108	16900
910.224	16938
910.339	16919
910.454	16835
910.57	16759
910.685	16725
910.8	16885
910.915	16999
911.03	16778
911.145	16569
911.259	16565
911.374	16432
911.489	16390
911.604	16421
911.718	16272
911.833	16310
911.947	16242
912.062	16128
912.176	16276
912.291	16246
912.405	16291
912.519	16390
912.633	16466
912.748	16284
912.862	16295
912.976	16105
913.09	16002
913.204	16051
913.318	16105
913.431	16257
913.545	16230
913.659	16185
913.772	16010
913.886	15960
914	15869
914.113	16051
914.226	15926
914.34	15968
914.453	15785
914.566	15941
914.68	15751
914.793	15701
914.906	15614
915.019	15504
915.132	15504
915.245	15523
915.358	15504
915.47	15469
915.583	15564
915.696	15599
915.809	15580
915.921	15614
916.034	15405
916.146	15397
916.259	15351
916.371	15485
916.483	15485
916.595	15245
916.708	15306
916.82	15294
916.932	15195
917.044	15176
917.156	15252
917.268	15135
917.38	15188
917.491	15119
917.603	15123
917.715	15214
917.826	15222
917.938	14948
918.049	14925
918.161	15036
918.272	15116
918.384	15184
918.495	15032
918.606	14967
918.717	14941
918.828	14876
918.939	14963
919.05	14796
919.161	14845
919.272	14746
919.383	14659
919.494	14891
919.604	15051
919.715	14883
919.826	14811
919.936	14830
920.047	14933
920.157	14769
920.267	14910
920.378	14781
920.488	14804
920.598	14994
920.708	15074
920.818	14963
920.928	14990
921.038	15032
921.148	15074
921.258	14765
921.368	14648
921.477	14549
921.587	14518
921.697	14339
921.806	14606
921.916	14446
922.025	14351
922.134	14248
922.244	14058
922.353	14355
922.462	14088
922.571	14058
922.68	13868
922.789	13852
922.898	13826
923.007	13811
923.116	13715
923.224	13803
923.333	13902
923.442	13757
923.55	13693
923.659	13677
923.767	13776
923.876	13658
923.984	13738
924.092	13605
924.201	13636
924.309	13594
924.417	13548
924.525	13506
924.633	13510
924.741	14161
924.849	13247
924.956	13487
925.064	13247
925.172	13137
925.279	13202
925.387	13251
925.494	13255
925.602	13499
925.709	13240
925.816	13171
925.924	13156
926.031	13312
926.138	13209
926.245	13198
926.352	13168
926.459	13274
926.566	13331
926.673	13042
926.779	13046
926.886	13042
926.993	12795
927.099	12684
927.206	12738
927.312	12821
927.419	12901
927.525	12817
927.631	12840
927.737	12673
927.843	12665
927.95	12521
928.056	12662
928.162	12582
928.267	12612
928.373	13209
928.479	12719
928.585	12441
928.69	12483
928.796	12578
928.901	12506
929.007	12300
929.112	12479
929.218	12513
929.323	12365
929.428	12273
929.533	12429
929.638	12228
929.743	12220
929.848	12323
929.953	12338
930.058	12224
930.163	12060
930.267	11977
930.372	12148
930.477	11961
930.581	12243
930.685	12057
930.79	11958
930.894	11893
930.998	11859
931.103	11931
931.207	11684
931.311	11520
931.415	11520
931.519	11311
931.623	11265
