Data from test_V78500241_1303.txt Node
Date: Fri Mar 25 15:18:55 CST 2022
User: usil
Spectrometer: V785-0024
Trigger mode: 0
Integration Time (sec): 4.000000E-1
Scans to average: 1
Nonlinearity correction enabled: false
Boxcar width: 0
Storing dark spectrum: false
XAxis mode: Wavelengths
Number of Pixels in Spectrum: 1024
>>>>>Begin Spectral Data<<<<<
801.071	28021
801.214	27934
801.356	27641
801.499	27625
801.641	27473
801.783	27458
801.926	27534
802.068	27420
802.211	27355
802.353	27401
802.496	27207
802.638	27169
802.78	27142
802.923	27127
803.065	27028
803.208	27142
803.35	27184
803.492	27294
803.635	27184
803.777	27233
803.919	27291
804.061	27686
804.204	27420
804.346	27310
804.488	27173
804.63	27359
804.773	27195
804.915	27351
805.057	27549
805.199	27389
805.341	27568
805.483	27485
805.626	27526
805.768	27291
805.91	27500
806.052	27378
806.194	27344
806.336	27713
806.478	27466
806.62	27534
806.762	27690
806.904	27747
807.046	28135
807.188	27876
807.33	27884
807.472	27964
807.614	27823
807.756	28021
807.898	27739
808.04	27774
808.182	27755
808.324	27713
808.465	27755
808.607	27960
808.749	28139
808.891	28097
809.033	28287
809.174	28219
809.316	28173
809.458	28090
809.6	28177
809.741	28242
809.883	28306
810.025	28565
810.166	28295
810.308	28462
810.45	28413
810.591	28341
810.733	28230
810.875	28128
811.016	28040
811.158	28040
811.299	28185
811.441	28253
811.582	28386
811.724	28166
811.865	28128
812.007	28135
812.148	28131
812.29	28070
812.431	28280
812.573	28512
812.714	28538
812.855	28565
812.997	28702
813.138	28854
813.279	28763
813.421	28877
813.562	28584
813.703	28409
813.845	28295
813.986	28249
814.127	27876
814.268	27914
814.41	27934
814.551	27880
814.692	27934
814.833	27880
814.974	27861
815.115	27789
815.256	27747
815.397	27675
815.539	27709
815.68	27447
815.821	27534
815.962	27728
816.103	27481
816.244	27622
816.385	27401
816.526	27488
816.666	27275
816.807	27062
816.948	27233
817.089	27116
817.23	27298
817.371	27058
817.512	27081
817.653	27195
817.793	26994
817.934	27039
818.075	27230
818.216	27135
818.356	27077
818.497	27024
818.638	26819
818.778	26842
818.919	26982
819.06	26933
819.2	26994
819.341	27135
819.481	27119
819.622	27188
819.762	27424
819.903	27466
820.043	27298
820.184	27241
820.324	27245
820.465	27283
820.605	27241
820.746	27089
820.886	27058
821.026	27150
821.167	27245
821.307	27222
821.447	27230
821.588	26971
821.728	26948
821.868	26765
822.008	26575
822.149	26579
822.289	26606
822.429	26210
822.569	26183
822.709	26412
822.849	26024
822.99	26195
823.13	26172
823.27	26039
823.41	25955
823.55	25746
823.69	25887
823.83	25860
823.97	25951
824.11	25677
824.25	25643
824.389	25651
824.529	25833
824.669	25750
824.809	25837
824.949	25917
825.089	25811
825.228	25769
825.368	25552
825.508	25746
825.648	25643
825.787	25696
825.927	25761
826.067	25620
826.206	25620
826.346	25681
826.485	25712
826.625	25556
826.765	25658
826.904	25689
827.044	25415
827.183	25499
827.323	25274
827.462	25377
827.601	25354
827.741	25373
827.88	25255
828.02	25263
828.159	25377
828.298	25369
828.437	25297
828.577	25339
828.716	25422
828.855	25194
828.994	25099
829.134	25061
829.273	25194
829.412	25023
829.551	25000
829.69	25065
829.829	25057
829.968	25114
830.107	25057
830.246	25050
830.385	25031
830.524	24939
830.663	24852
830.802	24753
830.941	24623
831.08	24661
831.219	24795
831.357	24741
831.496	24913
831.635	24776
831.774	24513
831.913	24471
832.051	24376
832.19	24448
832.329	24642
832.467	24410
832.606	24281
832.744	24190
832.883	24285
833.022	24186
833.16	24342
833.299	24376
833.437	24403
833.576	24490
833.714	24357
833.852	24426
833.991	24372
834.129	24509
834.267	24471
834.406	24486
834.544	24403
834.682	24353
834.821	24254
834.959	24464
835.097	24292
835.235	24403
835.373	24502
835.511	24266
835.65	24281
835.788	24110
835.926	24068
836.064	23992
836.202	24159
836.34	24060
836.478	24361
836.615	24102
836.753	24270
836.891	24296
837.029	24258
837.167	24281
837.305	24304
837.443	24190
837.58	23958
837.718	24106
837.856	24026
837.993	24049
838.131	24072
838.269	24011
838.406	24098
838.544	23931
838.681	23775
838.819	23737
838.956	23414
839.094	23554
839.231	23433
839.369	23745
839.506	23847
839.643	23741
839.781	23592
839.918	23493
840.055	23455
840.193	23440
840.33	23433
840.467	23493
840.604	23577
840.742	23748
840.879	23356
841.016	23478
841.153	23288
841.29	23474
841.427	23421
841.564	23493
841.701	23501
841.838	23299
841.975	23368
842.112	23364
842.249	23250
842.385	23193
842.522	23395
842.659	23265
842.796	23208
842.933	23318
843.069	22995
843.206	23246
843.343	23265
843.479	23105
843.616	23239
843.752	22904
843.889	22999
844.025	23121
844.162	23132
844.298	23086
844.435	23048
844.571	22976
844.708	22949
844.844	23128
844.98	23155
845.117	22938
845.253	22869
845.389	22873
845.525	22873
845.661	22733
845.798	22702
845.934	22706
846.07	22675
846.206	22767
846.342	22767
846.478	22771
846.614	22615
846.75	22516
846.886	22436
847.022	22462
847.158	22356
847.294	22531
847.429	22443
847.565	22352
847.701	22577
847.837	22253
847.972	22272
848.108	22333
848.244	22287
848.379	22150
848.515	22032
848.65	21979
848.786	22109
848.921	22204
849.057	22105
849.192	22070
849.328	22230
849.463	22040
849.598	21915
849.734	21937
849.869	21903
850.004	21838
850.14	21842
850.275	21785
850.41	21781
850.545	21808
850.68	21816
850.815	21800
850.95	21789
851.085	21991
851.22	21812
851.355	21819
851.49	21797
851.625	21667
851.76	21656
851.895	21728
852.03	21747
852.165	21755
852.299	21838
852.434	21918
852.569	21819
852.703	21876
852.838	21876
852.973	21808
853.107	21865
853.242	21766
853.376	21656
853.511	21549
853.645	21564
853.78	21797
853.914	21709
854.048	21526
854.183	21500
854.317	21686
854.451	21724
854.585	21667
854.72	21625
854.854	21663
854.988	21583
855.122	21580
855.256	21500
855.39	21671
855.524	21667
855.658	21485
855.792	21580
855.926	21618
856.06	21633
856.194	21785
856.327	21603
856.461	21622
856.595	21545
856.729	21557
856.862	21686
856.996	21622
857.13	21557
857.263	21747
857.397	21778
857.53	21591
857.664	21713
857.797	21622
857.931	21774
858.064	21652
858.197	21789
858.331	21587
858.464	21629
858.597	21576
858.731	21614
858.864	21545
858.997	21511
859.13	21637
859.263	21549
859.396	21751
859.529	21587
859.662	21576
859.795	21580
859.928	21694
860.061	21797
860.194	21774
860.327	21739
860.46	21622
860.592	21785
860.725	21854
860.858	21690
860.99	21717
861.123	21595
861.256	21534
861.388	21641
861.521	22295
861.653	21553
861.786	21405
861.918	21450
862.05	21454
862.183	21492
862.315	21572
862.447	21633
862.58	21568
862.712	21401
862.844	21332
862.976	21500
863.108	21382
863.24	21770
863.372	21264
863.504	21378
863.636	21188
863.768	21340
863.9	21310
864.032	21260
864.164	21188
864.296	21245
864.428	21420
864.559	21386
864.691	21420
864.823	21382
864.954	21287
865.086	21313
865.217	21070
865.349	21131
865.48	21161
865.612	21252
865.743	21275
865.875	21192
866.006	21199
866.137	21138
866.269	21188
866.4	21294
866.531	21104
866.662	21036
866.793	21085
866.924	21230
867.055	21294
867.186	21233
867.317	21138
867.448	21001
867.579	21207
867.71	21055
867.841	21173
867.972	21207
868.103	21165
868.233	21108
868.364	21161
868.495	21264
868.625	21351
868.756	21348
868.886	21306
869.017	21329
869.147	21568
869.278	21462
869.408	21393
869.539	21401
869.669	21504
869.799	21454
869.929	21447
870.06	21545
870.19	21637
870.32	21736
870.45	21728
870.58	21816
870.71	21903
870.84	21869
870.97	21800
871.1	21823
871.23	22017
871.36	22055
871.489	21724
871.619	21949
871.749	21907
871.879	21991
872.008	22036
872.138	21991
872.267	21888
872.397	21880
872.526	21789
872.656	21793
872.785	21854
872.915	22029
873.044	22082
873.173	22021
873.303	22070
873.432	21960
873.561	22112
873.69	22101
873.819	22044
873.948	22013
874.077	22078
874.206	21922
874.335	21953
874.464	22059
874.593	22314
874.722	22109
874.851	22226
874.979	22185
875.108	22310
875.237	22188
875.365	22040
875.494	22188
875.623	22432
875.751	22147
875.88	22325
876.008	22352
876.136	22394
876.265	22637
876.393	22816
876.521	22740
876.65	22687
876.778	22660
876.906	22580
877.034	22630
877.162	22535
877.29	22462
877.418	22603
877.546	22478
877.674	22554
877.802	22470
877.93	22466
878.058	22599
878.185	22436
878.313	22405
878.441	22622
878.568	22329
878.696	22424
878.824	22531
878.951	22744
879.079	22729
879.206	22889
879.333	22675
879.461	22668
879.588	22641
879.715	22725
879.842	22733
879.97	22649
880.097	22459
880.224	22360
880.351	22478
880.478	22322
880.605	22253
880.732	22253
880.859	22672
880.986	22481
881.112	22474
881.239	22242
881.366	22162
881.493	22044
881.619	21972
881.746	21983
881.872	21991
881.999	21895
882.125	21968
882.252	21972
882.378	21888
882.505	22055
882.631	21759
882.757	21618
882.883	21842
883.01	21667
883.136	21663
883.262	21462
883.388	21538
883.514	21511
883.64	21743
883.766	21443
883.892	21412
884.018	21542
884.143	21637
884.269	21583
884.395	21458
884.52	21298
884.646	21325
884.772	21241
884.897	21169
885.023	21310
885.148	21386
885.274	21504
885.399	21283
885.524	21268
885.65	21287
885.775	21222
885.9	21310
886.025	21458
886.15	21275
886.275	21230
886.4	21214
886.525	21249
886.65	21310
886.775	21252
886.9	21321
887.025	21439
887.149	21291
887.274	21055
887.399	20986
887.523	21089
887.648	21135
887.773	20956
887.897	21123
888.021	21077
888.146	20933
888.27	21199
888.395	21100
888.519	21020
888.643	21138
888.767	21070
888.891	20929
889.015	20845
889.139	20857
889.263	21024
889.387	20963
889.511	21001
889.635	21127
889.759	20720
889.883	20861
890.006	20834
890.13	21020
890.254	20804
890.377	20830
890.501	20609
890.624	20537
890.748	20648
890.871	20454
890.995	20377
891.118	20225
891.241	20480
891.364	20454
891.488	20473
891.611	20469
891.734	20408
891.857	20492
891.98	20473
892.103	20499
892.226	20366
892.349	20404
892.471	20138
892.594	20412
892.717	20419
892.839	20347
892.962	20347
893.085	20412
893.207	20298
893.33	20122
893.452	20252
893.575	20237
893.697	20233
893.819	20659
893.941	20537
894.064	20469
894.186	20244
894.308	20233
894.43	20317
894.552	20476
894.674	20480
894.796	20271
894.918	20377
895.04	20164
895.161	20324
895.283	20332
895.405	20259
895.526	20351
895.648	20271
895.769	20351
895.891	20275
896.012	20366
896.134	20328
896.255	20355
896.376	20294
896.498	20317
896.619	20408
896.74	20408
896.861	20393
896.982	20640
897.103	20720
897.224	20571
897.345	20560
897.466	20423
897.587	20579
897.708	20701
897.828	20533
897.949	20533
898.07	20358
898.19	20457
898.311	20598
898.431	20488
898.552	20389
898.672	20556
898.792	20602
898.913	20621
899.033	20404
899.153	20286
899.273	20119
899.393	20206
899.513	20237
899.633	20336
899.753	20259
899.873	20100
899.993	20355
900.113	20240
900.232	20191
900.352	20149
900.472	20153
900.591	19955
900.711	20107
900.83	19986
900.95	20191
901.069	20073
901.189	19959
901.308	19731
901.427	19628
901.546	19658
901.665	19605
901.784	19628
901.904	19369
902.023	19434
902.141	19221
902.26	19202
902.379	19236
902.498	19069
902.617	19114
902.735	19061
902.854	19133
902.973	19122
903.091	18844
903.21	18791
903.328	18772
903.446	18779
903.565	18719
903.683	18627
903.801	18437
903.919	18536
904.038	18486
904.156	18464
904.274	18429
904.392	18395
904.51	18285
904.627	18445
904.745	18399
904.863	18315
904.981	18201
905.098	17980
905.216	18060
905.334	18079
905.451	18083
905.569	18007
905.686	18178
905.803	18110
905.921	17855
906.038	17901
906.155	17855
906.272	17638
906.389	17695
906.506	17695
906.623	17547
906.74	17516
906.857	17440
906.974	17455
907.091	17573
907.208	17752
907.324	17680
907.441	17474
907.557	17231
907.674	17307
907.79	17162
907.907	17197
908.023	17364
908.139	17258
908.256	17200
908.372	17254
908.488	17121
908.604	17003
908.72	17029
908.836	17048
908.952	16953
909.068	16965
909.184	17075
909.3	16968
909.415	17029
909.531	16999
909.647	16717
909.762	16710
909.878	16740
909.993	16691
910.108	16668
910.224	16706
910.339	16664
910.454	16516
910.57	16527
910.685	16432
910.8	16816
910.915	16615
911.03	16478
911.145	16417
911.259	16322
911.374	16291
911.489	16246
911.604	16226
911.718	16055
911.833	16055
911.947	15907
912.062	15926
912.176	16021
912.291	15934
912.405	15873
912.519	16177
912.633	16207
912.748	16074
912.862	16013
912.976	16006
913.09	15812
913.204	15831
913.318	15743
913.431	15892
913.545	15983
913.659	15918
913.772	15770
913.886	15743
914	15663
914.113	15751
914.226	15644
914.34	15770
914.453	15587
914.566	15717
914.68	15534
914.793	15698
914.906	15325
915.019	15340
915.132	15237
915.245	15195
915.358	15325
915.47	15211
915.583	15298
915.696	15127
915.809	15268
915.921	15355
916.034	15150
916.146	15116
916.259	15165
916.371	15146
916.483	15150
916.595	15081
916.708	15169
916.82	15077
916.932	15104
917.044	15047
917.156	15009
917.268	14971
917.38	14979
917.491	15028
917.603	14804
917.715	14937
917.826	15005
917.938	14910
918.049	14830
918.161	14792
918.272	14994
918.384	14914
918.495	14823
918.606	14807
918.717	14663
918.828	14667
918.939	14644
919.05	14568
919.161	14689
919.272	14438
919.383	14442
919.494	14663
919.604	14765
919.715	14670
919.826	14556
919.936	14602
920.047	14667
920.157	14697
920.267	14823
920.378	14621
920.488	14575
920.598	14868
920.708	14948
920.818	14773
920.928	14693
921.038	14872
921.148	14895
921.258	14621
921.368	14579
921.477	14400
921.587	14377
921.697	14240
921.806	14339
921.916	14164
922.025	14020
922.134	13940
922.244	13967
922.353	14035
922.462	13871
922.571	13837
922.68	13666
922.789	13700
922.898	13685
923.007	13628
923.116	13620
923.224	13605
923.333	13616
923.442	13529
923.55	13453
923.659	13468
923.767	13487
923.876	13396
923.984	13434
924.092	13297
924.201	13392
924.309	13274
924.417	13362
924.525	13274
924.633	13289
924.741	14267
924.849	13114
924.956	13232
925.064	13046
925.172	12958
925.279	12989
925.387	13099
925.494	13008
925.602	13076
925.709	13004
925.816	12867
925.924	13046
926.031	13126
926.138	12981
926.245	13084
926.352	12977
926.459	13091
926.566	13050
926.673	12985
926.779	12821
926.886	12806
926.993	12578
927.099	12559
927.206	12597
927.312	12646
927.419	12665
927.525	12566
927.631	12604
927.737	12506
927.843	12437
927.95	12277
928.056	12323
928.162	12414
928.267	12429
928.373	13103
928.479	12517
928.585	12220
928.69	12388
928.796	12483
928.901	12296
929.007	12159
929.112	12292
929.218	12281
929.323	12152
929.428	12175
929.533	12346
929.638	12125
929.743	12022
929.848	12121
929.953	12102
930.058	11950
930.163	11866
930.267	11805
930.372	11992
930.477	11767
930.581	12011
930.685	11939
930.79	11699
930.894	11798
930.998	11688
931.103	11802
931.207	11459
931.311	11379
931.415	11299
931.519	11124
931.623	11067
