Data from test_V78500241_774.txt Node
Date: Fri Mar 25 15:15:14 CST 2022
User: usil
Spectrometer: V785-0024
Trigger mode: 0
Integration Time (sec): 4.000000E-1
Scans to average: 1
Nonlinearity correction enabled: false
Boxcar width: 0
Storing dark spectrum: false
XAxis mode: Wavelengths
Number of Pixels in Spectrum: 1024
>>>>>Begin Spectral Data<<<<<
801.071	28299
801.214	28101
801.356	27914
801.499	27892
801.641	27888
801.783	27751
801.926	27884
802.068	27705
802.211	27511
802.353	27606
802.496	27488
802.638	27420
802.78	27393
802.923	27504
803.065	27382
803.208	27485
803.35	27359
803.492	27591
803.635	27690
803.777	27477
803.919	27671
804.061	27937
804.204	27793
804.346	27557
804.488	27572
804.63	27663
804.773	27583
804.915	27515
805.057	27724
805.199	27747
805.341	27614
805.483	27876
805.626	27781
805.768	27595
805.91	27553
806.052	27686
806.194	27675
806.336	27949
806.478	27739
806.62	27831
806.762	27979
806.904	28040
807.046	28276
807.188	28310
807.33	28249
807.472	28337
807.614	28044
807.756	28181
807.898	28055
808.04	27907
808.182	27979
808.324	28051
808.465	28032
808.607	28322
808.749	28394
808.891	28550
809.033	28508
809.174	28474
809.316	28360
809.458	28527
809.6	28424
809.741	28607
809.883	28710
810.025	28790
810.166	28915
810.308	28790
810.45	28752
810.591	28771
810.733	28508
810.875	28451
811.016	28352
811.158	28344
811.299	28573
811.441	28432
811.582	28596
811.724	28542
811.865	28394
812.007	28466
812.148	28596
812.29	28440
812.431	28546
812.573	28790
812.714	28930
812.855	29079
812.997	28972
813.138	29204
813.279	29048
813.421	29102
813.562	28999
813.703	28877
813.845	28763
813.986	28618
814.127	28322
814.268	28101
814.41	28154
814.551	28192
814.692	28310
814.833	28215
814.974	28223
815.115	28131
815.256	28055
815.397	28006
815.539	27945
815.68	28040
815.821	27823
815.962	27987
816.103	27987
816.244	27884
816.385	27739
816.526	27694
816.666	27656
816.807	27469
816.948	27618
817.089	27633
817.23	27515
817.371	27568
817.512	27564
817.653	27416
817.793	27408
817.934	27561
818.075	27523
818.216	27481
818.356	27481
818.497	27332
818.638	27256
818.778	27272
818.919	27112
819.06	27302
819.2	27424
819.341	27420
819.481	27595
819.622	27751
819.762	27854
819.903	27762
820.043	27690
820.184	27591
820.324	27568
820.465	27774
820.605	27663
820.746	27534
820.886	27557
821.026	27641
821.167	27641
821.307	27637
821.447	27564
821.588	27287
821.728	27241
821.868	27161
822.008	27009
822.149	27028
822.289	26918
822.429	26663
822.569	26762
822.709	26552
822.849	26476
822.99	26370
823.13	26263
823.27	26400
823.41	26343
823.55	26054
823.69	26233
823.83	26202
823.97	26202
824.11	26062
824.25	26145
824.389	26214
824.529	26149
824.669	26278
824.809	26275
824.949	26195
825.089	26062
825.228	26103
825.368	26005
825.508	25986
825.648	25970
825.787	26039
825.927	26035
826.067	26005
826.206	25902
826.346	25966
826.485	25963
826.625	26008
826.765	26081
826.904	25932
827.044	25742
827.183	25772
827.323	25662
827.462	25647
827.601	25719
827.741	25632
827.88	25696
828.02	25556
828.159	25723
828.298	25632
828.437	25799
828.577	25666
828.716	25655
828.855	25666
828.994	25434
829.134	25365
829.273	25434
829.412	25388
829.551	25232
829.69	25308
829.829	25430
829.968	25499
830.107	25430
830.246	25358
830.385	25339
830.524	25240
830.663	25270
830.802	25179
830.941	25023
831.08	25057
831.219	25152
831.357	25076
831.496	25308
831.635	24958
831.774	24939
831.913	24787
832.051	24776
832.19	24783
832.329	24700
832.467	24745
832.606	24768
832.744	24719
832.883	24726
833.022	24795
833.16	24730
833.299	24768
833.437	24741
833.576	24791
833.714	24745
833.852	24776
833.991	24734
834.129	24757
834.267	24867
834.406	24844
834.544	24894
834.682	24760
834.821	24825
834.959	24817
835.097	24585
835.235	24650
835.373	24817
835.511	24795
835.65	24479
835.788	24593
835.926	24372
836.064	24384
836.202	24517
836.34	24620
836.478	24791
836.615	24376
836.753	24631
836.891	24741
837.029	24642
837.167	24513
837.305	24566
837.443	24407
837.58	24296
837.718	24369
837.856	24445
837.993	24388
838.131	24372
838.269	24205
838.406	24224
838.544	24247
838.681	24007
838.819	24114
838.956	23783
839.094	23737
839.231	23798
839.369	24159
839.506	24163
839.643	24076
839.781	23916
839.918	23843
840.055	23691
840.193	23722
840.33	23657
840.467	23653
840.604	23893
840.742	23977
840.879	23608
841.016	23547
841.153	23608
841.29	23809
841.427	23680
841.564	23756
841.701	23824
841.838	23741
841.975	23608
842.112	23695
842.249	23680
842.385	23524
842.522	23718
842.659	23490
842.796	23486
842.933	23501
843.069	23486
843.206	23501
843.343	23520
843.479	23467
843.616	23516
843.752	23250
843.889	23356
844.025	23292
844.162	23299
844.298	23307
844.435	23372
844.571	23235
844.708	23231
844.844	23417
844.98	23398
845.117	23440
845.253	23315
845.389	23124
845.525	23102
845.661	23159
845.798	22927
845.934	23003
846.07	22972
846.206	23029
846.342	23090
846.478	22987
846.614	22892
846.75	22717
846.886	22854
847.022	22824
847.158	22729
847.294	22854
847.429	22740
847.565	22713
847.701	22984
847.837	22535
847.972	22535
848.108	22527
848.244	22538
848.379	22417
848.515	22299
848.65	22375
848.786	22405
848.921	22493
849.057	22360
849.192	22421
849.328	22299
849.463	22272
849.598	22276
849.734	22265
849.869	22162
850.004	22067
850.14	22124
850.275	22143
850.41	22025
850.545	21918
850.68	22029
850.815	22234
850.95	22150
851.085	22295
851.22	22246
851.355	22131
851.49	22181
851.625	22002
851.76	21994
851.895	21972
852.03	22029
852.165	22154
852.299	22162
852.434	22223
852.569	22090
852.703	22169
852.838	22131
852.973	22280
853.107	22204
853.242	22055
853.376	21941
853.511	21835
853.645	21880
853.78	22029
853.914	21926
854.048	21831
854.183	21827
854.317	21918
854.451	22162
854.585	21956
854.72	22013
854.854	22025
854.988	21827
855.122	21918
855.256	21861
855.39	21915
855.524	22025
855.658	21937
855.792	21941
855.926	21911
856.06	22021
856.194	21972
856.327	22017
856.461	21869
856.595	21816
856.729	21987
856.862	22048
856.996	21956
857.13	21907
857.263	22032
857.397	22063
857.53	21945
857.664	21854
857.797	22002
857.931	21975
858.064	21846
858.197	22055
858.331	21793
858.464	21873
858.597	21835
858.731	22101
858.864	21907
858.997	21899
859.13	21934
859.263	21918
859.396	22017
859.529	22055
859.662	21823
859.795	21911
859.928	21934
860.061	22021
860.194	22063
860.327	21953
860.46	21998
860.592	21983
860.725	22048
860.858	22021
860.99	21854
861.123	21899
861.256	21850
861.388	21827
861.521	22706
861.653	21835
861.786	21732
861.918	21739
862.05	21656
862.183	21842
862.315	21964
862.447	21975
862.58	21804
862.712	21648
862.844	21538
862.976	21686
863.108	21633
863.24	22196
863.372	21447
863.504	21709
863.636	21610
863.768	21679
863.9	21587
864.032	21553
864.164	21511
864.296	21641
864.428	21816
864.559	21694
864.691	21736
864.823	21530
864.954	21564
865.086	21724
865.217	21496
865.349	21496
865.48	21462
865.612	21564
865.743	21701
865.875	21420
866.006	21485
866.137	21496
866.269	21557
866.4	21618
866.531	21405
866.662	21340
866.793	21504
866.924	21450
867.055	21534
867.186	21469
867.317	21447
867.448	21382
867.579	21397
867.71	21310
867.841	21351
867.972	21504
868.103	21458
868.233	21496
868.364	21485
868.495	21671
868.625	21717
868.756	21724
868.886	21724
869.017	21675
869.147	21793
869.278	21770
869.408	21739
869.539	21709
869.669	21739
869.799	21652
869.929	21857
870.06	21751
870.19	22078
870.32	21975
870.45	22059
870.58	22147
870.71	22192
870.84	22185
870.97	22204
871.1	22234
871.23	22325
871.36	22276
871.489	22154
871.619	22280
871.749	22382
871.879	22402
872.008	22405
872.138	22257
872.267	22261
872.397	22177
872.526	22139
872.656	22177
872.785	22154
872.915	22322
873.044	22390
873.173	22329
873.303	22402
873.432	22291
873.561	22310
873.69	22280
873.819	22318
873.948	22394
874.077	22367
874.206	22226
874.335	22371
874.464	22424
874.593	22641
874.722	22470
874.851	22561
874.979	22588
875.108	22588
875.237	22554
875.365	22443
875.494	22580
875.623	22615
875.751	22527
875.88	22523
876.008	22596
876.136	22645
876.265	22843
876.393	22938
876.521	22980
876.65	22965
876.778	22968
876.906	22869
877.034	22847
877.162	22824
877.29	22911
877.418	22877
877.546	22908
877.674	22869
877.802	22847
877.93	22847
878.058	22889
878.185	22748
878.313	22691
878.441	22809
878.568	22615
878.696	22706
878.824	22831
878.951	22949
879.079	23006
879.206	23067
879.333	22972
879.461	22812
879.588	22946
879.715	22923
879.842	23086
879.97	22976
880.097	22786
880.224	22748
880.351	22698
880.478	22599
880.605	22660
880.732	22740
880.859	22820
880.986	22577
881.112	22725
881.239	22554
881.366	22440
881.493	22379
881.619	22109
881.746	22303
881.872	22238
881.999	22249
882.125	22128
882.252	22417
882.378	22135
882.505	22253
882.631	22032
882.757	22078
882.883	22097
883.01	21911
883.136	21953
883.262	21972
883.388	21869
883.514	21934
883.64	22051
883.766	21869
883.892	21682
884.018	21797
884.143	21880
884.269	22074
884.395	21629
884.52	21538
884.646	21698
884.772	21439
884.897	21469
885.023	21599
885.148	21728
885.274	21793
885.399	21610
885.524	21641
885.65	21545
885.775	21473
885.9	21530
886.025	21553
886.15	21720
886.275	21523
886.4	21496
886.525	21595
886.65	21625
886.775	21526
886.9	21698
887.025	21755
887.149	21523
887.274	21450
887.399	21382
887.523	21401
887.648	21336
887.773	21401
887.897	21473
888.021	21481
888.146	21294
888.27	21405
888.395	21500
888.519	21367
888.643	21428
888.767	21374
888.891	21207
889.015	21230
889.139	21165
889.263	21173
889.387	21268
889.511	21310
889.635	21237
889.759	21230
889.883	21150
890.006	21043
890.13	21222
890.254	21154
890.377	21055
890.501	20796
890.624	20986
890.748	20891
890.871	20735
890.995	20785
891.118	20606
891.241	20765
891.364	20716
891.488	20796
891.611	20758
891.734	20735
891.857	20670
891.98	20712
892.103	20651
892.226	20746
892.349	20655
892.471	20488
892.594	20587
892.717	20518
892.839	20629
892.962	20636
893.085	20625
893.207	20644
893.33	20465
893.452	20492
893.575	20587
893.697	20598
893.819	20644
893.941	20758
894.064	20663
894.186	20511
894.308	20541
894.43	20629
894.552	20724
894.674	20697
894.796	20530
894.918	20583
895.04	20587
895.161	20587
895.283	20609
895.405	20480
895.526	20632
895.648	20648
895.769	20415
895.891	20701
896.012	20743
896.134	20564
896.255	20568
896.376	20492
896.498	20537
896.619	20629
896.74	20503
896.861	20556
896.982	20819
897.103	20952
897.224	20891
897.345	20868
897.466	20739
897.587	20697
897.708	20902
897.828	20697
897.949	20807
898.07	20674
898.19	20788
898.311	20830
898.431	20792
898.552	20727
898.672	20880
898.792	20933
898.913	20739
899.033	20693
899.153	20511
899.273	20431
899.393	20465
899.513	20537
899.633	20526
899.753	20530
899.873	20423
899.993	20469
900.113	20511
900.232	20583
900.352	20514
900.472	20423
900.591	20225
900.711	20358
900.83	20385
900.95	20358
901.069	20275
901.189	20206
901.308	19936
901.427	19932
901.546	19788
901.665	19902
901.784	19757
901.904	19746
902.023	19719
902.141	19487
902.26	19460
902.379	19544
902.498	19430
902.617	19304
902.735	19445
902.854	19335
902.973	19301
903.091	19050
903.21	19171
903.328	19004
903.446	18935
903.565	18973
903.683	18852
903.801	18730
903.919	18779
904.038	18764
904.156	18646
904.274	18684
904.392	18574
904.51	18570
904.627	18578
904.745	18650
904.863	18684
904.981	18563
905.098	18410
905.216	18429
905.334	18300
905.451	18292
905.569	18190
905.686	18304
905.803	18243
905.921	18068
906.038	18285
906.155	18133
906.272	17977
906.389	18038
906.506	17836
906.623	17813
906.74	17809
906.857	17752
906.974	17790
907.091	17897
907.208	17855
907.324	17840
907.441	17805
907.557	17600
907.674	17524
907.79	17486
907.907	17539
908.023	17600
908.139	17505
908.256	17570
908.372	17474
908.488	17410
908.604	17261
908.72	17277
908.836	17372
908.952	17166
909.068	17303
909.184	17459
909.3	17235
909.415	17334
909.531	17269
909.647	16923
909.762	16991
909.878	16991
909.993	16957
910.108	16919
910.224	16824
910.339	16957
910.454	16759
910.57	16755
910.685	16702
910.8	17010
910.915	17025
911.03	16805
911.145	16596
911.259	16538
911.374	16531
911.489	16466
911.604	16436
911.718	16257
911.833	16268
911.947	16204
912.062	16071
912.176	16287
912.291	16253
912.405	16299
912.519	16421
912.633	16481
912.748	16352
912.862	16215
912.976	16120
913.09	16044
913.204	16101
913.318	15991
913.431	16200
913.545	16276
913.659	16234
913.772	16021
913.886	15873
914	15903
914.113	15991
914.226	15911
914.34	15937
914.453	15781
914.566	15846
914.68	15793
914.793	15686
914.906	15629
915.019	15538
915.132	15538
915.245	15477
915.358	15534
915.47	15477
915.583	15412
915.696	15511
915.809	15576
915.921	15591
916.034	15401
916.146	15336
916.259	15336
916.371	15408
916.483	15431
916.595	15230
916.708	15241
916.82	15233
916.932	15298
917.044	15264
917.156	15233
917.268	15192
917.38	15207
917.491	15070
917.603	15165
917.715	15176
917.826	15272
917.938	15074
918.049	15036
918.161	15097
918.272	15203
918.384	15256
918.495	15001
918.606	14807
918.717	14830
918.828	14800
918.939	14861
919.05	14815
919.161	14899
919.272	14644
919.383	14720
919.494	14823
919.604	14941
919.715	14872
919.826	14663
919.936	14796
920.047	14838
920.157	14765
920.267	14956
920.378	14918
920.488	14758
920.598	14990
920.708	15222
920.818	14925
920.928	14990
921.038	15119
921.148	15077
921.258	14712
921.368	14636
921.477	14514
921.587	14526
921.697	14320
921.806	14556
921.916	14446
922.025	14221
922.134	14157
922.244	14084
922.353	14210
922.462	14054
922.571	13993
922.68	13738
922.789	13822
922.898	13890
923.007	13803
923.116	13803
923.224	13799
923.333	13731
923.442	13696
923.55	13681
923.659	13674
923.767	13715
923.876	13582
923.984	13750
924.092	13594
924.201	13544
924.309	13601
924.417	13616
924.525	13518
924.633	13491
924.741	14282
924.849	13301
924.956	13426
925.064	13228
925.172	13152
925.279	13244
925.387	13297
925.494	13206
925.602	13377
925.709	13270
925.816	13141
925.924	13164
926.031	13377
926.138	13190
926.245	13259
926.352	13122
926.459	13149
926.566	13221
926.673	13171
926.779	12970
926.886	13050
926.993	12791
927.099	12795
927.206	12745
927.312	12677
927.419	12814
927.525	12814
927.631	12776
927.737	12620
927.843	12593
927.95	12475
928.056	12536
928.162	12601
928.267	12677
928.373	13301
928.479	12673
928.585	12445
928.69	12585
928.796	12658
928.901	12467
929.007	12292
929.112	12441
929.218	12445
929.323	12342
929.428	12369
929.533	12445
929.638	12262
929.743	12209
929.848	12285
929.953	12289
930.058	12228
930.163	11973
930.267	11984
930.372	12102
930.477	11935
930.581	12254
930.685	12011
930.79	11878
930.894	11870
930.998	11817
931.103	11969
931.207	11653
931.311	11509
931.415	11520
931.519	11334
931.623	11258
