Data from test_V78500241_511.txt Node
Date: Fri Mar 25 15:13:25 CST 2022
User: usil
Spectrometer: V785-0024
Trigger mode: 0
Integration Time (sec): 4.000000E-1
Scans to average: 1
Nonlinearity correction enabled: false
Boxcar width: 0
Storing dark spectrum: false
XAxis mode: Wavelengths
Number of Pixels in Spectrum: 1024
>>>>>Begin Spectral Data<<<<<
801.071	27294
801.214	27416
801.356	27131
801.499	27123
801.641	27108
801.783	27039
801.926	26990
802.068	26933
802.211	26876
802.353	26765
802.496	26674
802.638	26727
802.78	26518
802.923	26682
803.065	26423
803.208	26533
803.35	26682
803.492	26731
803.635	26788
803.777	26716
803.919	26777
804.061	27039
804.204	26785
804.346	26655
804.488	26724
804.63	26758
804.773	26796
804.915	26739
805.057	26861
805.199	26792
805.341	26956
805.483	26819
805.626	26906
805.768	26883
805.91	26994
806.052	26971
806.194	26762
806.336	27051
806.478	26826
806.62	26895
806.762	26998
806.904	27157
807.046	27462
807.188	27298
807.33	27237
807.472	27302
807.614	27188
807.756	27298
807.898	27192
808.04	27108
808.182	27154
808.324	27268
808.465	27279
808.607	27348
808.749	27294
808.891	27534
809.033	27717
809.174	27644
809.316	27507
809.458	27424
809.6	27553
809.741	27526
809.883	27591
810.025	27625
810.166	27644
810.308	27762
810.45	27831
810.591	27667
810.733	27705
810.875	27515
811.016	27431
811.158	27317
811.299	27629
811.441	27675
811.582	27675
811.724	27500
811.865	27473
812.007	27374
812.148	27310
812.29	27450
812.431	27667
812.573	27968
812.714	27857
812.855	27930
812.997	28257
813.138	28303
813.279	28215
813.421	27994
813.562	27998
813.703	27869
813.845	27800
813.986	27397
814.127	27294
814.268	27321
814.41	27127
814.551	27112
814.692	27298
814.833	27062
814.974	27077
815.115	27161
815.256	26979
815.397	27093
815.539	27058
815.68	27070
815.821	27024
815.962	26956
816.103	26823
816.244	26712
816.385	26800
816.526	26731
816.666	26655
816.807	26351
816.948	26473
817.089	26587
817.23	26514
817.371	26480
817.512	26469
817.653	26461
817.793	26377
817.934	26427
818.075	26492
818.216	26339
818.356	26484
818.497	26400
818.638	26267
818.778	26332
818.919	26225
819.06	26122
819.2	26324
819.341	26343
819.481	26412
819.622	26667
819.762	26674
819.903	26705
820.043	26541
820.184	26568
820.324	26731
820.465	26640
820.605	26739
820.746	26526
820.886	26389
821.026	26533
821.167	26537
821.307	26602
821.447	26473
821.588	26164
821.728	26358
821.868	26134
822.008	25894
822.149	25921
822.289	25807
822.429	25613
822.569	25597
822.709	25563
822.849	25384
822.99	25411
823.13	25350
823.27	25274
823.41	25255
823.55	25247
823.69	25221
823.83	25335
823.97	25141
824.11	25091
824.25	24943
824.389	24970
824.529	25110
824.669	25137
824.809	25072
824.949	25137
825.089	25076
825.228	25046
825.368	24928
825.508	24833
825.648	24943
825.787	25038
825.927	25057
826.067	24829
826.206	24947
826.346	24920
826.485	24844
826.625	24954
826.765	24985
826.904	25012
827.044	24734
827.183	24661
827.323	24551
827.462	24684
827.601	24692
827.741	24631
827.88	24692
828.02	24452
828.159	24570
828.298	24589
828.437	24707
828.577	24570
828.716	24764
828.855	24612
828.994	24391
829.134	24334
829.273	24361
829.412	24342
829.551	24186
829.69	24319
829.829	24384
829.968	24426
830.107	24426
830.246	24330
830.385	24213
830.524	24334
830.663	24041
830.802	24053
830.941	23992
831.08	23824
831.219	24015
831.357	23973
831.496	24228
831.635	23870
831.774	23874
831.913	23817
832.051	23649
832.19	23718
832.329	23821
832.467	23695
832.606	23661
832.744	23531
832.883	23535
833.022	23592
833.16	23687
833.299	23630
833.437	23665
833.576	23722
833.714	23767
833.852	23904
833.991	23600
834.129	23745
834.267	23821
834.406	23661
834.544	23779
834.682	23760
834.821	23589
834.959	23786
835.097	23531
835.235	23691
835.373	23604
835.511	23714
835.65	23581
835.788	23551
835.926	23345
836.064	23379
836.202	23410
836.34	23581
836.478	23634
836.615	23398
836.753	23516
836.891	23646
837.029	23516
837.167	23528
837.305	23376
837.443	23387
837.58	23414
837.718	23551
837.856	23391
837.993	23227
838.131	23414
838.269	23383
838.406	23406
838.544	23181
838.681	23090
838.819	23048
838.956	22805
839.094	22858
839.231	22793
839.369	22957
839.506	23181
839.643	23064
839.781	22816
839.918	22881
840.055	22793
840.193	22869
840.33	22831
840.467	22828
840.604	22869
840.742	23075
840.879	22584
841.016	22683
841.153	22729
841.29	22873
841.427	22740
841.564	22831
841.701	22744
841.838	22831
841.975	22557
842.112	22691
842.249	22542
842.385	22523
842.522	22710
842.659	22565
842.796	22459
842.933	22550
843.069	22577
843.206	22497
843.343	22588
843.479	22599
843.616	22538
843.752	22287
843.889	22352
844.025	22440
844.162	22169
844.298	22325
844.435	22348
844.571	22238
844.708	22356
844.844	22546
844.98	22402
845.117	22455
845.253	22116
845.389	22143
845.525	22185
845.661	22234
845.798	21960
845.934	22162
846.07	22067
846.206	22067
846.342	22230
846.478	22124
846.614	21854
846.75	21827
846.886	21835
847.022	21850
847.158	21812
847.294	21846
847.429	21854
847.565	21663
847.701	22093
847.837	21504
847.972	21458
848.108	21667
848.244	21606
848.379	21416
848.515	21363
848.65	21393
848.786	21481
848.921	21382
849.057	21519
849.192	21386
849.328	21485
849.463	21507
849.598	21439
849.734	21256
849.869	21192
850.004	21230
850.14	21157
850.275	21233
850.41	21039
850.545	20990
850.68	21089
850.815	21252
850.95	21165
851.085	21245
851.22	21298
851.355	21218
851.49	21154
851.625	21127
851.76	21173
851.895	21100
852.03	21051
852.165	21154
852.299	21211
852.434	21260
852.569	21142
852.703	21199
852.838	21074
852.973	21230
853.107	21291
853.242	21001
853.376	20952
853.511	20845
853.645	20861
853.78	21020
853.914	21039
854.048	20910
854.183	21036
854.317	21009
854.451	21077
854.585	21009
854.72	20937
854.854	20982
854.988	20887
855.122	20967
855.256	20781
855.39	20872
855.524	21214
855.658	20979
855.792	20944
855.926	20963
856.06	20979
856.194	20956
856.327	20902
856.461	20899
856.595	21032
856.729	20960
856.862	21058
856.996	20971
857.13	20906
857.263	21116
857.397	21043
857.53	20944
857.664	20921
857.797	21131
857.931	21062
858.064	21066
858.197	21131
858.331	20948
858.464	20948
858.597	20693
858.731	20849
858.864	20849
858.997	20838
859.13	20872
859.263	20986
859.396	21043
859.529	20819
859.662	20887
859.795	20929
859.928	20971
860.061	21154
860.194	21085
860.327	21001
860.46	20994
860.592	21089
860.725	21264
860.858	21154
860.99	20952
861.123	20883
861.256	20975
861.388	20925
861.521	21701
861.653	20838
861.786	20762
861.918	20788
862.05	20868
862.183	20914
862.315	20994
862.447	21074
862.58	21043
862.712	20705
862.844	20674
862.976	20834
863.108	20735
863.24	20883
863.372	20613
863.504	20758
863.636	20670
863.768	20682
863.9	20609
864.032	20587
864.164	20659
864.296	20701
864.428	20762
864.559	20853
864.691	20705
864.823	20537
864.954	20587
865.086	20648
865.217	20575
865.349	20613
865.48	20651
865.612	20568
865.743	20785
865.875	20629
866.006	20571
866.137	20571
866.269	20526
866.4	20526
866.531	20511
866.662	20461
866.793	20609
866.924	20575
867.055	20575
867.186	20606
867.317	20480
867.448	20465
867.579	20492
867.71	20514
867.841	20377
867.972	20400
868.103	20579
868.233	20602
868.364	20480
868.495	20507
868.625	20674
868.756	20811
868.886	20731
869.017	20712
869.147	20823
869.278	20899
869.408	20678
869.539	20773
869.669	20864
869.799	20826
869.929	20849
870.06	20910
870.19	21028
870.32	21024
870.45	21024
870.58	21165
870.71	21351
870.84	21237
870.97	21150
871.1	21188
871.23	21233
871.36	21367
871.489	21329
871.619	21256
871.749	21252
871.879	21439
872.008	21523
872.138	21458
872.267	21291
872.397	21127
872.526	21173
872.656	21302
872.785	21203
872.915	21272
873.044	21412
873.173	21260
873.303	21447
873.432	21530
873.561	21458
873.69	21382
873.819	21260
873.948	21447
874.077	21382
874.206	21386
874.335	21321
874.464	21344
874.593	21591
874.722	21507
874.851	21675
874.979	21549
875.108	21785
875.237	21507
875.365	21564
875.494	21576
875.623	21633
875.751	21629
875.88	21603
876.008	21717
876.136	21728
876.265	21972
876.393	22162
876.521	22074
876.65	21979
876.778	21983
876.906	21972
877.034	21945
877.162	21918
877.29	21831
877.418	21960
877.546	21987
877.674	21953
877.802	21892
877.93	21873
878.058	21972
878.185	21831
878.313	21857
878.441	21869
878.568	21850
878.696	21899
878.824	22021
878.951	22086
879.079	22265
879.206	22143
879.333	22070
879.461	21994
879.588	22078
879.715	22207
879.842	22314
879.97	22006
880.097	21785
880.224	21774
880.351	21861
880.478	21861
880.605	21736
880.732	21789
880.859	21918
880.986	21747
881.112	21823
881.239	21739
881.366	21545
881.493	21412
881.619	21386
881.746	21363
881.872	21351
881.999	21443
882.125	21180
882.252	21378
882.378	21340
882.505	21420
882.631	21142
882.757	21108
882.883	21085
883.01	21104
883.136	21017
883.262	20895
883.388	20895
883.514	20994
883.64	21013
883.766	20963
883.892	20823
884.018	20857
884.143	20933
884.269	21062
884.395	20765
884.52	20697
884.646	20629
884.772	20606
884.897	20674
885.023	20724
885.148	20724
885.274	20891
885.399	20826
885.524	20568
885.65	20758
885.775	20796
885.9	20667
886.025	20781
886.15	20648
886.275	20629
886.4	20758
886.525	20644
886.65	20651
886.775	20743
886.9	20815
887.025	20921
887.149	20583
887.274	20533
887.399	20393
887.523	20419
887.648	20431
887.773	20370
887.897	20545
888.021	20507
888.146	20484
888.27	20549
888.395	20537
888.519	20526
888.643	20537
888.767	20465
888.891	20476
889.015	20199
889.139	20473
889.263	20301
889.387	20309
889.511	20602
889.635	20396
889.759	20301
889.883	20431
890.006	20278
890.13	20309
890.254	20187
890.377	20339
890.501	20145
890.624	19963
890.748	20069
890.871	19928
890.995	19837
891.118	19818
891.241	19909
891.364	19909
891.488	19970
891.611	19769
891.734	19932
891.857	19849
891.98	19818
892.103	19928
892.226	19776
892.349	19822
892.471	19643
892.594	19750
892.717	19769
892.839	19700
892.962	19700
893.085	19791
893.207	19746
893.33	19601
893.452	19567
893.575	19837
893.697	19689
893.819	19970
893.941	19993
894.064	19860
894.186	19708
894.308	19632
894.43	19841
894.552	19951
894.674	19818
894.796	19658
894.918	19830
895.04	19700
895.161	19852
895.283	19807
895.405	19643
895.526	19727
895.648	19689
895.769	19860
895.891	19845
896.012	19795
896.134	19780
896.255	19807
896.376	19708
896.498	19803
896.619	19902
896.74	19845
896.861	19849
896.982	20084
897.103	20290
897.224	20073
897.345	19970
897.466	19860
897.587	19890
897.708	20065
897.828	19986
897.949	19944
898.07	19818
898.19	19917
898.311	19959
898.431	19852
898.552	19974
898.672	20073
898.792	20069
898.913	20168
899.033	19989
899.153	19883
899.273	19689
899.393	19723
899.513	19696
899.633	19769
899.753	19795
899.873	19719
899.993	19712
900.113	19597
900.232	19772
900.352	19734
900.472	19521
900.591	19552
900.711	19540
900.83	19419
900.95	19552
901.069	19624
901.189	19521
901.308	19103
901.427	19114
901.546	19046
901.665	19175
901.784	19156
901.904	19034
902.023	18958
902.141	18795
902.26	18722
902.379	18612
902.498	18593
902.617	18620
902.735	18677
902.854	18730
902.973	18566
903.091	18380
903.21	18273
903.328	18323
903.446	18277
903.565	18117
903.683	18007
903.801	18106
903.919	18114
904.038	18068
904.156	17843
904.274	18030
904.392	17760
904.51	17863
904.627	17901
904.745	18011
904.863	18030
904.981	17516
905.098	17543
905.216	17539
905.334	17638
905.451	17505
905.569	17585
905.686	17611
905.803	17497
905.921	17337
906.038	17402
906.155	17368
906.272	17265
906.389	17303
906.506	17132
906.623	17067
906.74	17102
906.857	16972
906.974	16957
907.091	17250
907.208	17273
907.324	17128
907.441	17083
907.557	16923
907.674	16858
907.79	16740
907.907	16809
908.023	16847
908.139	16774
908.256	16752
908.372	16706
908.488	16577
908.604	16558
908.72	16459
908.836	16523
908.952	16535
909.068	16618
909.184	16687
909.3	16538
909.415	16634
909.531	16660
909.647	16348
909.762	16242
909.878	16242
909.993	16261
910.108	16230
910.224	16223
910.339	16303
910.454	16093
910.57	16105
910.685	15888
910.8	16265
910.915	16166
911.03	16059
911.145	15819
911.259	15903
911.374	15808
911.489	15827
911.604	15705
911.718	15633
911.833	15557
911.947	15469
912.062	15420
912.176	15549
912.291	15568
912.405	15637
912.519	15854
912.633	15736
912.748	15720
912.862	15553
912.976	15393
913.09	15325
913.204	15496
913.318	15454
913.431	15492
913.545	15466
913.659	15405
913.772	15294
913.886	15207
914	15283
914.113	15363
914.226	15298
914.34	15252
914.453	15062
914.566	15180
914.68	15173
914.793	15089
914.906	14887
915.019	14857
915.132	14849
915.245	14872
915.358	14826
915.47	14830
915.583	14792
915.696	14864
915.809	14960
915.921	14937
916.034	14712
916.146	14724
916.259	14781
916.371	14762
916.483	14773
916.595	14674
916.708	14670
916.82	14632
916.932	14587
917.044	14701
917.156	14621
917.268	14492
917.38	14488
917.491	14423
917.603	14442
917.715	14560
917.826	14632
917.938	14320
918.049	14332
918.161	14366
918.272	14579
918.384	14556
918.495	14412
918.606	14362
918.717	14229
918.828	14248
918.939	14351
919.05	14195
919.161	14176
919.272	14008
919.383	14096
919.494	14313
919.604	14446
919.715	14229
919.826	14183
919.936	14149
920.047	14267
920.157	14275
920.267	14358
920.378	14256
920.488	14229
920.598	14290
920.708	14465
920.818	14347
920.928	14305
921.038	14412
921.148	14492
921.258	14210
921.368	14039
921.477	14012
921.587	13906
921.697	13890
921.806	13963
921.916	13833
922.025	13772
922.134	13613
922.244	13540
922.353	13658
922.462	13438
922.571	13396
922.68	13301
922.789	13221
922.898	13259
923.007	13152
923.116	13301
923.224	13232
923.333	13179
923.442	13103
923.55	13168
923.659	13114
923.767	13187
923.876	13050
923.984	13129
924.092	13080
924.201	13110
924.309	13000
924.417	12985
924.525	12985
924.633	12966
924.741	13655
924.849	12745
924.956	12916
925.064	12772
925.172	12677
925.279	12677
925.387	12749
925.494	12662
925.602	12787
925.709	12776
925.816	12597
925.924	12673
926.031	12726
926.138	12654
926.245	12616
926.352	12506
926.459	12654
926.566	12726
926.673	12662
926.779	12502
926.886	12460
926.993	12296
927.099	12277
927.206	12175
927.312	12171
927.419	12338
927.525	12209
927.631	12243
927.737	12148
927.843	12136
927.95	12030
928.056	12022
928.162	12083
928.267	12186
928.373	12646
928.479	12182
928.585	11939
928.69	12110
928.796	12186
928.901	12019
929.007	11897
929.112	12110
929.218	11923
929.323	11908
929.428	11843
929.533	11901
929.638	11695
929.743	11737
929.848	11805
929.953	11802
930.058	11665
930.163	11512
930.267	11573
930.372	11699
930.477	11482
930.581	11691
930.685	11562
930.79	11417
930.894	11429
930.998	11417
931.103	11474
931.207	11140
931.311	11067
931.415	11029
931.519	10854
931.623	10748
