Data from test_V78500241_2861.txt Node
Date: Fri Mar 25 15:29:46 CST 2022
User: usil
Spectrometer: V785-0024
Trigger mode: 0
Integration Time (sec): 4.000000E-1
Scans to average: 1
Nonlinearity correction enabled: false
Boxcar width: 0
Storing dark spectrum: false
XAxis mode: Wavelengths
Number of Pixels in Spectrum: 1024
>>>>>Begin Spectral Data<<<<<
801.071	27180
801.214	27131
801.356	26899
801.499	26891
801.641	26777
801.783	26716
801.926	26743
802.068	26590
802.211	26739
802.353	26533
802.496	26412
802.638	26309
802.78	26252
802.923	26229
803.065	26355
803.208	26256
803.35	26438
803.492	26594
803.635	26453
803.777	26492
803.919	26564
804.061	26804
804.204	26514
804.346	26396
804.488	26480
804.63	26469
804.773	26400
804.915	26457
805.057	26686
805.199	26511
805.341	26587
805.483	26518
805.626	26640
805.768	26518
805.91	26560
806.052	26648
806.194	26655
806.336	26731
806.478	26651
806.62	26598
806.762	26727
806.904	26971
807.046	27020
807.188	27142
807.33	27131
807.472	26967
807.614	27074
807.756	27085
807.898	26864
808.04	26864
808.182	26746
808.324	26819
808.465	26914
808.607	26937
808.749	27359
808.891	27272
809.033	27370
809.174	27348
809.316	27199
809.458	27275
809.6	27138
809.741	27367
809.883	27363
810.025	27439
810.166	27485
810.308	27545
810.45	27420
810.591	27393
810.733	27378
810.875	27089
811.016	27165
811.158	27165
811.299	27363
811.441	27344
811.582	27481
811.724	27272
811.865	27119
812.007	27066
812.148	27047
812.29	27116
812.431	27321
812.573	27515
812.714	27603
812.855	27701
812.997	27903
813.138	27873
813.279	27778
813.421	27804
813.562	27774
813.703	27526
813.845	27534
813.986	27169
814.127	27032
814.268	26807
814.41	26921
814.551	26705
814.692	27020
814.833	26910
814.974	26758
815.115	26963
815.256	26773
815.397	26792
815.539	26663
815.68	26575
815.821	26571
815.962	26735
816.103	26636
816.244	26533
816.385	26453
816.526	26446
816.666	26244
816.807	26122
816.948	26172
817.089	26168
817.23	26157
817.371	26111
817.512	26081
817.653	26134
817.793	26039
817.934	26142
818.075	26050
818.216	26119
818.356	26153
818.497	26115
818.638	25704
818.778	25932
818.919	25830
819.06	26043
819.2	25993
819.341	25978
819.481	26092
819.622	26218
819.762	26431
819.903	26446
820.043	26172
820.184	26221
820.324	26199
820.465	26202
820.605	26259
820.746	26248
820.886	26020
821.026	26149
821.167	26126
821.307	26263
821.447	26043
821.588	26073
821.728	25856
821.868	25746
822.008	25491
822.149	25548
822.289	25540
822.429	25187
822.569	25194
822.709	25331
822.849	25088
822.99	25046
823.13	24962
823.27	24962
823.41	24768
823.55	24646
823.69	24932
823.83	24989
823.97	24916
824.11	24681
824.25	24779
824.389	24696
824.529	24722
824.669	24703
824.809	24928
824.949	24722
825.089	24894
825.228	24753
825.368	24536
825.508	24677
825.648	24547
825.787	24593
825.927	24707
826.067	24502
826.206	24681
826.346	24627
826.485	24696
826.625	24669
826.765	24661
826.904	24658
827.044	24292
827.183	24216
827.323	24205
827.462	24357
827.601	24330
827.741	24155
827.88	24144
828.02	24091
828.159	24133
828.298	24235
828.437	24289
828.577	24228
828.716	24437
828.855	24182
828.994	24049
829.134	24026
829.273	23878
829.412	24072
829.551	23878
829.69	24038
829.829	24003
829.968	24041
830.107	24083
830.246	23965
830.385	24011
830.524	23802
830.663	23817
830.802	23672
830.941	23490
831.08	23516
831.219	23668
831.357	23741
831.496	23760
831.635	23638
831.774	23387
831.913	23463
832.051	23261
832.19	23254
832.329	23322
832.467	23280
832.606	23227
832.744	23383
832.883	23113
833.022	23280
833.16	23311
833.299	23292
833.437	23239
833.576	23356
833.714	23318
833.852	23315
833.991	23376
834.129	23512
834.267	23440
834.406	23284
834.544	23273
834.682	23372
834.821	23280
834.959	23402
835.097	23231
835.235	23459
835.373	23337
835.511	23231
835.65	23273
835.788	23185
835.926	23113
836.064	23048
836.202	22816
836.34	23197
836.478	23322
836.615	23117
836.753	22957
836.891	23254
837.029	23113
837.167	23216
837.305	22991
837.443	22885
837.58	22972
837.718	22885
837.856	23029
837.993	22919
838.131	22930
838.269	22858
838.406	22801
838.544	22793
838.681	22611
838.819	22752
838.956	22455
839.094	22493
839.231	22455
839.369	22557
839.506	22835
839.643	22725
839.781	22523
839.918	22382
840.055	22375
840.193	22443
840.33	22287
840.467	22462
840.604	22371
840.742	22588
840.879	22322
841.016	22352
841.153	22226
841.29	22550
841.427	22360
841.564	22421
841.701	22382
841.838	22356
841.975	22265
842.112	22371
842.249	22234
842.385	22234
842.522	22257
842.659	22238
842.796	22128
842.933	22333
843.069	22055
843.206	22101
843.343	22211
843.479	22196
843.616	22093
843.752	21857
843.889	21899
844.025	22120
844.162	21964
844.298	22029
844.435	21838
844.571	21846
844.708	22036
844.844	22090
844.98	22051
845.117	21968
845.253	21960
845.389	21709
845.525	21991
845.661	21724
845.798	21606
845.934	21713
846.07	21523
846.206	21671
846.342	21797
846.478	21679
846.614	21504
846.75	21386
846.886	21469
847.022	21435
847.158	21526
847.294	21492
847.429	21424
847.565	21374
847.701	21663
847.837	21119
847.972	21146
848.108	21226
848.244	21157
848.379	21070
848.515	21013
848.65	21024
848.786	20895
848.921	20998
849.057	21055
849.192	20944
849.328	21024
849.463	20921
849.598	20887
849.734	20849
849.869	20880
850.004	20754
850.14	20708
850.275	20758
850.41	20735
850.545	20724
850.68	20705
850.815	20804
850.95	20724
851.085	20944
851.22	20845
851.355	20750
851.49	20659
851.625	20613
851.76	20834
851.895	20644
852.03	20670
852.165	20765
852.299	20815
852.434	20777
852.569	20758
852.703	20705
852.838	20720
852.973	20842
853.107	20842
853.242	20621
853.376	20522
853.511	20389
853.645	20518
853.78	20674
853.914	20682
854.048	20579
854.183	20514
854.317	20636
854.451	20697
854.585	20522
854.72	20537
854.854	20708
854.988	20590
855.122	20655
855.256	20450
855.39	20526
855.524	20712
855.658	20632
855.792	20526
855.926	20579
856.06	20655
856.194	20602
856.327	20552
856.461	20438
856.595	20461
856.729	20575
856.862	20686
856.996	20537
857.13	20648
857.263	20499
857.397	20651
857.53	20587
857.664	20541
857.797	20598
857.931	20667
858.064	20571
858.197	20640
858.331	20450
858.464	20609
858.597	20526
858.731	20511
858.864	20537
858.997	20393
859.13	20526
859.263	20613
859.396	20632
859.529	20594
859.662	20613
859.795	20522
859.928	20530
860.061	20674
860.194	20804
860.327	20636
860.46	20568
860.592	20716
860.725	20743
860.858	20659
860.99	20511
861.123	20537
861.256	20438
861.388	20541
861.521	21207
861.653	20355
861.786	20374
861.918	20480
862.05	20461
862.183	20454
862.315	20419
862.447	20579
862.58	20533
862.712	20278
862.844	20309
862.976	20389
863.108	20305
863.24	20670
863.372	20271
863.504	20358
863.636	20153
863.768	20366
863.9	20199
864.032	20134
864.164	20301
864.296	20324
864.428	20328
864.559	20343
864.691	20244
864.823	20248
864.954	20385
865.086	20180
865.217	20278
865.349	20126
865.48	20195
865.612	20225
865.743	20218
865.875	20103
866.006	20252
866.137	20324
866.269	20240
866.4	20111
866.531	20210
866.662	20180
866.793	20134
866.924	20187
867.055	20183
867.186	20103
867.317	20073
867.448	20122
867.579	20084
867.71	19955
867.841	20020
867.972	20191
868.103	20100
868.233	20202
868.364	20282
868.495	20275
868.625	20294
868.756	20389
868.886	20381
869.017	20400
869.147	20522
869.278	20461
869.408	20358
869.539	20339
869.669	20442
869.799	20366
869.929	20549
870.06	20442
870.19	20625
870.32	20625
870.45	20762
870.58	20746
870.71	20807
870.84	20823
870.97	20743
871.1	20777
871.23	20891
871.36	20937
871.489	20948
871.619	20899
871.749	20979
871.879	21112
872.008	21001
872.138	20944
872.267	21020
872.397	20899
872.526	20971
872.656	20838
872.785	20743
872.915	21047
873.044	21074
873.173	21001
873.303	21020
873.432	21081
873.561	21135
873.69	21108
873.819	20899
873.948	21005
874.077	21055
874.206	20982
874.335	20979
874.464	21157
874.593	21317
874.722	21127
874.851	21313
874.979	21249
875.108	21294
875.237	21214
875.365	21112
875.494	21283
875.623	21405
875.751	21275
875.88	21180
876.008	21332
876.136	21408
876.265	21599
876.393	21793
876.521	21694
876.65	21656
876.778	21587
876.906	21500
877.034	21660
877.162	21652
877.29	21580
877.418	21614
877.546	21618
877.674	21709
877.802	21530
877.93	21519
878.058	21572
878.185	21374
878.313	21542
878.441	21530
878.568	21359
878.696	21515
878.824	21564
878.951	21652
879.079	21762
879.206	21911
879.333	21743
879.461	21637
879.588	21713
879.715	21732
879.842	21899
879.97	21667
880.097	21313
880.224	21374
880.351	21412
880.478	21351
880.605	21435
880.732	21435
880.859	21485
880.986	21412
881.112	21351
881.239	21230
881.366	21195
881.493	21142
881.619	21024
881.746	21077
881.872	21005
881.999	21074
882.125	20952
882.252	21028
882.378	20937
882.505	21074
882.631	20914
882.757	20845
882.883	20796
883.01	20625
883.136	20670
883.262	20571
883.388	20571
883.514	20804
883.64	20883
883.766	20682
883.892	20518
884.018	20530
884.143	20693
884.269	20724
884.395	20427
884.52	20347
884.646	20339
884.772	20286
884.897	20233
885.023	20434
885.148	20480
885.274	20427
885.399	20381
885.524	20522
885.65	20366
885.775	20438
885.9	20431
886.025	20499
886.15	20518
886.275	20320
886.4	20229
886.525	20381
886.65	20298
886.775	20301
886.9	20621
887.025	20545
887.149	20370
887.274	20301
887.399	20115
887.523	20214
887.648	20130
887.773	20020
887.897	20229
888.021	20221
888.146	20111
888.27	20233
888.395	20282
888.519	20103
888.643	20172
888.767	20214
888.891	20043
889.015	19955
889.139	19978
889.263	19997
889.387	20046
889.511	20092
889.635	20092
889.759	19856
889.883	19986
890.006	20031
890.13	19955
890.254	19993
890.377	19917
890.501	19719
890.624	19753
890.748	19734
890.871	19563
890.995	19521
891.118	19445
891.241	19685
891.364	19544
891.488	19639
891.611	19552
891.734	19514
891.857	19548
891.98	19624
892.103	19438
892.226	19620
892.349	19559
892.471	19259
892.594	19453
892.717	19521
892.839	19514
892.962	19480
893.085	19495
893.207	19487
893.33	19278
893.452	19464
893.575	19521
893.697	19476
893.819	19563
893.941	19586
894.064	19609
894.186	19472
894.308	19422
894.43	19510
894.552	19620
894.674	19537
894.796	19400
894.918	19441
895.04	19434
895.161	19594
895.283	19537
895.405	19426
895.526	19506
895.648	19521
895.769	19499
895.891	19388
896.012	19616
896.134	19514
896.255	19502
896.376	19354
896.498	19518
896.619	19609
896.74	19514
896.861	19483
896.982	19814
897.103	19906
897.224	19594
897.345	19788
897.466	19548
897.587	19594
897.708	19795
897.828	19864
897.949	19635
898.07	19502
898.19	19674
898.311	19765
898.431	19693
898.552	19658
898.672	19799
898.792	19864
898.913	19738
899.033	19658
899.153	19548
899.273	19422
899.393	19510
899.513	19476
899.633	19540
899.753	19537
899.873	19430
899.993	19457
900.113	19449
900.232	19502
900.352	19331
900.472	19354
900.591	19232
900.711	19362
900.83	19270
900.95	19419
901.069	19312
901.189	19228
901.308	18932
901.427	18795
901.546	18905
901.665	18886
901.784	18837
901.904	18779
902.023	18574
902.141	18441
902.26	18350
902.379	18525
902.498	18323
902.617	18292
902.735	18426
902.854	18372
902.973	18296
903.091	18087
903.21	18083
903.328	17958
903.446	17847
903.565	17916
903.683	17863
903.801	17767
903.919	17897
904.038	17802
904.156	17760
904.274	17775
904.392	17573
904.51	17589
904.627	17554
904.745	17714
904.863	17699
904.981	17444
905.098	17356
905.216	17318
905.334	17296
905.451	17269
905.569	17292
905.686	17345
905.803	17337
905.921	17064
906.038	17197
906.155	17189
906.272	17075
906.389	17067
906.506	16835
906.623	16820
906.74	16774
906.857	16713
906.974	16843
907.091	16915
907.208	16953
907.324	16809
907.441	16790
907.557	16596
907.674	16554
907.79	16493
907.907	16508
908.023	16516
908.139	16622
908.256	16440
908.372	16363
908.488	16440
908.604	16299
908.72	16272
908.836	16382
908.952	16200
909.068	16291
909.184	16356
909.3	16379
909.415	16352
909.531	16386
909.647	16078
909.762	16036
909.878	15922
909.993	16040
910.108	15991
910.224	15873
910.339	16021
910.454	15857
910.57	15857
910.685	15728
910.8	15964
910.915	15972
911.03	15770
911.145	15641
911.259	15564
911.374	15637
911.489	15469
911.604	15469
911.718	15325
911.833	15428
911.947	15386
912.062	15249
912.176	15363
912.291	15431
912.405	15367
912.519	15584
912.633	15553
912.748	15355
912.862	15424
912.976	15218
913.09	15062
913.204	15039
913.318	15203
913.431	15317
913.545	15256
913.659	15321
913.772	15135
913.886	15058
914	15055
914.113	14960
914.226	15036
914.34	14971
914.453	14960
914.566	15043
914.68	14941
914.793	14834
914.906	14625
915.019	14602
915.132	14514
915.245	14644
915.358	14549
915.47	14632
915.583	14613
915.696	14594
915.809	14785
915.921	14663
916.034	14549
916.146	14480
916.259	14549
916.371	14568
916.483	14446
916.595	14415
916.708	14419
916.82	14571
916.932	14480
917.044	14408
917.156	14450
917.268	14469
917.38	14351
917.491	14256
917.603	14298
917.715	14317
917.826	14317
917.938	14233
918.049	14088
918.161	14138
918.272	14347
918.384	14370
918.495	14206
918.606	14180
918.717	13974
918.828	14027
918.939	14050
919.05	13963
919.161	14073
919.272	13841
919.383	13860
919.494	14043
919.604	14214
919.715	14027
919.826	13879
919.936	13974
920.047	14069
920.157	14043
920.267	14225
920.378	13978
920.488	14035
920.598	14164
920.708	14412
920.818	14142
920.928	14142
921.038	14305
921.148	14237
921.258	13989
921.368	13769
921.477	13799
921.587	13712
921.697	13616
921.806	13883
921.916	13563
922.025	13499
922.134	13400
922.244	13331
922.353	13472
922.462	13365
922.571	13202
922.68	13065
922.789	13023
922.898	13072
923.007	13023
923.116	13114
923.224	13084
923.333	13057
923.442	12825
923.55	12928
923.659	12894
923.767	12981
923.876	12810
923.984	12939
924.092	12844
924.201	12806
924.309	12825
924.417	12833
924.525	12707
924.633	12806
924.741	13704
924.849	12467
924.956	12730
925.064	12566
925.172	12479
925.279	12517
925.387	12566
925.494	12452
925.602	12616
925.709	12608
925.816	12426
925.924	12441
926.031	12578
926.138	12509
926.245	12566
926.352	12407
926.459	12574
926.566	12532
926.673	12437
926.779	12254
926.886	12323
926.993	12148
927.099	12087
927.206	12057
927.312	11980
927.419	12087
927.525	12117
927.631	12163
927.737	11965
927.843	11870
927.95	11802
928.056	11958
928.162	11965
928.267	11996
928.373	12623
928.479	12019
928.585	11767
928.69	11847
928.796	11912
928.901	11821
929.007	11710
929.112	11832
929.218	11764
929.323	11691
929.428	11688
929.533	11684
929.638	11562
929.743	11638
929.848	11714
929.953	11623
930.058	11463
930.163	11368
930.267	11391
930.372	11444
930.477	11303
930.581	11554
930.685	11364
930.79	11254
930.894	11330
930.998	11193
931.103	11372
931.207	10976
931.311	10934
931.415	10873
931.519	10702
931.623	10664
