Data from test_V78500241_505.txt Node
Date: Fri Mar 25 15:13:22 CST 2022
User: usil
Spectrometer: V785-0024
Trigger mode: 0
Integration Time (sec): 4.000000E-1
Scans to average: 1
Nonlinearity correction enabled: false
Boxcar width: 0
Storing dark spectrum: false
XAxis mode: Wavelengths
Number of Pixels in Spectrum: 1024
>>>>>Begin Spectral Data<<<<<
801.071	27450
801.214	27268
801.356	27180
801.499	27142
801.641	26940
801.783	27043
801.926	27017
802.068	26845
802.211	26868
802.353	26777
802.496	26625
802.638	26644
802.78	26629
802.923	26568
803.065	26473
803.208	26655
803.35	26625
803.492	26705
803.635	26689
803.777	26648
803.919	26861
804.061	27116
804.204	26819
804.346	26826
804.488	26663
804.63	26807
804.773	26648
804.915	26842
805.057	26781
805.199	26746
805.341	26842
805.483	26887
805.626	26777
805.768	26746
805.91	26921
806.052	26861
806.194	26830
806.336	27180
806.478	26842
806.62	26743
806.762	26994
806.904	27043
807.046	27416
807.188	27249
807.33	27268
807.472	27332
807.614	27325
807.756	27173
807.898	26967
808.04	26944
808.182	27070
808.324	27062
808.465	27096
808.607	27256
808.749	27469
808.891	27698
809.033	27778
809.174	27511
809.316	27587
809.458	27473
809.6	27427
809.741	27389
809.883	27736
810.025	27751
810.166	27781
810.308	27736
810.45	27781
810.591	27812
810.733	27625
810.875	27485
811.016	27416
811.158	27393
811.299	27450
811.441	27629
811.582	27526
811.724	27610
811.865	27526
812.007	27412
812.148	27450
812.29	27405
812.431	27606
812.573	27762
812.714	27937
812.855	28048
812.997	28116
813.138	28280
813.279	28139
813.421	28082
813.562	28078
813.703	27857
813.845	27610
813.986	27386
814.127	27214
814.268	27173
814.41	27195
814.551	27123
814.692	27192
814.833	27081
814.974	27146
815.115	27279
815.256	26982
815.397	26990
815.539	27058
815.68	27005
815.821	26857
815.962	26979
816.103	26956
816.244	26716
816.385	26651
816.526	26674
816.666	26571
816.807	26450
816.948	26590
817.089	26629
817.23	26560
817.371	26339
817.512	26446
817.653	26381
817.793	26446
817.934	26427
818.075	26480
818.216	26377
818.356	26275
818.497	26309
818.638	26084
818.778	26157
818.919	26157
819.06	26301
819.2	26377
819.341	26465
819.481	26469
819.622	26492
819.762	26712
819.903	26629
820.043	26632
820.184	26465
820.324	26495
820.465	26697
820.605	26530
820.746	26495
820.886	26412
821.026	26507
821.167	26556
821.307	26495
821.447	26469
821.588	26347
821.728	26233
821.868	25970
822.008	25947
822.149	25849
822.289	25807
822.429	25746
822.569	25674
822.709	25601
822.849	25430
822.99	25407
823.13	25331
823.27	25289
823.41	25213
823.55	25122
823.69	25168
823.83	25301
823.97	25236
824.11	24981
824.25	24981
824.389	25114
824.529	25091
824.669	25141
824.809	25126
824.949	25198
825.089	25080
825.228	25061
825.368	24875
825.508	24901
825.648	25023
825.787	24905
825.927	25053
826.067	24768
826.206	24954
826.346	24977
826.485	24947
826.625	24798
826.765	24962
826.904	24932
827.044	24673
827.183	24730
827.323	24559
827.462	24677
827.601	24665
827.741	24566
827.88	24700
828.02	24448
828.159	24521
828.298	24650
828.437	24608
828.577	24536
828.716	24646
828.855	24566
828.994	24414
829.134	24399
829.273	24467
829.412	24300
829.551	24407
829.69	24296
829.829	24448
829.968	24369
830.107	24350
830.246	24357
830.385	24380
830.524	24178
830.663	24136
830.802	24072
830.941	23870
831.08	23908
831.219	24049
831.357	24018
831.496	24098
831.635	23874
831.774	23783
831.913	23771
832.051	23802
832.19	23695
832.329	23775
832.467	23592
832.606	23566
832.744	23687
832.883	23623
833.022	23615
833.16	23562
833.299	23680
833.437	23539
833.576	23684
833.714	23646
833.852	23745
833.991	23847
834.129	23821
834.267	23687
834.406	23687
834.544	23687
834.682	23771
834.821	23649
834.959	23802
835.097	23619
835.235	23691
835.373	23718
835.511	23627
835.65	23589
835.788	23524
835.926	23353
836.064	23497
836.202	23299
836.34	23478
836.478	23577
836.615	23478
836.753	23471
836.891	23737
837.029	23463
837.167	23516
837.305	23486
837.443	23501
837.58	23318
837.718	23467
837.856	23280
837.993	23356
838.131	23471
838.269	23307
838.406	23242
838.544	23227
838.681	23117
838.819	22927
838.956	22854
839.094	22850
839.231	22847
839.369	23083
839.506	23185
839.643	23121
839.781	22744
839.918	22835
840.055	22927
840.193	22744
840.33	22717
840.467	22801
840.604	22889
840.742	23067
840.879	22618
841.016	22653
841.153	22687
841.29	22847
841.427	22847
841.564	22771
841.701	22755
841.838	22649
841.975	22641
842.112	22675
842.249	22630
842.385	22641
842.522	22713
842.659	22580
842.796	22557
842.933	22489
843.069	22500
843.206	22413
843.343	22611
843.479	22512
843.616	22569
843.752	22352
843.889	22196
844.025	22421
844.162	22253
844.298	22280
844.435	22230
844.571	22268
844.708	22322
844.844	22379
844.98	22375
845.117	22428
845.253	22242
845.389	22211
845.525	22192
845.661	22226
845.798	21953
845.934	22238
846.07	22173
846.206	22207
846.342	22158
846.478	22059
846.614	21857
846.75	21717
846.886	21622
847.022	21964
847.158	21739
847.294	21724
847.429	21937
847.565	21747
847.701	21937
847.837	21587
847.972	21545
848.108	21709
848.244	21587
848.379	21420
848.515	21458
848.65	21298
848.786	21348
848.921	21462
849.057	21443
849.192	21504
849.328	21477
849.463	21317
849.598	21268
849.734	21291
849.869	21310
850.004	21093
850.14	21260
850.275	21188
850.41	21070
850.545	21013
850.68	21131
850.815	21138
850.95	21241
851.085	21302
851.22	21291
851.355	21207
851.49	21127
851.625	20986
851.76	21020
851.895	21074
852.03	20990
852.165	21249
852.299	21135
852.434	21279
852.569	21165
852.703	21188
852.838	21142
852.973	21310
853.107	21241
853.242	21112
853.376	21089
853.511	20845
853.645	20921
853.78	21081
853.914	21047
854.048	20906
854.183	20899
854.317	20891
854.451	21165
854.585	20944
854.72	20876
854.854	21017
854.988	21013
855.122	21043
855.256	20777
855.39	20944
855.524	20986
855.658	21017
855.792	20952
855.926	21157
856.06	21089
856.194	21013
856.327	20933
856.461	20849
856.595	20845
856.729	20944
856.862	21096
856.996	21043
857.13	21001
857.263	21100
857.397	21062
857.53	20838
857.664	21039
857.797	21058
857.931	21241
858.064	20982
858.197	21119
858.331	21020
858.464	21009
858.597	20895
858.731	20910
858.864	20899
858.997	20899
859.13	20963
859.263	20910
859.396	21024
859.529	20933
859.662	20887
859.795	20971
859.928	20990
860.061	21131
860.194	21116
860.327	21013
860.46	20925
860.592	21119
860.725	21154
860.858	21119
860.99	20979
861.123	20887
861.256	20823
861.388	21039
861.521	21656
861.653	20853
861.786	20720
861.918	20777
862.05	20807
862.183	20788
862.315	20948
862.447	21032
862.58	20895
862.712	20727
862.844	20617
862.976	20792
863.108	20750
863.24	21024
863.372	20575
863.504	20655
863.636	20560
863.768	20659
863.9	20629
864.032	20629
864.164	20522
864.296	20765
864.428	20807
864.559	20746
864.691	20872
864.823	20651
864.954	20773
865.086	20560
865.217	20613
865.349	20499
865.48	20549
865.612	20590
865.743	20613
865.875	20579
866.006	20522
866.137	20644
866.269	20537
866.4	20503
866.531	20522
866.662	20419
866.793	20503
866.924	20564
867.055	20530
867.186	20522
867.317	20537
867.448	20457
867.579	20484
867.71	20511
867.841	20446
867.972	20545
868.103	20518
868.233	20415
868.364	20632
868.495	20556
868.625	20659
868.756	20800
868.886	20613
869.017	20743
869.147	20800
869.278	20830
869.408	20823
869.539	20754
869.669	20834
869.799	20785
869.929	20895
870.06	20872
870.19	20975
870.32	21055
870.45	21055
870.58	21013
870.71	21298
870.84	21249
870.97	21127
871.1	21077
871.23	21306
871.36	21321
871.489	21123
871.619	21256
871.749	21283
871.879	21332
872.008	21469
872.138	21435
872.267	21279
872.397	21313
872.526	21135
872.656	21237
872.785	21180
872.915	21408
873.044	21412
873.173	21435
873.303	21515
873.432	21359
873.561	21481
873.69	21313
873.819	21370
873.948	21420
874.077	21477
874.206	21298
874.335	21348
874.464	21462
874.593	21561
874.722	21526
874.851	21652
874.979	21762
875.108	21637
875.237	21477
875.365	21591
875.494	21644
875.623	21576
875.751	21583
875.88	21599
876.008	21682
876.136	21785
876.265	22013
876.393	22173
876.521	21968
876.65	22124
876.778	22017
876.906	22010
877.034	21892
877.162	21945
877.29	21888
877.418	21979
877.546	21960
877.674	21926
877.802	21964
877.93	22006
878.058	21922
878.185	21895
878.313	21854
878.441	21949
878.568	21797
878.696	21842
878.824	21994
878.951	22128
879.079	22040
879.206	22158
879.333	22074
879.461	21922
879.588	22150
879.715	22112
879.842	22124
879.97	22143
880.097	21690
880.224	21770
880.351	21873
880.478	21713
880.605	21739
880.732	21800
880.859	21960
880.986	21755
881.112	21808
881.239	21576
881.366	21511
881.493	21351
881.619	21382
881.746	21526
881.872	21420
881.999	21348
882.125	21230
882.252	21363
882.378	21184
882.505	21450
882.631	21173
882.757	21081
882.883	21157
883.01	21074
883.136	21005
883.262	20994
883.388	20941
883.514	21032
883.64	20982
883.766	20979
883.892	20811
884.018	20823
884.143	21039
884.269	21032
884.395	20773
884.52	20750
884.646	20678
884.772	20712
884.897	20667
885.023	20739
885.148	20765
885.274	20937
885.399	20857
885.524	20648
885.65	20705
885.775	20811
885.9	20689
886.025	20769
886.15	20720
886.275	20674
886.4	20621
886.525	20564
886.65	20644
886.775	20644
886.9	20682
887.025	20819
887.149	20587
887.274	20488
887.399	20484
887.523	20522
887.648	20358
887.773	20347
887.897	20537
888.021	20583
888.146	20518
888.27	20583
888.395	20571
888.519	20495
888.643	20404
888.767	20636
888.891	20343
889.015	20320
889.139	20305
889.263	20153
889.387	20248
889.511	20530
889.635	20469
889.759	20161
889.883	20199
890.006	20259
890.13	20317
890.254	20149
890.377	20187
890.501	20062
890.624	20008
890.748	20100
890.871	19974
890.995	19875
891.118	19807
891.241	19852
891.364	19898
891.488	20073
891.611	19849
891.734	19856
891.857	19967
891.98	19902
892.103	19887
892.226	19951
892.349	19769
892.471	19742
892.594	19658
892.717	19746
892.839	19833
892.962	19780
893.085	19944
893.207	19753
893.33	19677
893.452	19715
893.575	19860
893.697	19689
893.819	19871
893.941	19963
894.064	19947
894.186	19597
894.308	19723
894.43	19868
894.552	19932
894.674	19833
894.796	19655
894.918	19753
895.04	19696
895.161	19734
895.283	19871
895.405	19746
895.526	19662
895.648	19719
895.769	19890
895.891	19845
896.012	19902
896.134	19685
896.255	19723
896.376	19689
896.498	19772
896.619	19639
896.74	19765
896.861	19841
896.982	20206
897.103	20366
897.224	19982
897.345	19936
897.466	19970
897.587	19978
897.708	20172
897.828	20005
897.949	19963
898.07	19940
898.19	19868
898.311	19925
898.431	19978
898.552	20012
898.672	20046
898.792	20176
898.913	19909
899.033	19864
899.153	19803
899.273	19677
899.393	19856
899.513	19788
899.633	19818
899.753	19723
899.873	19552
899.993	19685
900.113	19788
900.232	19681
900.352	19712
900.472	19586
900.591	19567
900.711	19537
900.83	19419
900.95	19590
901.069	19712
901.189	19510
901.308	19206
901.427	19164
901.546	19183
901.665	19194
901.784	19160
901.904	19076
902.023	18909
902.141	18684
902.26	18677
902.379	18840
902.498	18608
902.617	18734
902.735	18760
902.854	18776
902.973	18563
903.091	18388
903.21	18369
903.328	18369
903.446	18270
903.565	18220
903.683	18060
903.801	17980
903.919	18049
904.038	18068
904.156	17961
904.274	17954
904.392	17874
904.51	17893
904.627	17870
904.745	17908
904.863	17980
904.981	17756
905.098	17558
905.216	17558
905.334	17668
905.451	17562
905.569	17573
905.686	17539
905.803	17646
905.921	17368
906.038	17596
906.155	17395
906.272	17444
906.389	17322
906.506	17216
906.623	17124
906.74	17117
906.857	17067
906.974	16999
907.091	17162
907.208	17128
907.324	17060
907.441	17060
907.557	16976
907.674	16801
907.79	16831
907.907	16927
908.023	16850
908.139	16782
908.256	16793
908.372	16820
908.488	16656
908.604	16531
908.72	16481
908.836	16569
908.952	16637
909.068	16512
909.184	16626
909.3	16615
909.415	16725
909.531	16538
909.647	16405
909.762	16280
909.878	16246
909.993	16329
910.108	16238
910.224	16299
910.339	16322
910.454	16150
910.57	16097
910.685	16090
910.8	16253
910.915	16333
911.03	16112
911.145	15979
911.259	15854
911.374	15987
911.489	15873
911.604	15755
911.718	15633
911.833	15652
911.947	15401
912.062	15435
912.176	15534
912.291	15610
912.405	15633
912.519	15755
912.633	15846
912.748	15686
912.862	15542
912.976	15443
913.09	15329
913.204	15424
913.318	15477
913.431	15481
913.545	15641
913.659	15542
913.772	15412
913.886	15272
914	15268
914.113	15378
914.226	15393
914.34	15435
914.453	15142
914.566	15344
914.68	15173
914.793	15074
914.906	14986
915.019	14834
915.132	14796
915.245	14963
915.358	14952
915.47	14994
915.583	14902
915.696	14994
915.809	15013
915.921	15028
916.034	14807
916.146	14773
916.259	14720
916.371	14857
916.483	14853
916.595	14765
916.708	14769
916.82	14697
916.932	14632
917.044	14750
917.156	14598
917.268	14575
917.38	14526
917.491	14480
917.603	14537
917.715	14617
917.826	14670
917.938	14552
918.049	14290
918.161	14488
918.272	14579
918.384	14602
918.495	14419
918.606	14290
918.717	14240
918.828	14309
918.939	14431
919.05	14153
919.161	14317
919.272	14111
919.383	14161
919.494	14339
919.604	14419
919.715	14347
919.826	14172
919.936	14240
920.047	14343
920.157	14187
920.267	14396
920.378	14366
920.488	14161
920.598	14522
920.708	14583
920.818	14393
920.928	14408
921.038	14537
921.148	14560
921.258	14240
921.368	14168
921.477	14016
921.587	13967
921.697	13894
921.806	14005
921.916	13871
922.025	13765
922.134	13616
922.244	13586
922.353	13738
922.462	13567
922.571	13552
922.68	13373
922.789	13289
922.898	13297
923.007	13228
923.116	13308
923.224	13221
923.333	13316
923.442	13103
923.55	13175
923.659	13164
923.767	13175
923.876	13057
923.984	13118
924.092	13023
924.201	13145
924.309	13152
924.417	12970
924.525	12985
924.633	13031
924.741	13727
924.849	12856
924.956	12951
925.064	12707
925.172	12688
925.279	12768
925.387	12772
925.494	12764
925.602	12882
925.709	12795
925.816	12631
925.924	12715
926.031	12791
926.138	12654
926.245	12741
926.352	12570
926.459	12734
926.566	12814
926.673	12593
926.779	12502
926.886	12544
926.993	12292
927.099	12327
927.206	12285
927.312	12285
927.419	12410
927.525	12262
927.631	12376
927.737	12144
927.843	12171
927.95	12022
928.056	12068
928.162	12098
928.267	12205
928.373	12700
928.479	12121
928.585	12007
928.69	12167
928.796	12136
928.901	11980
929.007	11813
929.112	11912
929.218	11965
929.323	11950
929.428	11908
929.533	11958
929.638	11733
929.743	11779
929.848	11840
929.953	11901
930.058	11726
930.163	11539
930.267	11596
930.372	11775
930.477	11467
930.581	11760
930.685	11642
930.79	11429
930.894	11490
930.998	11551
931.103	11535
931.207	11216
931.311	11102
931.415	11029
931.519	10877
931.623	10774
