Data from test_V78500241_3599.txt Node
Date: Fri Mar 25 15:34:55 CST 2022
User: usil
Spectrometer: V785-0024
Trigger mode: 0
Integration Time (sec): 4.000000E-1
Scans to average: 1
Nonlinearity correction enabled: false
Boxcar width: 0
Storing dark spectrum: false
XAxis mode: Wavelengths
Number of Pixels in Spectrum: 1024
>>>>>Begin Spectral Data<<<<<
801.071	27329
801.214	27245
801.356	27024
801.499	27066
801.641	26914
801.783	26686
801.926	26830
802.068	26963
802.211	26754
802.353	26724
802.496	26545
802.638	26564
802.78	26431
802.923	26324
803.065	26355
803.208	26339
803.35	26370
803.492	26590
803.635	26537
803.777	26431
803.919	26636
804.061	26895
804.204	26659
804.346	26499
804.488	26503
804.63	26587
804.773	26594
804.915	26625
805.057	26754
805.199	26571
805.341	26556
805.483	26777
805.626	26606
805.768	26602
805.91	26739
806.052	26750
806.194	26594
806.336	26937
806.478	26743
806.62	26701
806.762	26853
806.904	26902
807.046	27325
807.188	27154
807.33	27024
807.472	27268
807.614	27119
807.756	27051
807.898	26842
808.04	26925
808.182	26830
808.324	26925
808.465	27013
808.607	27066
808.749	27287
808.891	27591
809.033	27606
809.174	27283
809.316	27279
809.458	27192
809.6	27424
809.741	27393
809.883	27450
810.025	27572
810.166	27561
810.308	27629
810.45	27507
810.591	27530
810.733	27412
810.875	27359
811.016	27218
811.158	27199
811.299	27412
811.441	27553
811.582	27519
811.724	27450
811.865	27226
812.007	27397
812.148	27241
812.29	27310
812.431	27450
812.573	27549
812.714	27648
812.855	27895
812.997	27884
813.138	28166
813.279	27903
813.421	27789
813.562	27804
813.703	27622
813.845	27538
813.986	27169
814.127	27268
814.268	27043
814.41	27058
814.551	27055
814.692	26960
814.833	26918
814.974	26998
815.115	26990
815.256	26845
815.397	26792
815.539	26910
815.68	26804
815.821	26667
815.962	26804
816.103	26743
816.244	26594
816.385	26579
816.526	26503
816.666	26450
816.807	26164
816.948	26267
817.089	26480
817.23	26362
817.371	26214
817.512	26221
817.653	26221
817.793	26142
817.934	26176
818.075	26161
818.216	26233
818.356	26191
818.497	26107
818.638	26035
818.778	26031
818.919	25909
819.06	26157
819.2	26199
819.341	26282
819.481	26267
819.622	26366
819.762	26674
819.903	26480
820.043	26446
820.184	26324
820.324	26275
820.465	26313
820.605	26229
820.746	26358
820.886	26164
821.026	26336
821.167	26263
821.307	26370
821.447	26210
821.588	26115
821.728	25959
821.868	25898
822.008	25677
822.149	25734
822.289	25772
822.429	25487
822.569	25499
822.709	25476
822.849	25297
822.99	25217
823.13	25080
823.27	25213
823.41	25091
823.55	24878
823.69	24939
823.83	24954
823.97	25091
824.11	24867
824.25	24833
824.389	24916
824.529	25038
824.669	24840
824.809	24852
824.949	24932
825.089	24829
825.228	24947
825.368	24741
825.508	24833
825.648	24776
825.787	24764
825.927	24833
826.067	24753
826.206	24642
826.346	24757
826.485	24852
826.625	24798
826.765	24844
826.904	24795
827.044	24547
827.183	24665
827.323	24483
827.462	24505
827.601	24486
827.741	24532
827.88	24513
828.02	24494
828.159	24486
828.298	24414
828.437	24639
828.577	24410
828.716	24505
828.855	24384
828.994	24182
829.134	24209
829.273	24163
829.412	24190
829.551	24095
829.69	24289
829.829	24182
829.968	24258
830.107	24251
830.246	24228
830.385	24228
830.524	23969
830.663	24076
830.802	23961
830.941	23775
831.08	23843
831.219	23893
831.357	23897
831.496	23999
831.635	23840
831.774	23638
831.913	23832
832.051	23638
832.19	23573
832.329	23676
832.467	23619
832.606	23410
832.744	23425
832.883	23463
833.022	23493
833.16	23551
833.299	23604
833.437	23372
833.576	23581
833.714	23585
833.852	23634
833.991	23611
834.129	23733
834.267	23649
834.406	23585
834.544	23585
834.682	23634
834.821	23516
834.959	23672
835.097	23528
835.235	23558
835.373	23543
835.511	23512
835.65	23318
835.788	23448
835.926	23265
836.064	23220
836.202	23227
836.34	23421
836.478	23509
836.615	23303
836.753	23284
836.891	23497
837.029	23482
837.167	23258
837.305	23433
837.443	23296
837.58	23284
837.718	23299
837.856	23284
837.993	23277
838.131	23452
838.269	23166
838.406	23109
838.544	22953
838.681	22866
838.819	22805
838.956	22702
839.094	22763
839.231	22786
839.369	22908
839.506	23006
839.643	23083
839.781	22691
839.918	22706
840.055	22847
840.193	22615
840.33	22675
840.467	22698
840.604	22611
840.742	22892
840.879	22573
841.016	22527
841.153	22596
841.29	22634
841.427	22706
841.564	22694
841.701	22592
841.838	22561
841.975	22580
842.112	22573
842.249	22459
842.385	22459
842.522	22607
842.659	22527
842.796	22459
842.933	22417
843.069	22272
843.206	22440
843.343	22455
843.479	22379
843.616	22375
843.752	22162
843.889	22196
844.025	22325
844.162	22192
844.298	22238
844.435	22177
844.571	22162
844.708	22211
844.844	22417
844.98	22310
845.117	22310
845.253	22051
845.389	21998
845.525	22078
845.661	22097
845.798	21941
845.934	21869
846.07	21846
846.206	22017
846.342	22055
846.478	21937
846.614	21781
846.75	21648
846.886	21660
847.022	21633
847.158	21781
847.294	21720
847.429	21629
847.565	21682
847.701	21949
847.837	21481
847.972	21363
848.108	21454
848.244	21405
848.379	21393
848.515	21355
848.65	21207
848.786	21306
848.921	21332
849.057	21431
849.192	21329
849.328	21313
849.463	21241
849.598	21195
849.734	21146
849.869	21165
850.004	21001
850.14	21096
850.275	21028
850.41	20994
850.545	20982
850.68	21047
850.815	20910
850.95	21058
851.085	21222
851.22	21017
851.355	21119
851.49	20998
851.625	21017
851.76	20979
851.895	20948
852.03	20823
852.165	21036
852.299	21089
852.434	21119
852.569	21089
852.703	20918
852.838	21096
852.973	21089
853.107	21146
853.242	20948
853.376	20876
853.511	20712
853.645	20785
853.78	21074
853.914	20804
854.048	20864
854.183	20925
854.317	20826
854.451	20994
854.585	20758
854.72	20937
854.854	21013
854.988	20796
855.122	20857
855.256	20785
855.39	20891
855.524	20826
855.658	20727
855.792	20895
855.926	20967
856.06	20872
856.194	20975
856.327	20887
856.461	20796
856.595	20857
856.729	20842
856.862	20963
856.996	20925
857.13	20895
857.263	20944
857.397	20891
857.53	20883
857.664	20838
857.797	20891
857.931	20826
858.064	20823
858.197	20899
858.331	20899
858.464	20918
858.597	20773
858.731	20777
858.864	20735
858.997	20868
859.13	20883
859.263	20819
859.396	20929
859.529	20887
859.662	20777
859.795	20754
859.928	20826
860.061	20979
860.194	21081
860.327	20876
860.46	20902
860.592	20883
860.725	21077
860.858	20963
860.99	20773
861.123	20857
861.256	20830
861.388	20876
861.521	21743
861.653	20648
861.786	20609
861.918	20670
862.05	20724
862.183	20823
862.315	20830
862.447	20724
862.58	20842
862.712	20476
862.844	20587
862.976	20705
863.108	20758
863.24	20994
863.372	20632
863.504	20594
863.636	20549
863.768	20648
863.9	20629
864.032	20564
864.164	20556
864.296	20552
864.428	20640
864.559	20609
864.691	20549
864.823	20537
864.954	20648
865.086	20484
865.217	20594
865.349	20434
865.48	20522
865.612	20511
865.743	20571
865.875	20473
866.006	20526
866.137	20374
866.269	20438
866.4	20377
866.531	20385
866.662	20431
866.793	20423
866.924	20347
867.055	20393
867.186	20530
867.317	20317
867.448	20396
867.579	20385
867.71	20305
867.841	20377
867.972	20438
868.103	20404
868.233	20393
868.364	20385
868.495	20514
868.625	20625
868.756	20845
868.886	20579
869.017	20644
869.147	20815
869.278	20739
869.408	20659
869.539	20724
869.669	20659
869.799	20594
869.929	20762
870.06	20800
870.19	20960
870.32	20948
870.45	21024
870.58	20971
870.71	21157
870.84	21176
870.97	21161
871.1	21093
871.23	21233
871.36	21275
871.489	21070
871.619	21169
871.749	21207
871.879	21321
872.008	21363
872.138	21245
872.267	21325
872.397	21131
872.526	21154
872.656	21043
872.785	20994
872.915	21363
873.044	21389
873.173	21192
873.303	21374
873.432	21344
873.561	21401
873.69	21416
873.819	21245
873.948	21359
874.077	21287
874.206	21329
874.335	21287
874.464	21325
874.593	21485
874.722	21386
874.851	21538
874.979	21507
875.108	21599
875.237	21538
875.365	21454
875.494	21439
875.623	21458
875.751	21549
875.88	21667
876.008	21587
876.136	21774
876.265	22006
876.393	21941
876.521	21922
876.65	22010
876.778	21949
876.906	21945
877.034	21831
877.162	21797
877.29	21892
877.418	22010
877.546	21884
877.674	21804
877.802	21865
877.93	21899
878.058	21800
878.185	21728
878.313	21679
878.441	21850
878.568	21603
878.696	21717
878.824	22025
878.951	22048
879.079	22101
879.206	22272
879.333	22109
879.461	22013
879.588	21983
879.715	22029
879.842	22181
879.97	22036
880.097	21682
880.224	21785
880.351	21884
880.478	21728
880.605	21747
880.732	21614
880.859	21823
880.986	21724
881.112	21587
881.239	21515
881.366	21428
881.493	21424
881.619	21241
881.746	21317
881.872	21252
881.999	21203
882.125	21150
882.252	21321
882.378	21302
882.505	21291
882.631	21233
882.757	20971
882.883	21119
883.01	21058
883.136	20971
883.262	20925
883.388	20811
883.514	20925
883.64	20986
883.766	20838
883.892	20746
884.018	20834
884.143	20971
884.269	21043
884.395	20625
884.52	20670
884.646	20716
884.772	20625
884.897	20511
885.023	20750
885.148	20804
885.274	20864
885.399	20796
885.524	20743
885.65	20731
885.775	20579
885.9	20499
886.025	20678
886.15	20686
886.275	20560
886.4	20499
886.525	20674
886.65	20495
886.775	20457
886.9	20686
887.025	20902
887.149	20663
887.274	20419
887.399	20412
887.523	20370
887.648	20343
887.773	20336
887.897	20450
888.021	20336
888.146	20370
888.27	20419
888.395	20461
888.519	20511
888.643	20396
888.767	20438
888.891	20214
889.015	20278
889.139	20275
889.263	20206
889.387	20282
889.511	20431
889.635	20317
889.759	20221
889.883	20214
890.006	20218
890.13	20339
890.254	20187
890.377	20161
890.501	19947
890.624	19986
890.748	20027
890.871	19769
890.995	19731
891.118	19799
891.241	19830
891.364	19719
891.488	19993
891.611	19734
891.734	19742
891.857	19852
891.98	19868
892.103	19807
892.226	19814
892.349	19670
892.471	19594
892.594	19639
892.717	19753
892.839	19575
892.962	19791
893.085	19814
893.207	19616
893.33	19540
893.452	19666
893.575	19708
893.697	19776
893.819	19811
893.941	19906
894.064	19765
894.186	19628
894.308	19708
894.43	19860
894.552	19765
894.674	19791
894.796	19620
894.918	19708
895.04	19601
895.161	19715
895.283	19734
895.405	19616
895.526	19605
895.648	19632
895.769	19704
895.891	19685
896.012	19731
896.134	19708
896.255	19811
896.376	19548
896.498	19651
896.619	19788
896.74	19655
896.861	19822
896.982	20065
897.103	20240
897.224	19879
897.345	19871
897.466	19894
897.587	19951
897.708	20065
897.828	19944
897.949	19814
898.07	19811
898.19	19780
898.311	20008
898.431	19902
898.552	19909
898.672	19928
898.792	19974
898.913	19917
899.033	19852
899.153	19696
899.273	19731
899.393	19727
899.513	19681
899.633	19651
899.753	19738
899.873	19704
899.993	19685
900.113	19635
900.232	19670
900.352	19491
900.472	19544
900.591	19468
900.711	19525
900.83	19392
900.95	19563
901.069	19590
901.189	19285
901.308	19213
901.427	18932
901.546	19050
901.665	19038
901.784	19031
901.904	18928
902.023	18757
902.141	18639
902.26	18563
902.379	18585
902.498	18589
902.617	18601
902.735	18551
902.854	18467
902.973	18490
903.091	18300
903.21	18292
903.328	18182
903.446	18182
903.565	18106
903.683	18106
903.801	17893
903.919	17999
904.038	17942
904.156	17912
904.274	17939
904.392	17866
904.51	17748
904.627	17802
904.745	17885
904.863	17923
904.981	17596
905.098	17490
905.216	17532
905.334	17478
905.451	17528
905.569	17554
905.686	17554
905.803	17501
905.921	17220
906.038	17429
906.155	17330
906.272	17231
906.389	17155
906.506	17037
906.623	16991
906.74	17045
906.857	16946
906.974	16949
907.091	17067
907.208	17200
907.324	16991
907.441	16927
907.557	16664
907.674	16744
907.79	16702
907.907	16664
908.023	16767
908.139	16611
908.256	16713
908.372	16588
908.488	16588
908.604	16466
908.72	16485
908.836	16379
908.952	16500
909.068	16440
909.184	16531
909.3	16535
909.415	16592
909.531	16424
909.647	16299
909.762	16238
909.878	16128
909.993	16280
910.108	16166
910.224	16158
910.339	16082
910.454	16074
910.57	15968
910.685	15937
910.8	16238
910.915	16116
911.03	16002
911.145	15785
911.259	15831
911.374	15770
911.489	15671
911.604	15679
911.718	15545
911.833	15542
911.947	15549
912.062	15408
912.176	15515
912.291	15610
912.405	15526
912.519	15850
912.633	15591
912.748	15656
912.862	15485
912.976	15359
913.09	15310
913.204	15374
913.318	15351
913.431	15458
913.545	15336
913.659	15378
913.772	15279
913.886	15184
914	15157
914.113	15184
914.226	15351
914.34	15135
914.453	15013
914.566	15161
914.68	15028
914.793	14933
914.906	14914
915.019	14815
915.132	14769
915.245	14815
915.358	14834
915.47	14990
915.583	14689
915.696	14845
915.809	14933
915.921	14899
916.034	14746
916.146	14606
916.259	14617
916.371	14735
916.483	14686
916.595	14651
916.708	14667
916.82	14686
916.932	14594
917.044	14518
917.156	14552
917.268	14389
917.38	14533
917.491	14385
917.603	14457
917.715	14606
917.826	14575
917.938	14339
918.049	14290
918.161	14362
918.272	14469
918.384	14560
918.495	14339
918.606	14180
918.717	14176
918.828	14183
918.939	14221
919.05	14244
919.161	14119
919.272	14005
919.383	14035
919.494	14096
919.604	14495
919.715	14237
919.826	14115
919.936	14214
920.047	14195
920.157	14221
920.267	14415
920.378	14145
920.488	14100
920.598	14313
920.708	14389
920.818	14343
920.928	14301
921.038	14549
921.148	14347
921.258	14183
921.368	14043
921.477	13906
921.587	13837
921.697	13811
921.806	13906
921.916	13799
922.025	13670
922.134	13578
922.244	13502
922.353	13647
922.462	13510
922.571	13396
922.68	13225
922.789	13133
922.898	13236
923.007	13145
923.116	13339
923.224	13236
923.333	13183
923.442	13149
923.55	13000
923.659	13122
923.767	13137
923.876	13046
923.984	13053
924.092	12932
924.201	12958
924.309	12954
924.417	12928
924.525	12871
924.633	12897
924.741	13852
924.849	12658
924.956	12798
925.064	12715
925.172	12536
925.279	12589
925.387	12612
925.494	12559
925.602	12764
925.709	12673
925.816	12528
925.924	12642
926.031	12601
926.138	12650
926.245	12620
926.352	12471
926.459	12662
926.566	12681
926.673	12448
926.779	12414
926.886	12414
926.993	12277
927.099	12281
927.206	12186
927.312	12136
927.419	12251
927.525	12205
927.631	12239
927.737	12095
927.843	12129
927.95	11996
928.056	12030
928.162	12057
928.267	12152
928.373	12639
928.479	12197
928.585	11863
928.69	12083
928.796	12091
928.901	11847
929.007	11809
929.112	11908
929.218	11813
929.323	11832
929.428	11756
929.533	11908
929.638	11729
929.743	11707
929.848	11668
929.953	11707
930.058	11661
930.163	11421
930.267	11551
930.372	11718
930.477	11360
930.581	11642
930.685	11493
930.79	11410
930.894	11318
930.998	11448
931.103	11497
931.207	11136
931.311	11041
931.415	11006
931.519	10763
931.623	10786
