Data from test_V78500241_2621.txt Node
Date: Fri Mar 25 15:28:06 CST 2022
User: usil
Spectrometer: V785-0024
Trigger mode: 0
Integration Time (sec): 4.000000E-1
Scans to average: 1
Nonlinearity correction enabled: false
Boxcar width: 0
Storing dark spectrum: false
XAxis mode: Wavelengths
Number of Pixels in Spectrum: 1024
>>>>>Begin Spectral Data<<<<<
801.071	27256
801.214	27089
801.356	26880
801.499	26906
801.641	26876
801.783	26804
801.926	26807
802.068	26746
802.211	26682
802.353	26621
802.496	26446
802.638	26408
802.78	26328
802.923	26355
803.065	26309
803.208	26282
803.35	26362
803.492	26465
803.635	26549
803.777	26484
803.919	26606
804.061	26880
804.204	26533
804.346	26495
804.488	26366
804.63	26537
804.773	26518
804.915	26617
805.057	26564
805.199	26488
805.341	26762
805.483	26701
805.626	26686
805.768	26514
805.91	26705
806.052	26644
806.194	26568
806.336	26750
806.478	26579
806.62	26488
806.762	26762
806.904	26933
807.046	27112
807.188	27047
807.33	27020
807.472	27108
807.614	26891
807.756	27104
807.898	26838
808.04	26781
808.182	26918
808.324	26861
808.465	26823
808.607	27135
808.749	27157
808.891	27424
809.033	27348
809.174	27252
809.316	27138
809.458	27150
809.6	27180
809.741	27142
809.883	27321
810.025	27443
810.166	27644
810.308	27530
810.45	27397
810.591	27245
810.733	27222
810.875	27211
811.016	27142
811.158	27093
811.299	27351
811.441	27454
811.582	27450
811.724	27291
811.865	27093
812.007	27192
812.148	27070
812.29	27275
812.431	27340
812.573	27534
812.714	27610
812.855	27728
812.997	27774
813.138	28021
813.279	27846
813.421	27800
813.562	27701
813.703	27549
813.845	27473
813.986	26944
814.127	27009
814.268	26807
814.41	26918
814.551	26845
814.692	26769
814.833	26777
814.974	26807
815.115	26876
815.256	26663
815.397	26697
815.539	26769
815.68	26674
815.821	26617
815.962	26773
816.103	26602
816.244	26514
816.385	26393
816.526	26343
816.666	26434
816.807	26157
816.948	26252
817.089	26290
817.23	26096
817.371	26210
817.512	26168
817.653	26111
817.793	26084
817.934	26107
818.075	26301
818.216	26092
818.356	26111
818.497	26043
818.638	25871
818.778	25826
818.919	25845
819.06	25932
819.2	26142
819.341	26001
819.481	26126
819.622	26313
819.762	26476
819.903	26362
820.043	26126
820.184	26415
820.324	26225
820.465	26240
820.605	26275
820.746	26229
820.886	26024
821.026	26195
821.167	26278
821.307	26347
821.447	26088
821.588	26092
821.728	25890
821.868	25860
822.008	25537
822.149	25685
822.289	25567
822.429	25232
822.569	25247
822.709	25320
822.849	25122
822.99	25027
823.13	25057
823.27	25034
823.41	24897
823.55	24798
823.69	24958
823.83	24928
823.97	24859
824.11	24688
824.25	24696
824.389	24783
824.529	24814
824.669	24856
824.809	24825
824.949	24745
825.089	24760
825.228	24696
825.368	24646
825.508	24544
825.648	24517
825.787	24692
825.927	24627
826.067	24642
826.206	24597
826.346	24696
826.485	24692
826.625	24616
826.765	24741
826.904	24585
827.044	24517
827.183	24418
827.323	24304
827.462	24369
827.601	24384
827.741	24414
827.88	24319
828.02	24262
828.159	24270
828.298	24254
828.437	24388
828.577	24323
828.716	24544
828.855	24129
828.994	23958
829.134	24087
829.273	24072
829.412	24022
829.551	24022
829.69	23992
829.829	24064
829.968	24045
830.107	24026
830.246	24079
830.385	24030
830.524	23790
830.663	23828
830.802	23623
830.941	23710
831.08	23558
831.219	23684
831.357	23821
831.496	23954
831.635	23699
831.774	23566
831.913	23570
832.051	23490
832.19	23455
832.329	23535
832.467	23341
832.606	23280
832.744	23273
832.883	23239
833.022	23235
833.16	23398
833.299	23471
833.437	23345
833.576	23372
833.714	23368
833.852	23387
833.991	23414
834.129	23463
834.267	23341
834.406	23448
834.544	23524
834.682	23436
834.821	23322
834.959	23505
835.097	23383
835.235	23512
835.373	23364
835.511	23410
835.65	23303
835.788	23231
835.926	23113
836.064	22980
836.202	22915
836.34	23292
836.478	23239
836.615	23204
836.753	23315
836.891	23318
837.029	23254
837.167	23223
837.305	23162
837.443	23193
837.58	23018
837.718	23143
837.856	23143
837.993	23010
838.131	23117
838.269	22968
838.406	22953
838.544	22938
838.681	22721
838.819	22767
838.956	22493
839.094	22561
839.231	22679
839.369	22736
839.506	22949
839.643	22889
839.781	22584
839.918	22516
840.055	22611
840.193	22519
840.33	22493
840.467	22634
840.604	22672
840.742	22896
840.879	22455
841.016	22527
841.153	22493
841.29	22626
841.427	22447
841.564	22656
841.701	22508
841.838	22493
841.975	22466
842.112	22508
842.249	22440
842.385	22287
842.522	22500
842.659	22295
842.796	22337
842.933	22287
843.069	22284
843.206	22238
843.343	22478
843.479	22367
843.616	22295
843.752	22139
843.889	22055
844.025	22120
844.162	22044
844.298	22086
844.435	21987
844.571	22044
844.708	22105
844.844	22272
844.98	22223
845.117	22211
845.253	21975
845.389	21903
845.525	21949
845.661	21812
845.798	21816
845.934	21812
846.07	21831
846.206	21823
846.342	21899
846.478	21720
846.614	21652
846.75	21549
846.886	21545
847.022	21644
847.158	21530
847.294	21583
847.429	21587
847.565	21580
847.701	21755
847.837	21294
847.972	21302
848.108	21351
848.244	21272
848.379	21184
848.515	21077
848.65	21058
848.786	21207
848.921	21165
849.057	21211
849.192	21157
849.328	21108
849.463	21127
849.598	21184
849.734	21058
849.869	21085
850.004	20948
850.14	20876
850.275	20918
850.41	20880
850.545	20845
850.68	20758
850.815	20990
850.95	20883
851.085	20990
851.22	21043
851.355	20864
851.49	20929
851.625	20838
851.76	20937
851.895	20838
852.03	20838
852.165	20880
852.299	20861
852.434	20948
852.569	21032
852.703	20868
852.838	20990
852.973	20986
853.107	20960
853.242	20842
853.376	20735
853.511	20571
853.645	20617
853.78	20918
853.914	20625
854.048	20769
854.183	20648
854.317	20625
854.451	21009
854.585	20727
854.72	20758
854.854	20906
854.988	20617
855.122	20750
855.256	20670
855.39	20621
855.524	20895
855.658	20842
855.792	20663
855.926	20731
856.06	20819
856.194	20781
856.327	20727
856.461	20670
856.595	20678
856.729	20670
856.862	20819
856.996	20750
857.13	20693
857.263	20830
857.397	20708
857.53	20697
857.664	20807
857.797	20754
857.931	20857
858.064	20689
858.197	20899
858.331	20632
858.464	20708
858.597	20598
858.731	20670
858.864	20697
858.997	20743
859.13	20750
859.263	20743
859.396	20845
859.529	20773
859.662	20739
859.795	20674
859.928	20712
860.061	20876
860.194	20807
860.327	20731
860.46	20872
860.592	20746
860.725	20990
860.858	20834
860.99	20811
861.123	20594
861.256	20682
861.388	20689
861.521	21500
861.653	20530
861.786	20450
861.918	20629
862.05	20594
862.183	20689
862.315	20686
862.447	20686
862.58	20609
862.712	20370
862.844	20408
862.976	20526
863.108	20492
863.24	20853
863.372	20358
863.504	20377
863.636	20526
863.768	20533
863.9	20530
864.032	20385
864.164	20298
864.296	20495
864.428	20537
864.559	20526
864.691	20332
864.823	20431
864.954	20374
865.086	20381
865.217	20442
865.349	20225
865.48	20438
865.612	20377
865.743	20427
865.875	20332
866.006	20229
866.137	20244
866.269	20290
866.4	20358
866.531	20259
866.662	20240
866.793	20320
866.924	20408
867.055	20355
867.186	20172
867.317	20320
867.448	20073
867.579	20290
867.71	20202
867.841	20107
867.972	20385
868.103	20320
868.233	20259
868.364	20240
868.495	20389
868.625	20484
868.756	20667
868.886	20465
869.017	20431
869.147	20632
869.278	20594
869.408	20476
869.539	20590
869.669	20625
869.799	20526
869.929	20705
870.06	20674
870.19	20830
870.32	20826
870.45	20792
870.58	20868
870.71	21009
870.84	20937
870.97	20967
871.1	20937
871.23	21184
871.36	21123
871.489	21009
871.619	20967
871.749	21135
871.879	21096
872.008	21138
872.138	21131
872.267	21039
872.397	20982
872.526	20921
872.656	20914
872.785	20887
872.915	21165
873.044	21165
873.173	21123
873.303	21173
873.432	21222
873.561	21184
873.69	21195
873.819	21032
873.948	21188
874.077	21165
874.206	21169
874.335	21218
874.464	21275
874.593	21378
874.722	21355
874.851	21374
874.979	21401
875.108	21393
875.237	21405
875.365	21272
875.494	21382
875.623	21469
875.751	21382
875.88	21443
876.008	21545
876.136	21622
876.265	21835
876.393	22025
876.521	21934
876.65	21751
876.778	21922
876.906	21759
877.034	21690
877.162	21785
877.29	21614
877.418	21759
877.546	21675
877.674	21679
877.802	21694
877.93	21759
878.058	21644
878.185	21633
878.313	21614
878.441	21732
878.568	21625
878.696	21652
878.824	21713
878.951	21831
879.079	21895
879.206	22048
879.333	21956
879.461	21644
879.588	21903
879.715	21903
879.842	22032
879.97	21804
880.097	21504
880.224	21519
880.351	21671
880.478	21580
880.605	21599
880.732	21625
880.859	21762
880.986	21553
881.112	21583
881.239	21378
881.366	21245
881.493	21203
881.619	21150
881.746	21199
881.872	21112
881.999	21135
882.125	21108
882.252	21066
882.378	21096
882.505	21108
882.631	21009
882.757	20883
882.883	20990
883.01	20804
883.136	20800
883.262	20739
883.388	20746
883.514	20739
883.64	20906
883.766	20845
883.892	20594
884.018	20773
884.143	20724
884.269	20937
884.395	20499
884.52	20598
884.646	20560
884.772	20419
884.897	20339
885.023	20473
885.148	20564
885.274	20625
885.399	20587
885.524	20613
885.65	20473
885.775	20526
885.9	20400
886.025	20590
886.15	20625
886.275	20419
886.4	20480
886.525	20423
886.65	20427
886.775	20446
886.9	20461
887.025	20659
887.149	20404
887.274	20328
887.399	20290
887.523	20199
887.648	20225
887.773	20183
887.897	20343
888.021	20225
888.146	20119
888.27	20275
888.395	20267
888.519	20385
888.643	20320
888.767	20263
888.891	20138
889.015	20062
889.139	20126
889.263	20077
889.387	20157
889.511	20286
889.635	20164
889.759	20088
889.883	19982
890.006	20065
890.13	20149
890.254	19887
890.377	19993
890.501	19978
890.624	19811
890.748	19940
890.871	19677
890.995	19689
891.118	19529
891.241	19620
891.364	19712
891.488	19746
891.611	19708
891.734	19708
891.857	19609
891.98	19658
892.103	19662
892.226	19594
892.349	19620
892.471	19472
892.594	19502
892.717	19620
892.839	19613
892.962	19613
893.085	19670
893.207	19647
893.33	19434
893.452	19647
893.575	19548
893.697	19521
893.819	19704
893.941	19772
894.064	19727
894.186	19582
894.308	19400
894.43	19685
894.552	19696
894.674	19689
894.796	19468
894.918	19540
895.04	19514
895.161	19628
895.283	19647
895.405	19628
895.526	19578
895.648	19655
895.769	19689
895.891	19567
896.012	19605
896.134	19563
896.255	19529
896.376	19563
896.498	19635
896.619	19643
896.74	19639
896.861	19609
896.982	19932
897.103	20084
897.224	19921
897.345	19807
897.466	19757
897.587	19887
897.708	19940
897.828	19753
897.949	19780
898.07	19628
898.19	19693
898.311	19989
898.431	19807
898.552	19841
898.672	19742
898.792	19906
898.913	19807
899.033	19628
899.153	19651
899.273	19540
899.393	19422
899.513	19495
899.633	19696
899.753	19689
899.873	19430
899.993	19681
900.113	19518
900.232	19548
900.352	19445
900.472	19354
900.591	19358
900.711	19453
900.83	19156
900.95	19449
901.069	19403
901.189	19236
901.308	19072
901.427	18859
901.546	18909
901.665	18935
901.784	18996
901.904	18837
902.023	18719
902.141	18380
902.26	18574
902.379	18544
902.498	18570
902.617	18502
902.735	18551
902.854	18391
902.973	18391
903.091	18133
903.21	18140
903.328	18144
903.446	18057
903.565	18064
903.683	17958
903.801	17889
903.919	17832
904.038	17882
904.156	17726
904.274	17779
904.392	17703
904.51	17634
904.627	17608
904.745	17771
904.863	17828
904.981	17478
905.098	17402
905.216	17376
905.334	17395
905.451	17330
905.569	17406
905.686	17387
905.803	17379
905.921	17143
906.038	17185
906.155	17181
906.272	17060
906.389	17166
906.506	16904
906.623	16908
906.74	16793
906.857	16763
906.974	16835
907.091	16957
907.208	17003
907.324	16934
907.441	16892
907.557	16679
907.674	16649
907.79	16485
907.907	16561
908.023	16611
908.139	16729
908.256	16577
908.372	16596
908.488	16550
908.604	16493
908.72	16303
908.836	16436
908.952	16341
909.068	16367
909.184	16512
909.3	16474
909.415	16436
909.531	16322
909.647	16166
909.762	16074
909.878	16124
909.993	16032
910.108	16048
910.224	16036
910.339	16074
910.454	16029
910.57	15774
910.685	15823
910.8	16109
910.915	16067
911.03	15865
911.145	15739
911.259	15732
911.374	15698
911.489	15576
911.604	15576
911.718	15557
911.833	15511
911.947	15340
912.062	15382
912.176	15561
912.291	15500
912.405	15523
912.519	15759
912.633	15660
912.748	15462
912.862	15416
912.976	15275
913.09	15157
913.204	15279
913.318	15252
913.431	15378
913.545	15393
913.659	15382
913.772	15283
913.886	15264
914	15062
914.113	15142
914.226	15173
914.34	15116
914.453	14944
914.566	15093
914.68	15039
914.793	14864
914.906	14815
915.019	14701
915.132	14617
915.245	14689
915.358	14762
915.47	14750
915.583	14693
915.696	14686
915.809	14743
915.921	14826
916.034	14587
916.146	14670
916.259	14629
916.371	14724
916.483	14651
916.595	14488
916.708	14537
916.82	14526
916.932	14480
917.044	14503
917.156	14556
917.268	14454
917.38	14408
917.491	14328
917.603	14294
917.715	14404
917.826	14495
917.938	14343
918.049	14237
918.161	14385
918.272	14423
918.384	14511
918.495	14328
918.606	14134
918.717	14084
918.828	14176
918.939	14206
919.05	14069
919.161	14138
919.272	13967
919.383	14001
919.494	14301
919.604	14355
919.715	14115
919.826	14001
919.936	14218
920.047	14111
920.157	14081
920.267	14275
920.378	14069
920.488	14103
920.598	14195
920.708	14377
920.818	14229
920.928	14248
921.038	14446
921.148	14301
921.258	14134
921.368	14024
921.477	13860
921.587	13932
921.697	13765
921.806	13898
921.916	13788
922.025	13594
922.134	13597
922.244	13403
922.353	13628
922.462	13388
922.571	13426
922.68	13179
922.789	13240
922.898	13122
923.007	13057
923.116	13129
923.224	13171
923.333	13103
923.442	12966
923.55	12935
923.659	13099
923.767	13103
923.876	12840
923.984	13084
924.092	12821
924.201	12981
924.309	13019
924.417	12913
924.525	12878
924.633	12920
924.741	13784
924.849	12635
924.956	12719
925.064	12715
925.172	12589
925.279	12627
925.387	12665
925.494	12604
925.602	12707
925.709	12707
925.816	12490
925.924	12502
926.031	12692
926.138	12631
926.245	12654
926.352	12384
926.459	12589
926.566	12635
926.673	12509
926.779	12407
926.886	12384
926.993	12213
927.099	12087
927.206	12133
927.312	12121
927.419	12296
927.525	12140
927.631	12239
927.737	12053
927.843	12129
927.95	11866
928.056	11992
928.162	11992
928.267	11999
928.373	12578
928.479	12125
928.585	11897
928.69	12060
928.796	11882
928.901	11916
929.007	11771
929.112	11870
929.218	11805
929.323	11729
929.428	11653
929.533	11851
929.638	11699
929.743	11680
929.848	11805
929.953	11703
930.058	11562
930.163	11478
930.267	11459
930.372	11551
930.477	11414
930.581	11680
930.685	11482
930.79	11376
930.894	11425
930.998	11360
931.103	11383
931.207	11037
931.311	10972
931.415	10862
931.519	10733
931.623	10710
