Data from test_V78500241_2855.txt Node
Date: Fri Mar 25 15:29:44 CST 2022
User: usil
Spectrometer: V785-0024
Trigger mode: 0
Integration Time (sec): 4.000000E-1
Scans to average: 1
Nonlinearity correction enabled: false
Boxcar width: 0
Storing dark spectrum: false
XAxis mode: Wavelengths
Number of Pixels in Spectrum: 1024
>>>>>Begin Spectral Data<<<<<
801.071	27100
801.214	27081
801.356	26979
801.499	26788
801.641	26636
801.783	26712
801.926	26689
802.068	26682
802.211	26678
802.353	26625
802.496	26541
802.638	26419
802.78	26362
802.923	26298
803.065	26309
803.208	26263
803.35	26229
803.492	26358
803.635	26537
803.777	26465
803.919	26469
804.061	26678
804.204	26522
804.346	26431
804.488	26404
804.63	26514
804.773	26446
804.915	26305
805.057	26602
805.199	26473
805.341	26522
805.483	26602
805.626	26632
805.768	26549
805.91	26476
806.052	26689
806.194	26495
806.336	26705
806.478	26507
806.62	26609
806.762	26720
806.904	26887
807.046	27100
807.188	26944
807.33	26925
807.472	27146
807.614	27047
807.756	26807
807.898	26826
808.04	26876
808.182	26834
808.324	26872
808.465	26857
808.607	27085
808.749	27348
808.891	27340
809.033	27279
809.174	27294
809.316	27195
809.458	27245
809.6	27150
809.741	27389
809.883	27374
810.025	27542
810.166	27477
810.308	27424
810.45	27492
810.591	27511
810.733	27154
810.875	27195
811.016	27001
811.158	27214
811.299	27275
811.441	27359
811.582	27382
811.724	27272
811.865	27207
812.007	27207
812.148	27207
812.29	27241
812.431	27279
812.573	27439
812.714	27462
812.855	27793
812.997	27789
813.138	27945
813.279	27914
813.421	27694
813.562	27583
813.703	27443
813.845	27222
813.986	27077
814.127	26967
814.268	26823
814.41	26948
814.551	26967
814.692	27058
814.833	26887
814.974	26743
815.115	26876
815.256	26743
815.397	26731
815.539	26754
815.68	26587
815.821	26598
815.962	26697
816.103	26804
816.244	26526
816.385	26271
816.526	26317
816.666	26259
816.807	26115
816.948	26134
817.089	26221
817.23	26081
817.371	26088
817.512	26092
817.653	26062
817.793	26081
817.934	26153
818.075	26050
818.216	26157
818.356	26119
818.497	25970
818.638	25799
818.778	26039
818.919	25890
819.06	25978
819.2	26016
819.341	26176
819.481	26005
819.622	26366
819.762	26377
819.903	26278
820.043	26218
820.184	26202
820.324	26240
820.465	26286
820.605	26138
820.746	26191
820.886	26081
821.026	26199
821.167	26142
821.307	26191
821.447	26149
821.588	26050
821.728	25894
821.868	25605
822.008	25556
822.149	25594
822.289	25559
822.429	25301
822.569	25160
822.709	25335
822.849	25091
822.99	25202
823.13	25247
823.27	24985
823.41	24943
823.55	24802
823.69	24806
823.83	24928
823.97	24958
824.11	24661
824.25	24692
824.389	24764
824.529	24783
824.669	24722
824.809	24814
824.949	24722
825.089	24817
825.228	24776
825.368	24490
825.508	24479
825.648	24604
825.787	24711
825.927	24684
826.067	24403
826.206	24532
826.346	24627
826.485	24642
826.625	24620
826.765	24749
826.904	24623
827.044	24426
827.183	24330
827.323	24296
827.462	24369
827.601	24232
827.741	24346
827.88	24369
828.02	24224
828.159	24247
828.298	24334
828.437	24197
828.577	24182
828.716	24365
828.855	24304
828.994	24038
829.134	23965
829.273	24110
829.412	23958
829.551	23954
829.69	24049
829.829	23935
829.968	24034
830.107	24106
830.246	23961
830.385	23904
830.524	23912
830.663	23809
830.802	23809
830.941	23592
831.08	23786
831.219	23608
831.357	23562
831.496	23885
831.635	23531
831.774	23501
831.913	23410
832.051	23345
832.19	23345
832.329	23455
832.467	23212
832.606	23174
832.744	23223
832.883	23277
833.022	23189
833.16	23174
833.299	23318
833.437	23200
833.576	23387
833.714	23318
833.852	23307
833.991	23391
834.129	23391
834.267	23360
834.406	23478
834.544	23372
834.682	23246
834.821	23246
834.959	23505
835.097	23261
835.235	23406
835.373	23235
835.511	23311
835.65	23216
835.788	23220
835.926	22995
836.064	22930
836.202	23014
836.34	23121
836.478	23242
836.615	23098
836.753	23102
836.891	23162
837.029	23193
837.167	23143
837.305	23022
837.443	23151
837.58	22980
837.718	23200
837.856	22976
837.993	22843
838.131	22881
838.269	22915
838.406	22843
838.544	22854
838.681	22774
838.819	22675
838.956	22405
839.094	22516
839.231	22512
839.369	22607
839.506	22957
839.643	22717
839.781	22466
839.918	22424
840.055	22405
840.193	22470
840.33	22424
840.467	22394
840.604	22592
840.742	22733
840.879	22215
841.016	22421
841.153	22261
841.29	22489
841.427	22394
841.564	22489
841.701	22382
841.838	22341
841.975	22348
842.112	22402
842.249	22268
842.385	22299
842.522	22519
842.659	22322
842.796	22074
842.933	22192
843.069	22200
843.206	22215
843.343	22238
843.479	22154
843.616	22204
843.752	21949
843.889	21937
844.025	21994
844.162	21789
844.298	22150
844.435	21907
844.571	21899
844.708	21926
844.844	22181
844.98	22051
845.117	22090
845.253	21972
845.389	21770
845.525	21831
845.661	21797
845.798	21713
845.934	21789
846.07	21500
846.206	21762
846.342	21675
846.478	21568
846.614	21595
846.75	21439
846.886	21351
847.022	21549
847.158	21515
847.294	21435
847.429	21431
847.565	21393
847.701	21644
847.837	21096
847.972	20956
848.108	21150
848.244	21222
848.379	21142
848.515	20986
848.65	20902
848.786	21112
848.921	21104
849.057	21081
849.192	21020
849.328	20933
849.463	20902
849.598	20998
849.734	20880
849.869	20834
850.004	20746
850.14	20804
850.275	20773
850.41	20785
850.545	20743
850.68	20716
850.815	20918
850.95	20697
851.085	20857
851.22	20891
851.355	20796
851.49	20769
851.625	20754
851.76	20705
851.895	20746
852.03	20667
852.165	20963
852.299	20720
852.434	20918
852.569	20648
852.703	20815
852.838	20883
852.973	20868
853.107	20982
853.242	20609
853.376	20720
853.511	20556
853.645	20537
853.78	20819
853.914	20667
854.048	20568
854.183	20632
854.317	20648
854.451	20792
854.585	20648
854.72	20575
854.854	20705
854.988	20473
855.122	20454
855.256	20400
855.39	20613
855.524	20663
855.658	20636
855.792	20507
855.926	20507
856.06	20609
856.194	20678
856.327	20469
856.461	20476
856.595	20556
856.729	20488
856.862	20712
856.996	20625
857.13	20629
857.263	20602
857.397	20701
857.53	20571
857.664	20560
857.797	20663
857.931	20769
858.064	20686
858.197	20758
858.331	20674
858.464	20514
858.597	20514
858.731	20594
858.864	20450
858.997	20533
859.13	20549
859.263	20533
859.396	20670
859.529	20507
859.662	20644
859.795	20514
859.928	20526
860.061	20823
860.194	20914
860.327	20648
860.46	20629
860.592	20663
860.725	20773
860.858	20826
860.99	20667
861.123	20556
861.256	20552
861.388	20503
861.521	21188
861.653	20522
861.786	20320
861.918	20514
862.05	20415
862.183	20541
862.315	20568
862.447	20632
862.58	20511
862.712	20244
862.844	20256
862.976	20343
863.108	20336
863.24	20750
863.372	20298
863.504	20351
863.636	20305
863.768	20298
863.9	20278
864.032	20240
864.164	20210
864.296	20450
864.428	20434
864.559	20366
864.691	20290
864.823	20347
864.954	20374
865.086	20282
865.217	20153
865.349	20168
865.48	20172
865.612	20259
865.743	20309
865.875	20214
866.006	20111
866.137	20214
866.269	20248
866.4	20244
866.531	19963
866.662	20176
866.793	20134
866.924	20248
867.055	20126
867.186	20126
867.317	20138
867.448	20138
867.579	20103
867.71	20122
867.841	20012
867.972	20176
868.103	20176
868.233	20210
868.364	20206
868.495	20195
868.625	20305
868.756	20362
868.886	20362
869.017	20396
869.147	20473
869.278	20499
869.408	20454
869.539	20408
869.669	20511
869.799	20499
869.929	20552
870.06	20495
870.19	20636
870.32	20564
870.45	20743
870.58	20785
870.71	20872
870.84	20948
870.97	20777
871.1	20705
871.23	21020
871.36	20963
871.489	20811
871.619	20979
871.749	20918
871.879	20929
872.008	20982
872.138	21009
872.267	20975
872.397	20796
872.526	20826
872.656	20769
872.785	20769
872.915	21142
873.044	21001
873.173	20971
873.303	21138
873.432	21165
873.561	21108
873.69	21123
873.819	20975
873.948	21157
874.077	20982
874.206	20880
874.335	21017
874.464	21077
874.593	21093
874.722	21329
874.851	21226
874.979	21230
875.108	21378
875.237	21180
875.365	21096
875.494	21192
875.623	21283
875.751	21226
875.88	21249
876.008	21355
876.136	21435
876.265	21694
876.393	21747
876.521	21656
876.65	21739
876.778	21656
876.906	21599
877.034	21553
877.162	21660
877.29	21523
877.418	21762
877.546	21492
877.674	21618
877.802	21671
877.93	21610
878.058	21538
878.185	21454
878.313	21610
878.441	21660
878.568	21401
878.696	21500
878.824	21682
878.951	21629
879.079	21778
879.206	21781
879.333	21781
879.461	21526
879.588	21701
879.715	21789
879.842	21899
879.97	21663
880.097	21485
880.224	21462
880.351	21545
880.478	21447
880.605	21416
880.732	21412
880.859	21652
880.986	21523
881.112	21469
881.239	21313
881.366	21272
881.493	21085
881.619	21001
881.746	21077
881.872	21058
881.999	20918
882.125	20796
882.252	20944
882.378	20994
882.505	21070
882.631	20811
882.757	20648
882.883	20838
883.01	20708
883.136	20705
883.262	20613
883.388	20594
883.514	20746
883.64	20773
883.766	20621
883.892	20450
884.018	20530
884.143	20651
884.269	20796
884.395	20503
884.52	20438
884.646	20389
884.772	20412
884.897	20267
885.023	20450
885.148	20442
885.274	20564
885.399	20465
885.524	20412
885.65	20332
885.775	20309
885.9	20309
886.025	20431
886.15	20446
886.275	20221
886.4	20370
886.525	20377
886.65	20195
886.775	20256
886.9	20396
887.025	20613
887.149	20328
887.274	20134
887.399	20126
887.523	20126
887.648	20001
887.773	20050
887.897	20103
888.021	20138
888.146	20111
888.27	20294
888.395	20191
888.519	20069
888.643	20263
888.767	20100
888.891	20103
889.015	19951
889.139	20012
889.263	20005
889.387	20130
889.511	20153
889.635	20016
889.759	19959
889.883	19917
890.006	19944
890.13	20054
890.254	19898
890.377	19856
890.501	19601
890.624	19670
890.748	19776
890.871	19613
890.995	19457
891.118	19396
891.241	19483
891.364	19480
891.488	19594
891.611	19552
891.734	19635
891.857	19601
891.98	19563
892.103	19563
892.226	19491
892.349	19651
892.471	19335
892.594	19457
892.717	19491
892.839	19426
892.962	19388
893.085	19521
893.207	19384
893.33	19438
893.452	19320
893.575	19628
893.697	19377
893.819	19609
893.941	19685
894.064	19586
894.186	19400
894.308	19396
894.43	19597
894.552	19575
894.674	19483
894.796	19244
894.918	19434
895.04	19365
895.161	19514
895.283	19480
895.405	19426
895.526	19392
895.648	19403
895.769	19468
895.891	19563
896.012	19601
896.134	19392
896.255	19510
896.376	19449
896.498	19392
896.619	19464
896.74	19438
896.861	19552
896.982	19795
897.103	19940
897.224	19784
897.345	19651
897.466	19495
897.587	19670
897.708	19849
897.828	19746
897.949	19647
898.07	19521
898.19	19563
898.311	19753
898.431	19620
898.552	19651
898.672	19830
898.792	19700
898.913	19605
899.033	19693
899.153	19491
899.273	19381
899.393	19434
899.513	19609
899.633	19468
899.753	19487
899.873	19392
899.993	19476
900.113	19369
900.232	19510
900.352	19388
900.472	19293
900.591	19270
900.711	19183
900.83	19232
900.95	19346
901.069	19373
901.189	19084
901.308	18996
901.427	18871
901.546	18833
901.665	18867
901.784	18802
901.904	18749
902.023	18536
902.141	18376
902.26	18448
902.379	18498
902.498	18350
902.617	18270
902.735	18460
902.854	18357
902.973	18232
903.091	17984
903.21	17988
903.328	18026
903.446	17954
903.565	17843
903.683	17866
903.801	17707
903.919	17790
904.038	17680
904.156	17710
904.274	17680
904.392	17585
904.51	17577
904.627	17581
904.745	17627
904.863	17611
904.981	17334
905.098	17345
905.216	17227
905.334	17360
905.451	17223
905.569	17299
905.686	17337
905.803	17189
905.921	17025
906.038	17212
906.155	17033
906.272	16999
906.389	17014
906.506	16820
906.623	16782
906.74	16752
906.857	16744
906.974	16752
907.091	16866
907.208	16786
907.324	16828
907.441	16801
907.557	16580
907.674	16440
907.79	16485
907.907	16508
908.023	16561
908.139	16531
908.256	16485
908.372	16485
908.488	16432
908.604	16363
908.72	16173
908.836	16253
908.952	16192
909.068	16382
909.184	16360
909.3	16314
909.415	16169
909.531	16181
909.647	16029
909.762	15987
909.878	16036
909.993	16044
910.108	15857
910.224	15895
910.339	15930
910.454	15816
910.57	15713
910.685	15705
910.8	16006
910.915	15930
911.03	15709
911.145	15584
911.259	15644
911.374	15595
911.489	15587
911.604	15458
911.718	15317
911.833	15348
911.947	15157
912.062	15161
912.176	15355
912.291	15321
912.405	15374
912.519	15519
912.633	15622
912.748	15355
912.862	15332
912.976	15161
913.09	15077
913.204	15017
913.318	15195
913.431	15173
913.545	15237
913.659	15329
913.772	15169
913.886	15001
914	14902
914.113	15036
914.226	15043
914.34	15123
914.453	14804
914.566	15020
914.68	14872
914.793	14769
914.906	14560
915.019	14674
915.132	14495
915.245	14541
915.358	14686
915.47	14640
915.583	14518
915.696	14697
915.809	14655
915.921	14663
916.034	14568
916.146	14457
916.259	14469
916.371	14640
916.483	14450
916.595	14408
916.708	14412
916.82	14328
916.932	14507
917.044	14400
917.156	14396
917.268	14172
917.38	14275
917.491	14138
917.603	14275
917.715	14377
917.826	14355
917.938	14199
918.049	14077
918.161	14332
918.272	14381
918.384	14328
918.495	14229
918.606	14092
918.717	13970
918.828	14046
918.939	14069
919.05	13951
919.161	14024
919.272	13795
919.383	13826
919.494	14088
919.604	14202
919.715	14024
919.826	13898
919.936	13947
920.047	14126
920.157	14016
920.267	14130
920.378	14008
920.488	13982
920.598	14164
920.708	14309
920.818	14092
920.928	14134
921.038	14336
921.148	14305
921.258	14058
921.368	13799
921.477	13856
921.587	13712
921.697	13567
921.806	13746
921.916	13613
922.025	13487
922.134	13518
922.244	13316
922.353	13426
922.462	13285
922.571	13278
922.68	13217
922.789	13110
922.898	13175
923.007	13008
923.116	13000
923.224	13088
923.333	12996
923.442	12833
923.55	12935
923.659	12890
923.767	12951
923.876	12798
923.984	12985
924.092	12741
924.201	12859
924.309	12741
924.417	12757
924.525	12700
924.633	12776
924.741	13700
924.849	12582
924.956	12639
925.064	12517
925.172	12479
925.279	12460
925.387	12456
925.494	12441
925.602	12684
925.709	12536
925.816	12327
925.924	12414
926.031	12498
926.138	12357
926.245	12490
926.352	12384
926.459	12471
926.566	12502
926.673	12391
926.779	12270
926.886	12235
926.993	12030
927.099	12045
927.206	12049
927.312	12076
927.419	12228
927.525	12003
927.631	12098
927.737	12007
927.843	11958
927.95	11832
928.056	11851
928.162	11889
928.267	11901
928.373	12525
928.479	12019
928.585	11786
928.69	11741
928.796	11958
928.901	11786
929.007	11657
929.112	11737
929.218	11783
929.323	11642
929.428	11688
929.533	11794
929.638	11661
929.743	11608
929.848	11623
929.953	11585
930.058	11482
930.163	11376
930.267	11296
930.372	11516
930.477	11303
930.581	11509
930.685	11410
930.79	11269
930.894	11261
930.998	11201
931.103	11337
931.207	11037
931.311	10889
931.415	10805
931.519	10683
931.623	10596
