Data from test_V78500241_3131.txt Node
Date: Fri Mar 25 15:31:39 CST 2022
User: usil
Spectrometer: V785-0024
Trigger mode: 0
Integration Time (sec): 4.000000E-1
Scans to average: 1
Nonlinearity correction enabled: false
Boxcar width: 0
Storing dark spectrum: false
XAxis mode: Wavelengths
Number of Pixels in Spectrum: 1024
>>>>>Begin Spectral Data<<<<<
801.071	26929
801.214	26842
801.356	26693
801.499	26689
801.641	26537
801.783	26583
801.926	26571
802.068	26579
802.211	26412
802.353	26370
802.496	26103
802.638	26275
802.78	26126
802.923	26161
803.065	26096
803.208	26020
803.35	26195
803.492	26225
803.635	26271
803.777	26153
803.919	26320
804.061	26598
804.204	26305
804.346	26248
804.488	26199
804.63	26096
804.773	26218
804.915	26336
805.057	26343
805.199	26229
805.341	26484
805.483	26419
805.626	26419
805.768	26218
805.91	26347
806.052	26434
806.194	26309
806.336	26651
806.478	26480
806.62	26537
806.762	26412
806.904	26541
807.046	26910
807.188	26838
807.33	26830
807.472	26895
807.614	26769
807.756	26796
807.898	26613
808.04	26560
808.182	26552
808.324	26598
808.465	26682
808.607	26819
808.749	26975
808.891	27138
809.033	27112
809.174	26948
809.316	27028
809.458	27028
809.6	26944
809.741	27043
809.883	27138
810.025	27131
810.166	27249
810.308	27363
810.45	27184
810.591	27180
810.733	26990
810.875	27013
811.016	26918
811.158	26834
811.299	27032
811.441	27173
811.582	27005
811.724	26906
811.865	26876
812.007	26956
812.148	26899
812.29	27024
812.431	27325
812.573	27321
812.714	27351
812.855	27485
812.997	27610
813.138	27595
813.279	27553
813.421	27523
813.562	27424
813.703	27245
813.845	27211
813.986	26937
814.127	26716
814.268	26651
814.41	26518
814.551	26568
814.692	26701
814.833	26495
814.974	26541
815.115	26590
815.256	26583
815.397	26545
815.539	26514
815.68	26457
815.821	26301
815.962	26408
816.103	26320
816.244	26324
816.385	26267
816.526	26134
816.666	25989
816.807	25696
816.948	26008
817.089	25959
817.23	25909
817.371	25776
817.512	25795
817.653	25803
817.793	25845
817.934	25868
818.075	25879
818.216	25940
818.356	25894
818.497	25776
818.638	25548
818.778	25601
818.919	25647
819.06	25616
819.2	25731
819.341	25845
819.481	25913
819.622	26005
819.762	26225
819.903	26046
820.043	26005
820.184	26001
820.324	25959
820.465	26100
820.605	25879
820.746	26024
820.886	25841
821.026	25917
821.167	25959
821.307	26122
821.447	25753
821.588	25658
821.728	25605
821.868	25476
822.008	25434
822.149	25240
822.289	25369
822.429	25069
822.569	24947
822.709	24916
822.849	24798
822.99	24703
823.13	24810
823.27	24829
823.41	24639
823.55	24422
823.69	24661
823.83	24585
823.97	24608
824.11	24456
824.25	24289
824.389	24403
824.529	24532
824.669	24369
824.809	24585
824.949	24563
825.089	24601
825.228	24437
825.368	24228
825.508	24232
825.648	24251
825.787	24239
825.927	24445
826.067	24228
826.206	24300
826.346	24292
826.485	24319
826.625	24273
826.765	24372
826.904	24277
827.044	24178
827.183	24045
827.323	23984
827.462	24049
827.601	24064
827.741	24030
827.88	24140
828.02	23767
828.159	23977
828.298	24015
828.437	24053
828.577	23935
828.716	24045
828.855	23851
828.994	23695
829.134	23653
829.273	23783
829.412	23737
829.551	23729
829.69	23630
829.829	23809
829.968	23756
830.107	23885
830.246	23710
830.385	23722
830.524	23554
830.663	23611
830.802	23551
830.941	23296
831.08	23166
831.219	23410
831.357	23402
831.496	23490
831.635	23414
831.774	23246
831.913	23250
832.051	23105
832.19	23136
832.329	23185
832.467	23041
832.606	23086
832.744	23033
832.883	23071
833.022	22946
833.16	23025
833.299	22987
833.437	23067
833.576	23056
833.714	23029
833.852	23079
833.991	23109
834.129	23189
834.267	23136
834.406	23200
834.544	23109
834.682	23060
834.821	23083
834.959	23170
835.097	23022
835.235	23132
835.373	23105
835.511	22980
835.65	23006
835.788	22892
835.926	22801
836.064	22668
836.202	22850
836.34	22923
836.478	22980
836.615	22843
836.753	22972
836.891	23033
837.029	22995
837.167	22908
837.305	22900
837.443	22816
837.58	22801
837.718	22797
837.856	22862
837.993	22752
838.131	22752
838.269	22660
838.406	22611
838.544	22637
838.681	22417
838.819	22363
838.956	22318
839.094	22272
839.231	22306
839.369	22398
839.506	22603
839.643	22455
839.781	22284
839.918	22131
840.055	22295
840.193	22200
840.33	22006
840.467	22223
840.604	22276
840.742	22367
840.879	22063
841.016	22154
841.153	22082
841.29	22246
841.427	22261
841.564	22329
841.701	22181
841.838	22185
841.975	22051
842.112	22105
842.249	22150
842.385	21987
842.522	22192
842.659	22074
842.796	21953
842.933	21873
843.069	21915
843.206	21926
843.343	21979
843.479	21975
843.616	22025
843.752	21736
843.889	21667
844.025	21861
844.162	21698
844.298	21827
844.435	21698
844.571	21652
844.708	21728
844.844	21812
844.98	21835
845.117	21812
845.253	21698
845.389	21500
845.525	21732
845.661	21580
845.798	21500
845.934	21572
846.07	21443
846.206	21443
846.342	21667
846.478	21428
846.614	21275
846.75	21184
846.886	21203
847.022	21252
847.158	21226
847.294	21275
847.429	21268
847.565	21058
847.701	21435
847.837	20990
847.972	20891
848.108	20952
848.244	20899
848.379	20792
848.515	20975
848.65	20746
848.786	20716
848.921	20785
849.057	20788
849.192	20902
849.328	20857
849.463	20880
849.598	20792
849.734	20769
849.869	20670
850.004	20556
850.14	20583
850.275	20651
850.41	20461
850.545	20492
850.68	20632
850.815	20499
850.95	20644
851.085	20811
851.22	20609
851.355	20446
851.49	20617
851.625	20518
851.76	20617
851.895	20457
852.03	20454
852.165	20503
852.299	20568
852.434	20648
852.569	20469
852.703	20537
852.838	20590
852.973	20609
853.107	20579
853.242	20446
853.376	20313
853.511	20305
853.645	20389
853.78	20480
853.914	20457
854.048	20339
854.183	20301
854.317	20412
854.451	20632
854.585	20419
854.72	20377
854.854	20484
854.988	20374
855.122	20389
855.256	20191
855.39	20339
855.524	20404
855.658	20511
855.792	20298
855.926	20492
856.06	20366
856.194	20473
856.327	20370
856.461	20381
856.595	20374
856.729	20404
856.862	20537
856.996	20446
857.13	20454
857.263	20423
857.397	20545
857.53	20541
857.664	20465
857.797	20518
857.931	20522
858.064	20393
858.197	20511
858.331	20396
858.464	20294
858.597	20339
858.731	20366
858.864	20358
858.997	20298
859.13	20385
859.263	20427
859.396	20396
859.529	20343
859.662	20492
859.795	20187
859.928	20343
860.061	20629
860.194	20492
860.327	20442
860.46	20404
860.592	20495
860.725	20492
860.858	20480
860.99	20461
861.123	20347
861.256	20415
861.388	20263
861.521	20876
861.653	20244
861.786	20164
861.918	20313
862.05	20332
862.183	20313
862.315	20343
862.447	20381
862.58	20324
862.712	20180
862.844	20115
862.976	20259
863.108	20225
863.24	20408
863.372	20035
863.504	20115
863.636	20149
863.768	20153
863.9	20077
864.032	20005
864.164	20134
864.296	20115
864.428	20153
864.559	20180
864.691	20214
864.823	20073
864.954	20096
865.086	20046
865.217	20005
865.349	19864
865.48	19951
865.612	20031
865.743	20145
865.875	20115
866.006	20069
866.137	20008
866.269	20050
866.4	19902
866.531	19894
866.662	19925
866.793	20001
866.924	19978
867.055	20046
867.186	20084
867.317	19906
867.448	19856
867.579	19959
867.71	19955
867.841	19909
867.972	19997
868.103	19932
868.233	20088
868.364	19932
868.495	20001
868.625	20240
868.756	20244
868.886	20138
869.017	20248
869.147	20294
869.278	20415
869.408	20164
869.539	20134
869.669	20221
869.799	20168
869.929	20267
870.06	20374
870.19	20541
870.32	20438
870.45	20564
870.58	20701
870.71	20705
870.84	20758
870.97	20697
871.1	20693
871.23	20800
871.36	20678
871.489	20724
871.619	20659
871.749	20849
871.879	20861
872.008	20872
872.138	20781
872.267	20815
872.397	20697
872.526	20583
872.656	20625
872.785	20735
872.915	20804
873.044	20929
873.173	20804
873.303	20842
873.432	20845
873.561	20849
873.69	20811
873.819	20781
873.948	20998
874.077	20967
874.206	20731
874.335	20762
874.464	20899
874.593	21017
874.722	21070
874.851	21161
874.979	20998
875.108	21146
875.237	21108
875.365	21108
875.494	21093
875.623	21157
875.751	21108
875.88	21119
876.008	21252
876.136	21256
876.265	21431
876.393	21610
876.521	21492
876.65	21591
876.778	21568
876.906	21466
877.034	21435
877.162	21359
877.29	21370
877.418	21462
877.546	21500
877.674	21526
877.802	21553
877.93	21405
878.058	21424
878.185	21310
878.313	21439
878.441	21370
878.568	21355
878.696	21283
878.824	21485
878.951	21545
879.079	21534
879.206	21622
879.333	21542
879.461	21580
879.588	21591
879.715	21614
879.842	21724
879.97	21389
880.097	21302
880.224	21169
880.351	21310
880.478	21294
880.605	21256
880.732	21211
880.859	21511
880.986	21329
881.112	21207
881.239	21100
881.366	21028
881.493	20796
881.619	20838
881.746	20891
881.872	20948
881.999	20777
882.125	20792
882.252	20910
882.378	20792
882.505	20899
882.631	20708
882.757	20693
882.883	20705
883.01	20499
883.136	20552
883.262	20442
883.388	20484
883.514	20495
883.64	20670
883.766	20465
883.892	20374
884.018	20317
884.143	20412
884.269	20457
884.395	20408
884.52	20176
884.646	20301
884.772	20301
884.897	20130
885.023	20263
885.148	20324
885.274	20328
885.399	20336
885.524	20058
885.65	20206
885.775	20199
885.9	20221
886.025	20377
886.15	20278
886.275	20149
886.4	20119
886.525	20103
886.65	20107
886.775	20145
886.9	20115
887.025	20370
887.149	20142
887.274	20039
887.399	20077
887.523	20012
887.648	19921
887.773	19951
887.897	20039
888.021	20096
888.146	19913
888.27	20043
888.395	20134
888.519	20172
888.643	20077
888.767	20073
888.891	19982
889.015	19769
889.139	19860
889.263	19807
889.387	19951
889.511	20027
889.635	19906
889.759	19769
889.883	19693
890.006	19738
890.13	19803
890.254	19674
890.377	19734
890.501	19567
890.624	19533
890.748	19590
890.871	19415
890.995	19495
891.118	19339
891.241	19362
891.364	19373
891.488	19537
891.611	19301
891.734	19415
891.857	19468
891.98	19209
892.103	19476
892.226	19422
892.349	19187
892.471	19145
892.594	19346
892.717	19327
892.839	19240
892.962	19266
893.085	19308
893.207	19263
893.33	19194
893.452	19198
893.575	19343
893.697	19316
893.819	19358
893.941	19521
894.064	19480
894.186	19160
894.308	19240
894.43	19270
894.552	19445
894.674	19388
894.796	19304
894.918	19278
895.04	19259
895.161	19301
895.283	19282
895.405	19232
895.526	19278
895.648	19282
895.769	19362
895.891	19339
896.012	19358
896.134	19343
896.255	19445
896.376	19301
896.498	19358
896.619	19316
896.74	19236
896.861	19335
896.982	19575
897.103	19719
897.224	19548
897.345	19559
897.466	19548
897.587	19635
897.708	19647
897.828	19506
897.949	19533
898.07	19381
898.19	19556
898.311	19674
898.431	19445
898.552	19590
898.672	19559
898.792	19605
898.913	19578
899.033	19301
899.153	19388
899.273	19350
899.393	19301
899.513	19289
899.633	19206
899.753	19381
899.873	19312
899.993	19400
900.113	19202
900.232	19278
900.352	19187
900.472	19225
900.591	19034
900.711	19194
900.83	19072
900.95	19217
901.069	19126
901.189	18939
901.308	18760
901.427	18658
901.546	18661
901.665	18791
901.784	18646
901.904	18525
902.023	18479
902.141	18361
902.26	18266
902.379	18311
902.498	18266
902.617	18232
902.735	18285
902.854	18163
902.973	18205
903.091	17973
903.21	17836
903.328	17927
903.446	17821
903.565	17748
903.683	17623
903.801	17611
903.919	17680
904.038	17627
904.156	17455
904.274	17596
904.392	17482
904.51	17391
904.627	17429
904.745	17440
904.863	17414
904.981	17216
905.098	17189
905.216	17140
905.334	17303
905.451	17193
905.569	17147
905.686	17231
905.803	17128
905.921	17037
906.038	16976
906.155	16976
906.272	16869
906.389	16843
906.506	16729
906.623	16809
906.74	16702
906.857	16596
906.974	16569
907.091	16710
907.208	16778
907.324	16679
907.441	16626
907.557	16474
907.674	16466
907.79	16337
907.907	16371
908.023	16516
908.139	16421
908.256	16421
908.372	16291
908.488	16287
908.604	16147
908.72	16215
908.836	16120
908.952	16032
909.068	16196
909.184	16185
909.3	16135
909.415	16169
909.531	16112
909.647	15953
909.762	15789
909.878	15869
909.993	15800
910.108	15846
910.224	15846
910.339	15915
910.454	15797
910.57	15641
910.685	15648
910.8	15861
910.915	15823
911.03	15603
911.145	15507
911.259	15492
911.374	15447
911.489	15386
911.604	15405
911.718	15169
911.833	15218
911.947	15138
912.062	15131
912.176	15306
912.291	15264
912.405	15195
912.519	15431
912.633	15420
912.748	15245
912.862	15199
912.976	15047
913.09	14929
913.204	14956
913.318	15020
913.431	15161
913.545	15142
913.659	15138
913.772	15070
913.886	14929
914	14864
914.113	14986
914.226	14921
914.34	14880
914.453	14750
914.566	14765
914.68	14731
914.793	14777
914.906	14518
915.019	14560
915.132	14320
915.245	14454
915.358	14492
915.47	14507
915.583	14461
915.696	14526
915.809	14537
915.921	14663
916.034	14507
916.146	14438
916.259	14324
916.371	14446
916.483	14389
916.595	14343
916.708	14290
916.82	14332
916.932	14305
917.044	14294
917.156	14206
917.268	14187
917.38	14153
917.491	14054
917.603	14180
917.715	14164
917.826	14298
917.938	14058
918.049	13944
918.161	14058
918.272	14248
918.384	14199
918.495	14096
918.606	13909
918.717	13917
918.828	13947
918.939	13959
919.05	13852
919.161	13902
919.272	13651
919.383	13712
919.494	13978
919.604	14142
919.715	13837
919.826	13879
919.936	13811
920.047	13986
920.157	13906
920.267	14084
920.378	13864
920.488	13902
920.598	13993
920.708	14183
920.818	14092
920.928	14035
921.038	14229
921.148	14142
921.258	13841
921.368	13765
921.477	13712
921.587	13643
921.697	13556
921.806	13712
921.916	13514
922.025	13354
922.134	13301
922.244	13320
922.353	13422
922.462	13187
922.571	13103
922.68	12977
922.789	13034
922.898	12989
923.007	12897
923.116	12958
923.224	13004
923.333	12913
923.442	12825
923.55	12848
923.659	12837
923.767	12859
923.876	12817
923.984	12791
924.092	12639
924.201	12840
924.309	12768
924.417	12768
924.525	12696
924.633	12722
924.741	13491
924.849	12452
924.956	12593
925.064	12441
925.172	12372
925.279	12391
925.387	12380
925.494	12414
925.602	12544
925.709	12471
925.816	12361
925.924	12323
926.031	12327
926.138	12426
926.245	12467
926.352	12197
926.459	12407
926.566	12395
926.673	12323
926.779	12201
926.886	12106
926.993	12072
927.099	11996
927.206	11931
927.312	11863
927.419	11958
927.525	11961
927.631	11988
927.737	11832
927.843	11843
927.95	11710
928.056	11832
928.162	11790
928.267	11840
928.373	12433
928.479	11939
928.585	11649
928.69	11741
928.796	11817
928.901	11748
929.007	11486
929.112	11672
929.218	11703
929.323	11661
929.428	11551
929.533	11699
929.638	11482
929.743	11524
929.848	11570
929.953	11512
930.058	11372
930.163	11239
930.267	11292
930.372	11349
930.477	11250
930.581	11467
930.685	11307
930.79	11140
930.894	11185
930.998	11181
931.103	11239
931.207	10869
931.311	10824
931.415	10767
931.519	10565
931.623	10573
