Data from test_V78500241_2320.txt Node
Date: Fri Mar 25 15:26:00 CST 2022
User: usil
Spectrometer: V785-0024
Trigger mode: 0
Integration Time (sec): 4.000000E-1
Scans to average: 1
Nonlinearity correction enabled: false
Boxcar width: 0
Storing dark spectrum: false
XAxis mode: Wavelengths
Number of Pixels in Spectrum: 1024
>>>>>Begin Spectral Data<<<<<
801.071	27336
801.214	27279
801.356	27173
801.499	26906
801.641	27047
801.783	26910
801.926	27093
802.068	26880
802.211	26819
802.353	26887
802.496	26537
802.638	26503
802.78	26465
802.923	26640
803.065	26484
803.208	26522
803.35	26537
803.492	26689
803.635	26743
803.777	26716
803.919	26743
804.061	27214
804.204	26880
804.346	26674
804.488	26750
804.63	26686
804.773	26648
804.915	26861
805.057	26811
805.199	26621
805.341	26754
805.483	26963
805.626	26853
805.768	26777
805.91	26849
806.052	26792
806.194	26701
806.336	26998
806.478	26944
806.62	26807
806.762	27077
806.904	27135
807.046	27214
807.188	27252
807.33	27294
807.472	27363
807.614	27226
807.756	27188
807.898	27119
808.04	27116
808.182	27123
808.324	27154
808.465	27176
808.607	27526
808.749	27481
808.891	27500
809.033	27580
809.174	27485
809.316	27439
809.458	27523
809.6	27405
809.741	27443
809.883	27690
810.025	27774
810.166	27686
810.308	27717
810.45	27648
810.591	27622
810.733	27393
810.875	27443
811.016	27336
811.158	27287
811.299	27420
811.441	27553
811.582	27606
811.724	27500
811.865	27469
812.007	27317
812.148	27310
812.29	27382
812.431	27671
812.573	27812
812.714	27762
812.855	27846
812.997	28036
813.138	28032
813.279	28029
813.421	28063
813.562	27804
813.703	27717
813.845	27633
813.986	27481
814.127	27378
814.268	27142
814.41	27214
814.551	27074
814.692	27203
814.833	27157
814.974	27104
815.115	27085
815.256	27020
815.397	26990
815.539	27036
815.68	26887
815.821	26819
815.962	26796
816.103	26853
816.244	26686
816.385	26678
816.526	26568
816.666	26583
816.807	26476
816.948	26476
817.089	26393
817.23	26549
817.371	26343
817.512	26320
817.653	26408
817.793	26225
817.934	26343
818.075	26336
818.216	26434
818.356	26218
818.497	26263
818.638	26191
818.778	26096
818.919	26240
819.06	26100
819.2	26237
819.341	26324
819.481	26358
819.622	26613
819.762	26754
819.903	26571
820.043	26408
820.184	26549
820.324	26476
820.465	26518
820.605	26537
820.746	26370
820.886	26256
821.026	26347
821.167	26328
821.307	26457
821.447	26377
821.588	26332
821.728	26237
821.868	25974
822.008	25875
822.149	25860
822.289	25776
822.429	25594
822.569	25620
822.709	25559
822.849	25396
822.99	25365
823.13	25304
823.27	25255
823.41	25019
823.55	25107
823.69	25091
823.83	25171
823.97	25019
824.11	24996
824.25	24973
824.389	25027
824.529	25061
824.669	25038
824.809	25000
824.949	25027
825.089	24985
825.228	25038
825.368	24783
825.508	24916
825.648	24829
825.787	24920
825.927	24909
826.067	24783
826.206	24719
826.346	24916
826.485	24863
826.625	24749
826.765	24890
826.904	24753
827.044	24707
827.183	24707
827.323	24604
827.462	24631
827.601	24677
827.741	24509
827.88	24692
828.02	24448
828.159	24650
828.298	24673
828.437	24608
828.577	24426
828.716	24601
828.855	24323
828.994	24258
829.134	24262
829.273	24418
829.412	24235
829.551	24167
829.69	24213
829.829	24296
829.968	24258
830.107	24445
830.246	24391
830.385	24220
830.524	24186
830.663	24178
830.802	24038
830.941	23817
831.08	23889
831.219	23996
831.357	23916
831.496	24251
831.635	23874
831.774	23863
831.913	23687
832.051	23794
832.19	23661
832.329	23687
832.467	23646
832.606	23551
832.744	23562
832.883	23600
833.022	23608
833.16	23562
833.299	23573
833.437	23589
833.576	23634
833.714	23714
833.852	23684
833.991	23798
834.129	23703
834.267	23756
834.406	23684
834.544	23657
834.682	23547
834.821	23627
834.959	23794
835.097	23577
835.235	23707
835.373	23585
835.511	23668
835.65	23455
835.788	23497
835.926	23417
836.064	23208
836.202	23425
836.34	23611
836.478	23459
836.615	23467
836.753	23440
836.891	23497
837.029	23592
837.167	23364
837.305	23425
837.443	23345
837.58	23353
837.718	23345
837.856	23239
837.993	23250
838.131	23216
838.269	23204
838.406	23239
838.544	23166
838.681	22881
838.819	22949
838.956	22892
839.094	22740
839.231	22812
839.369	22984
839.506	23212
839.643	23025
839.781	22713
839.918	22637
840.055	22755
840.193	22812
840.33	22679
840.467	22691
840.604	22702
840.742	22942
840.879	22546
841.016	22618
841.153	22691
841.29	22740
841.427	22698
841.564	22630
841.701	22717
841.838	22721
841.975	22470
842.112	22577
842.249	22557
842.385	22405
842.522	22755
842.659	22493
842.796	22459
842.933	22382
843.069	22363
843.206	22421
843.343	22516
843.479	22470
843.616	22405
843.752	22341
843.889	22314
844.025	22382
844.162	22249
844.298	22299
844.435	22242
844.571	22310
844.708	22268
844.844	22329
844.98	22344
845.117	22272
845.253	22150
845.389	22059
845.525	22177
845.661	22101
845.798	21964
845.934	22070
846.07	21930
846.206	22063
846.342	22025
846.478	21899
846.614	21797
846.75	21622
846.886	21755
847.022	21736
847.158	21663
847.294	21698
847.429	21709
847.565	21622
847.701	22021
847.837	21428
847.972	21408
848.108	21561
848.244	21538
848.379	21317
848.515	21313
848.65	21272
848.786	21348
848.921	21378
849.057	21443
849.192	21458
849.328	21272
849.463	21351
849.598	21249
849.734	21226
849.869	21116
850.004	21150
850.14	21070
850.275	21074
850.41	21017
850.545	20967
850.68	20948
850.815	21108
850.95	21142
851.085	21291
851.22	21222
851.355	21032
851.49	21089
851.625	20994
851.76	21093
851.895	20925
852.03	21013
852.165	20990
852.299	20925
852.434	21036
852.569	21157
852.703	21100
852.838	21043
852.973	21108
853.107	21100
853.242	20956
853.376	20899
853.511	20830
853.645	20765
853.78	20929
853.914	20967
854.048	20769
854.183	20853
854.317	20967
854.451	21043
854.585	20800
854.72	20765
854.854	20944
854.988	20785
855.122	20967
855.256	20697
855.39	20880
855.524	20868
855.658	20834
855.792	20762
855.926	20944
856.06	20963
856.194	21112
856.327	20861
856.461	20826
856.595	20815
856.729	20842
856.862	20944
856.996	20990
857.13	20979
857.263	20918
857.397	20941
857.53	20883
857.664	20891
857.797	20986
857.931	21020
858.064	20876
858.197	20967
858.331	20857
858.464	20659
858.597	20902
858.731	20811
858.864	20971
858.997	20815
859.13	20895
859.263	20963
859.396	20921
859.529	20887
859.662	20777
859.795	20830
859.928	20853
860.061	21085
860.194	21100
860.327	20929
860.46	20823
860.592	20910
860.725	21070
860.858	21001
860.99	20902
861.123	20864
861.256	20796
861.388	20891
861.521	21713
861.653	20746
861.786	20659
861.918	20682
862.05	20785
862.183	20838
862.315	20743
862.447	20868
862.58	20727
862.712	20541
862.844	20636
862.976	20712
863.108	20636
863.24	21085
863.372	20457
863.504	20545
863.636	20598
863.768	20636
863.9	20450
864.032	20594
864.164	20594
864.296	20552
864.428	20819
864.559	20746
864.691	20708
864.823	20488
864.954	20629
865.086	20625
865.217	20537
865.349	20396
865.48	20522
865.612	20511
865.743	20564
865.875	20644
866.006	20461
866.137	20442
866.269	20499
866.4	20526
866.531	20389
866.662	20370
866.793	20396
866.924	20343
867.055	20499
867.186	20457
867.317	20454
867.448	20313
867.579	20427
867.71	20374
867.841	20278
867.972	20442
868.103	20332
868.233	20408
868.364	20476
868.495	20522
868.625	20811
868.756	20716
868.886	20602
869.017	20651
869.147	20811
869.278	20868
869.408	20796
869.539	20678
869.669	20727
869.799	20712
869.929	20777
870.06	20819
870.19	21089
870.32	20807
870.45	21039
870.58	21028
870.71	21188
870.84	21081
870.97	20982
871.1	21020
871.23	21264
871.36	21241
871.489	21154
871.619	21272
871.749	21157
871.879	21272
872.008	21344
872.138	21317
872.267	21306
872.397	21272
872.526	21127
872.656	21036
872.785	21222
872.915	21176
873.044	21389
873.173	21260
873.303	21302
873.432	21298
873.561	21325
873.69	21325
873.819	21268
873.948	21416
874.077	21313
874.206	21188
874.335	21264
874.464	21485
874.593	21481
874.722	21462
874.851	21534
874.979	21496
875.108	21553
875.237	21439
875.365	21443
875.494	21507
875.623	21492
875.751	21496
875.88	21515
876.008	21572
876.136	21720
876.265	22006
876.393	22040
876.521	22097
876.65	21975
876.778	21880
876.906	21831
877.034	21789
877.162	21797
877.29	21903
877.418	21895
877.546	21831
877.674	21827
877.802	21747
877.93	21804
878.058	21797
878.185	21713
878.313	21865
878.441	21873
878.568	21717
878.696	21736
878.824	21907
878.951	21793
879.079	21937
879.206	22181
879.333	21934
879.461	21835
879.588	21979
879.715	22101
879.842	22219
879.97	21934
880.097	21812
880.224	21637
880.351	21675
880.478	21743
880.605	21739
880.732	21644
880.859	22021
880.986	21759
881.112	21739
881.239	21538
881.366	21370
881.493	21336
881.619	21165
881.746	21302
881.872	21283
881.999	21233
882.125	21150
882.252	21294
882.378	21222
882.505	21431
882.631	21176
882.757	20975
882.883	21089
883.01	21028
883.136	20971
883.262	20765
883.388	20765
883.514	20994
883.64	21017
883.766	20925
883.892	20796
884.018	20902
884.143	20921
884.269	21062
884.395	20651
884.52	20621
884.646	20609
884.772	20560
884.897	20571
885.023	20632
885.148	20720
885.274	20834
885.399	20640
885.524	20659
885.65	20678
885.775	20735
885.9	20613
886.025	20823
886.15	20648
886.275	20571
886.4	20537
886.525	20556
886.65	20594
886.775	20473
886.9	20682
887.025	20868
887.149	20564
887.274	20461
887.399	20362
887.523	20377
887.648	20366
887.773	20347
887.897	20434
888.021	20442
888.146	20370
888.27	20404
888.395	20522
888.519	20469
888.643	20362
888.767	20320
888.891	20377
889.015	20122
889.139	20199
889.263	20142
889.387	20339
889.511	20396
889.635	20343
889.759	20138
889.883	20157
890.006	20218
890.13	20199
890.254	20191
890.377	20138
890.501	19955
890.624	19963
890.748	20043
890.871	19826
890.995	19803
891.118	19719
891.241	19753
891.364	19833
891.488	19967
891.611	19852
891.734	19772
891.857	19772
891.98	19757
892.103	19799
892.226	19807
892.349	19803
892.471	19518
892.594	19795
892.717	19685
892.839	19658
892.962	19658
893.085	19871
893.207	19715
893.33	19502
893.452	19529
893.575	19696
893.697	19662
893.819	19951
893.941	19788
894.064	19879
894.186	19548
894.308	19704
894.43	19757
894.552	19917
894.674	19723
894.796	19681
894.918	19632
895.04	19575
895.161	19776
895.283	19700
895.405	19594
895.526	19738
895.648	19753
895.769	19696
895.891	19662
896.012	19772
896.134	19738
896.255	19689
896.376	19753
896.498	19677
896.619	19635
896.74	19746
896.861	19868
896.982	19928
897.103	20119
897.224	19963
897.345	19776
897.466	19932
897.587	19967
897.708	20043
897.828	20031
897.949	19868
898.07	19799
898.19	19807
898.311	20062
898.431	19818
898.552	19989
898.672	19928
898.792	19986
898.913	19936
899.033	19757
899.153	19750
899.273	19704
899.393	19681
899.513	19738
899.633	19704
899.753	19693
899.873	19753
899.993	19708
900.113	19776
900.232	19727
900.352	19510
900.472	19460
900.591	19320
900.711	19438
900.83	19373
900.95	19480
901.069	19514
901.189	19327
901.308	19076
901.427	19019
901.546	19076
901.665	19103
901.784	19057
901.904	18924
902.023	18802
902.141	18620
902.26	18635
902.379	18559
902.498	18604
902.617	18498
902.735	18604
902.854	18559
902.973	18452
903.091	18277
903.21	18281
903.328	18262
903.446	18125
903.565	17992
903.683	18163
903.801	17969
903.919	18007
904.038	17927
904.156	17859
904.274	17893
904.392	17851
904.51	17680
904.627	17866
904.745	17832
904.863	17931
904.981	17646
905.098	17467
905.216	17532
905.334	17611
905.451	17535
905.569	17406
905.686	17520
905.803	17455
905.921	17284
906.038	17406
906.155	17235
906.272	17147
906.389	17307
906.506	17052
906.623	17105
906.74	16980
906.857	16972
906.974	17022
907.091	17121
907.208	17064
907.324	17083
907.441	16915
907.557	16839
907.674	16759
907.79	16721
907.907	16653
908.023	16812
908.139	16637
908.256	16672
908.372	16664
908.488	16622
908.604	16569
908.72	16500
908.836	16459
908.952	16440
909.068	16500
909.184	16531
909.3	16459
909.415	16554
909.531	16516
909.647	16272
909.762	16105
909.878	16128
909.993	16147
910.108	16131
910.224	16207
910.339	16120
910.454	16147
910.57	16051
910.685	15922
910.8	16067
910.915	16162
911.03	15972
911.145	15793
911.259	15770
911.374	15827
911.489	15553
911.604	15701
911.718	15595
911.833	15523
911.947	15462
912.062	15241
912.176	15466
912.291	15530
912.405	15485
912.519	15633
912.633	15591
912.748	15648
912.862	15580
912.976	15363
913.09	15214
913.204	15374
913.318	15351
913.431	15500
913.545	15439
913.659	15431
913.772	15325
913.886	15214
914	15074
914.113	15291
914.226	15245
914.34	15317
914.453	15070
914.566	15161
914.68	15074
914.793	15055
914.906	14906
915.019	14739
915.132	14743
915.245	14842
915.358	14697
915.47	14769
915.583	14773
915.696	14834
915.809	14895
915.921	14918
916.034	14724
916.146	14625
916.259	14648
916.371	14792
916.483	14743
916.595	14537
916.708	14667
916.82	14625
916.932	14541
917.044	14568
917.156	14480
917.268	14423
917.38	14408
917.491	14507
917.603	14343
917.715	14526
917.826	14552
917.938	14393
918.049	14263
918.161	14256
918.272	14533
918.384	14393
918.495	14427
918.606	14294
918.717	14252
918.828	14248
918.939	14183
919.05	14100
919.161	14229
919.272	13936
919.383	14016
919.494	14301
919.604	14404
919.715	14244
919.826	14161
919.936	14126
920.047	14286
920.157	14187
920.267	14358
920.378	14229
920.488	14195
920.598	14389
920.708	14499
920.818	14286
920.928	14275
921.038	14457
921.148	14461
921.258	14145
921.368	14069
921.477	13890
921.587	13921
921.697	13811
921.806	13970
921.916	13784
922.025	13674
922.134	13624
922.244	13590
922.353	13655
922.462	13441
922.571	13343
922.68	13194
922.789	13263
922.898	13266
923.007	13187
923.116	13301
923.224	13202
923.333	13152
923.442	13042
923.55	13057
923.659	12970
923.767	13149
923.876	12943
923.984	13080
924.092	12894
924.201	12962
924.309	12993
924.417	12913
924.525	12871
924.633	12859
924.741	13788
924.849	12722
924.956	12787
925.064	12753
925.172	12639
925.279	12635
925.387	12696
925.494	12631
925.602	12795
925.709	12658
925.816	12494
925.924	12673
926.031	12726
926.138	12566
926.245	12582
926.352	12506
926.459	12627
926.566	12658
926.673	12536
926.779	12418
926.886	12418
926.993	12235
927.099	12209
927.206	12125
927.312	12125
927.419	12243
927.525	12213
927.631	12266
927.737	12129
927.843	12102
927.95	12026
928.056	12068
928.162	12129
928.267	12102
928.373	12604
928.479	12121
928.585	11942
928.69	12019
928.796	11977
928.901	11931
929.007	11863
929.112	11908
929.218	11999
929.323	11843
929.428	11783
929.533	11889
929.638	11665
929.743	11737
929.848	11764
929.953	11703
930.058	11630
930.163	11433
930.267	11642
930.372	11562
930.477	11410
930.581	11688
930.685	11566
930.79	11429
930.894	11406
930.998	11315
931.103	11471
931.207	11132
931.311	11060
931.415	10915
931.519	10740
931.623	10710
