Data from test_V78500241_1317.txt Node
Date: Fri Mar 25 15:19:01 CST 2022
User: usil
Spectrometer: V785-0024
Trigger mode: 0
Integration Time (sec): 4.000000E-1
Scans to average: 1
Nonlinearity correction enabled: false
Boxcar width: 0
Storing dark spectrum: false
XAxis mode: Wavelengths
Number of Pixels in Spectrum: 1024
>>>>>Begin Spectral Data<<<<<
801.071	27994
801.214	28010
801.356	27728
801.499	27648
801.641	27477
801.783	27462
801.926	27515
802.068	27485
802.211	27405
802.353	27359
802.496	27291
802.638	27165
802.78	27116
802.923	27070
803.065	26948
803.208	27154
803.35	27150
803.492	27230
803.635	27214
803.777	26998
803.919	27272
804.061	27614
804.204	27336
804.346	27233
804.488	27169
804.63	27325
804.773	27374
804.915	27416
805.057	27496
805.199	27336
805.341	27481
805.483	27606
805.626	27481
805.768	27431
805.91	27469
806.052	27427
806.194	27332
806.336	27713
806.478	27462
806.62	27469
806.762	27637
806.904	27637
807.046	27869
807.188	27880
807.33	27926
807.472	28048
807.614	27911
807.756	27922
807.898	27797
808.04	27686
808.182	27778
808.324	27857
808.465	27751
808.607	28036
808.749	28128
808.891	28169
809.033	28200
809.174	28143
809.316	28029
809.458	28158
809.6	28067
809.741	28131
809.883	28299
810.025	28421
810.166	28409
810.308	28238
810.45	28409
810.591	28303
810.733	28261
810.875	28120
811.016	27956
811.158	28093
811.299	28078
811.441	28257
811.582	28204
811.724	28188
811.865	28070
812.007	28185
812.148	28196
812.29	28154
812.431	28344
812.573	28557
812.714	28656
812.855	28523
812.997	28782
813.138	28733
813.279	28774
813.421	28607
813.562	28664
813.703	28413
813.845	28219
813.986	28086
814.127	28002
814.268	27732
814.41	27937
814.551	27964
814.692	27861
814.833	27857
814.974	27728
815.115	27720
815.256	27759
815.397	27755
815.539	27728
815.68	27549
815.821	27648
815.962	27625
816.103	27545
816.244	27427
816.385	27393
816.526	27367
816.666	27055
816.807	27005
816.948	27093
817.089	27260
817.23	27119
817.371	27127
817.512	27036
817.653	27028
817.793	27013
817.934	27138
818.075	27195
818.216	27127
818.356	27058
818.497	26960
818.638	26929
818.778	26811
818.919	26864
819.06	26834
819.2	27005
819.341	26998
819.481	27013
819.622	27188
819.762	27374
819.903	27424
820.043	27222
820.184	27214
820.324	27157
820.465	27279
820.605	27199
820.746	27154
820.886	27161
821.026	27222
821.167	27077
821.307	27131
821.447	27157
821.588	27146
821.728	26956
821.868	26708
822.008	26697
822.149	26621
822.289	26507
822.429	26206
822.569	26237
822.709	26240
822.849	26168
822.99	26046
823.13	26111
823.27	26096
823.41	25898
823.55	25719
823.69	25989
823.83	25986
823.97	25921
824.11	25753
824.25	25662
824.389	25685
824.529	25845
824.669	25742
824.809	25898
824.949	25780
825.089	25932
825.228	25852
825.368	25540
825.508	25727
825.648	25693
825.787	25605
825.927	25693
826.067	25559
826.206	25696
826.346	25681
826.485	25571
826.625	25575
826.765	25734
826.904	25685
827.044	25365
827.183	25438
827.323	25472
827.462	25438
827.601	25312
827.741	25362
827.88	25396
828.02	25282
828.159	25301
828.298	25415
828.437	25304
828.577	25247
828.716	25426
828.855	25259
828.994	25126
829.134	25091
829.273	25145
829.412	25027
829.551	24996
829.69	25000
829.829	25145
829.968	25179
830.107	25152
830.246	25012
830.385	25023
830.524	24951
830.663	24901
830.802	24772
830.941	24589
831.08	24574
831.219	24601
831.357	24711
831.496	24776
831.635	24814
831.774	24601
831.913	24566
832.051	24456
832.19	24357
832.329	24426
832.467	24308
832.606	24251
832.744	24281
832.883	24334
833.022	24357
833.16	24201
833.299	24285
833.437	24361
833.576	24338
833.714	24471
833.852	24418
833.991	24418
834.129	24448
834.267	24441
834.406	24467
834.544	24395
834.682	24441
834.821	24407
834.959	24620
835.097	24292
835.235	24426
835.373	24357
835.511	24418
835.65	24304
835.788	24273
835.926	24201
836.064	23958
836.202	24011
836.34	24197
836.478	24369
836.615	24174
836.753	24300
836.891	24243
837.029	24243
837.167	24038
837.305	24148
837.443	24174
837.58	24038
837.718	24106
837.856	24041
837.993	23977
838.131	24106
838.269	23996
838.406	24007
838.544	23794
838.681	23627
838.819	23790
838.956	23467
839.094	23661
839.231	23512
839.369	23634
839.506	23946
839.643	23813
839.781	23406
839.918	23501
840.055	23619
840.193	23402
840.33	23395
840.467	23505
840.604	23402
840.742	23649
840.879	23364
841.016	23410
841.153	23463
841.29	23642
841.427	23398
841.564	23512
841.701	23406
841.838	23360
841.975	23341
842.112	23299
842.249	23246
842.385	23231
842.522	23452
842.659	23315
842.796	23197
842.933	23227
843.069	23052
843.206	23185
843.343	23220
843.479	23292
843.616	23178
843.752	23037
843.889	23113
844.025	23102
844.162	22972
844.298	23083
844.435	22911
844.571	22927
844.708	23037
844.844	23048
844.98	23090
845.117	23041
845.253	22858
845.389	22881
845.525	22809
845.661	22904
845.798	22748
845.934	22755
846.07	22607
846.206	22744
846.342	22850
846.478	22683
846.614	22542
846.75	22363
846.886	22337
847.022	22573
847.158	22402
847.294	22436
847.429	22599
847.565	22538
847.701	22649
847.837	22211
847.972	22200
848.108	22207
848.244	22272
848.379	22226
848.515	21987
848.65	21964
848.786	22044
848.921	21838
849.057	22097
849.192	22215
849.328	22120
849.463	22006
849.598	21854
849.734	21884
849.869	21793
850.004	21823
850.14	21827
850.275	21838
850.41	21717
850.545	21895
850.68	21743
850.815	21831
850.95	21682
851.085	21945
851.22	21838
851.355	21854
851.49	21861
851.625	21819
851.76	21720
851.895	21660
852.03	21736
852.165	21789
852.299	21755
852.434	21701
852.569	21793
852.703	21899
852.838	21804
852.973	22010
853.107	21949
853.242	21793
853.376	21618
853.511	21443
853.645	21629
853.78	21804
853.914	21637
854.048	21504
854.183	21587
854.317	21603
854.451	21846
854.585	21526
854.72	21599
854.854	21724
854.988	21473
855.122	21583
855.256	21473
855.39	21622
855.524	21720
855.658	21656
855.792	21625
855.926	21679
856.06	21633
856.194	21880
856.327	21557
856.461	21538
856.595	21583
856.729	21656
856.862	21625
856.996	21644
857.13	21553
857.263	21610
857.397	21728
857.53	21549
857.664	21660
857.797	21694
857.931	21705
858.064	21648
858.197	21690
858.331	21625
858.464	21599
858.597	21595
858.731	21523
858.864	21561
858.997	21473
859.13	21545
859.263	21599
859.396	21641
859.529	21675
859.662	21530
859.795	21648
859.928	21599
860.061	21743
860.194	21637
860.327	21667
860.46	21648
860.592	21728
860.725	21793
860.858	21652
860.99	21667
861.123	21572
861.256	21515
861.388	21622
861.521	22356
861.653	21504
861.786	21389
861.918	21447
862.05	21450
862.183	21545
862.315	21580
862.447	21637
862.58	21447
862.712	21401
862.844	21313
862.976	21507
863.108	21420
863.24	21633
863.372	21272
863.504	21355
863.636	21359
863.768	21370
863.9	21325
864.032	21245
864.164	21367
864.296	21416
864.428	21386
864.559	21382
864.691	21382
864.823	21230
864.954	21294
865.086	21268
865.217	21252
865.349	21051
865.48	21169
865.612	21195
865.743	21180
865.875	21233
866.006	21154
866.137	21211
866.269	21138
866.4	21131
866.531	21070
866.662	21180
866.793	21036
866.924	21142
867.055	21233
867.186	21188
867.317	21108
867.448	21062
867.579	21176
867.71	21020
867.841	21070
867.972	20994
868.103	21074
868.233	21169
868.364	21096
868.495	21279
868.625	21344
868.756	21401
868.886	21226
869.017	21321
869.147	21530
869.278	21492
869.408	21416
869.539	21344
869.669	21386
869.799	21542
869.929	21450
870.06	21420
870.19	21800
870.32	21759
870.45	21663
870.58	21682
870.71	21838
870.84	21827
870.97	21660
871.1	21831
871.23	21846
871.36	21987
871.489	21861
871.619	21876
871.749	21880
871.879	21865
872.008	22017
872.138	21873
872.267	22010
872.397	21861
872.526	21705
872.656	21800
872.785	21766
872.915	21937
873.044	21983
873.173	22021
873.303	21930
873.432	21903
873.561	22196
873.69	21968
873.819	21998
873.948	22109
874.077	22010
874.206	21926
874.335	21972
874.464	22017
874.593	22169
874.722	22173
874.851	22291
874.979	22287
875.108	22230
875.237	22086
875.365	22010
875.494	22158
875.623	22238
875.751	22135
875.88	22246
876.008	22371
876.136	22284
876.265	22573
876.393	22721
876.521	22691
876.65	22561
876.778	22535
876.906	22474
877.034	22504
877.162	22519
877.29	22573
877.418	22660
877.546	22577
877.674	22474
877.802	22504
877.93	22466
878.058	22375
878.185	22466
878.313	22584
878.441	22478
878.568	22314
878.696	22527
878.824	22584
878.951	22694
879.079	22748
879.206	22873
879.333	22653
879.461	22592
879.588	22630
879.715	22649
879.842	22831
879.97	22641
880.097	22398
880.224	22436
880.351	22375
880.478	22459
880.605	22276
880.732	22371
880.859	22542
880.986	22303
881.112	22462
881.239	22215
881.366	22055
881.493	21964
881.619	21911
881.746	21983
881.872	22063
881.999	21770
882.125	21728
882.252	21968
882.378	21869
882.505	22051
882.631	21861
882.757	21561
882.883	21732
883.01	21580
883.136	21530
883.262	21447
883.388	21504
883.514	21747
883.64	21686
883.766	21553
883.892	21389
884.018	21477
884.143	21644
884.269	21679
884.395	21359
884.52	21306
884.646	21252
884.772	21355
884.897	21169
885.023	21302
885.148	21382
885.274	21443
885.399	21428
885.524	21180
885.65	21287
885.775	21325
885.9	21119
886.025	21393
886.15	21420
886.275	21283
886.4	21077
886.525	21131
886.65	21264
886.775	21211
886.9	21310
887.025	21488
887.149	21165
887.274	21081
887.399	21055
887.523	21028
887.648	20944
887.773	20819
887.897	21085
888.021	21062
888.146	21017
888.27	21112
888.395	21211
888.519	21127
888.643	21119
888.767	21135
888.891	21020
889.015	20948
889.139	20876
889.263	20876
889.387	20872
889.511	20979
889.635	20842
889.759	20918
889.883	20758
890.006	20815
890.13	20975
890.254	20632
890.377	20804
890.501	20446
890.624	20526
890.748	20724
890.871	20499
890.995	20396
891.118	20358
891.241	20461
891.364	20381
891.488	20518
891.611	20396
891.734	20438
891.857	20396
891.98	20431
892.103	20347
892.226	20442
892.349	20301
892.471	20202
892.594	20328
892.717	20366
892.839	20362
892.962	20244
893.085	20450
893.207	20278
893.33	20199
893.452	20244
893.575	20457
893.697	20183
893.819	20412
893.941	20434
894.064	20351
894.186	20149
894.308	20157
894.43	20301
894.552	20366
894.674	20355
894.796	20107
894.918	20164
895.04	20195
895.161	20419
895.283	20294
895.405	20263
895.526	20294
895.648	20278
895.769	20362
895.891	20347
896.012	20336
896.134	20271
896.255	20153
896.376	20256
896.498	20138
896.619	20267
896.74	20396
896.861	20252
896.982	20583
897.103	20750
897.224	20632
897.345	20499
897.466	20412
897.587	20541
897.708	20678
897.828	20476
897.949	20434
898.07	20267
898.19	20415
898.311	20514
898.431	20415
898.552	20434
898.672	20552
898.792	20575
898.913	20438
899.033	20396
899.153	20309
899.273	20180
899.393	20282
899.513	20355
899.633	20149
899.753	20237
899.873	20225
899.993	20206
900.113	20237
900.232	20191
900.352	20218
900.472	19978
900.591	19993
900.711	20069
900.83	20005
900.95	20191
901.069	20153
901.189	19852
901.308	19833
901.427	19483
901.546	19597
901.665	19590
901.784	19624
901.904	19422
902.023	19304
902.141	19244
902.26	19095
902.379	19217
902.498	19145
902.617	19103
902.735	19088
902.854	19000
902.973	19027
903.091	18856
903.21	18745
903.328	18871
903.446	18749
903.565	18525
903.683	18703
903.801	18399
903.919	18597
904.038	18490
904.156	18464
904.274	18464
904.392	18330
904.51	18323
904.627	18319
904.745	18384
904.863	18384
904.981	18064
905.098	18007
905.216	17980
905.334	17965
905.451	18049
905.569	18057
905.686	17961
905.803	17946
905.921	17950
906.038	17988
906.155	17908
906.272	17752
906.389	17684
906.506	17535
906.623	17528
906.74	17501
906.857	17391
906.974	17482
907.091	17528
907.208	17608
907.324	17554
907.441	17444
907.557	17360
907.674	17261
907.79	17277
907.907	17155
908.023	17311
908.139	17250
908.256	17189
908.372	17216
908.488	17193
908.604	17060
908.72	16908
908.836	17014
908.952	17010
909.068	16934
909.184	17075
909.3	17060
909.415	16984
909.531	17006
909.647	16725
909.762	16637
909.878	16683
909.993	16626
910.108	16687
910.224	16641
910.339	16713
910.454	16558
910.57	16512
910.685	16489
910.8	16656
910.915	16622
911.03	16546
911.145	16379
911.259	16261
911.374	16272
911.489	16223
911.604	16272
911.718	16067
911.833	16051
911.947	15903
912.062	15812
912.176	15926
912.291	15960
912.405	16086
912.519	16207
912.633	16200
912.748	16029
912.862	15998
912.976	15884
913.09	15682
913.204	15899
913.318	15827
913.431	15903
913.545	15987
913.659	15895
913.772	15835
913.886	15671
914	15549
914.113	15766
914.226	15713
914.34	15739
914.453	15591
914.566	15720
914.68	15511
914.793	15545
914.906	15218
915.019	15233
915.132	15184
915.245	15207
915.358	15287
915.47	15260
915.583	15264
915.696	15226
915.809	15310
915.921	15325
916.034	15173
916.146	15097
916.259	15077
916.371	15230
916.483	15180
916.595	15085
916.708	15024
916.82	14998
916.932	14982
917.044	15077
917.156	14994
917.268	14960
917.38	14967
917.491	14887
917.603	14788
917.715	14990
917.826	14998
917.938	14868
918.049	14743
918.161	14845
918.272	14975
918.384	14960
918.495	14861
918.606	14625
918.717	14575
918.828	14765
918.939	14705
919.05	14514
919.161	14629
919.272	14473
919.383	14469
919.494	14617
919.604	14785
919.715	14587
919.826	14568
919.936	14507
920.047	14727
920.157	14552
920.267	14754
920.378	14571
920.488	14530
920.598	14758
920.708	14895
920.818	14693
920.928	14777
921.038	14952
921.148	14830
921.258	14533
921.368	14469
921.477	14286
921.587	14339
921.697	14324
921.806	14263
921.916	14164
922.025	14054
922.134	13947
922.244	13970
922.353	13955
922.462	13993
922.571	13807
922.68	13624
922.789	13559
922.898	13658
923.007	13624
923.116	13658
923.224	13655
923.333	13510
923.442	13377
923.55	13476
923.659	13396
923.767	13499
923.876	13453
923.984	13525
924.092	13278
924.201	13476
924.309	13312
924.417	13411
924.525	13274
924.633	13308
924.741	14119
924.849	13194
924.956	13190
925.064	13110
925.172	13038
925.279	12924
925.387	12970
925.494	13008
925.602	13133
925.709	13046
925.816	12867
925.924	12958
926.031	13061
926.138	12928
926.245	13057
926.352	12852
926.459	13031
926.566	13114
926.673	12901
926.779	12806
926.886	12871
926.993	12654
927.099	12642
927.206	12429
927.312	12566
927.419	12566
927.525	12566
927.631	12612
927.737	12460
927.843	12471
927.95	12407
928.056	12441
928.162	12460
928.267	12388
928.373	13019
928.479	12513
928.585	12262
928.69	12388
928.796	12384
928.901	12296
929.007	12155
929.112	12232
929.218	12194
929.323	12239
929.428	12148
929.533	12262
929.638	12087
929.743	12155
929.848	12091
929.953	12091
930.058	11977
930.163	11824
930.267	11908
930.372	11908
930.477	11805
930.581	12015
930.685	11882
930.79	11714
930.894	11733
930.998	11764
931.103	11775
931.207	11459
931.311	11356
931.415	11368
931.519	11117
931.623	11033
