Data from test_V78500241_1058.txt Node
Date: Fri Mar 25 15:17:13 CST 2022
User: usil
Spectrometer: V785-0024
Trigger mode: 0
Integration Time (sec): 4.000000E-1
Scans to average: 1
Nonlinearity correction enabled: false
Boxcar width: 0
Storing dark spectrum: false
XAxis mode: Wavelengths
Number of Pixels in Spectrum: 1024
>>>>>Begin Spectral Data<<<<<
801.071	28230
801.214	28226
801.356	27899
801.499	27838
801.641	27625
801.783	27774
801.926	27888
802.068	27679
802.211	27713
802.353	27568
802.496	27405
802.638	27462
802.78	27424
802.923	27332
803.065	27340
803.208	27340
803.35	27355
803.492	27378
803.635	27652
803.777	27542
803.919	27458
804.061	27945
804.204	27713
804.346	27618
804.488	27462
804.63	27469
804.773	27526
804.915	27739
805.057	27690
805.199	27618
805.341	27789
805.483	27766
805.626	27694
805.768	27504
805.91	27720
806.052	27686
806.194	27671
806.336	27991
806.478	27724
806.62	27675
806.762	28059
806.904	28002
807.046	28158
807.188	28150
807.33	28059
807.472	28341
807.614	28059
807.756	28162
807.898	28044
808.04	28025
808.182	27956
808.324	28128
808.465	28090
808.607	28135
808.749	28360
808.891	28459
809.033	28497
809.174	28432
809.316	28325
809.458	28192
809.6	28303
809.741	28535
809.883	28569
810.025	28599
810.166	28698
810.308	28683
810.45	28713
810.591	28516
810.733	28440
810.875	28550
811.016	28443
811.158	28314
811.299	28363
811.441	28550
811.582	28489
811.724	28405
811.865	28280
812.007	28287
812.148	28386
812.29	28516
812.431	28622
812.573	28809
812.714	28721
812.855	28965
812.997	28987
813.138	29079
813.279	29098
813.421	28991
813.562	28904
813.703	28888
813.845	28519
813.986	28360
814.127	28272
814.268	28200
814.41	28185
814.551	28131
814.692	28169
814.833	28105
814.974	27998
815.115	28105
815.256	27949
815.397	27941
815.539	27964
815.68	27994
815.821	27736
815.962	27922
816.103	27869
816.244	27728
816.385	27720
816.526	27656
816.666	27523
816.807	27378
816.948	27447
817.089	27469
817.23	27469
817.371	27496
817.512	27405
817.653	27492
817.793	27348
817.934	27447
818.075	27287
818.216	27405
818.356	27367
818.497	27359
818.638	27138
818.778	27070
818.919	27226
819.06	27279
819.2	27272
819.341	27382
819.481	27336
819.622	27580
819.762	27823
819.903	27698
820.043	27690
820.184	27427
820.324	27637
820.465	27614
820.605	27405
820.746	27526
820.886	27336
821.026	27561
821.167	27416
821.307	27633
821.447	27397
821.588	27351
821.728	27096
821.868	27169
822.008	26834
822.149	27013
822.289	26845
822.429	26560
822.569	26579
822.709	26640
822.849	26499
822.99	26419
823.13	26259
823.27	26385
823.41	26290
823.55	26092
823.69	26290
823.83	26351
823.97	26199
824.11	26084
824.25	26145
824.389	26043
824.529	26153
824.669	26050
824.809	26240
824.949	26145
825.089	26107
825.228	26180
825.368	25890
825.508	25871
825.648	26001
825.787	25959
825.927	26031
826.067	25982
826.206	25833
826.346	26084
826.485	25951
826.625	25898
826.765	26035
826.904	25894
827.044	25613
827.183	25830
827.323	25845
827.462	25712
827.601	25597
827.741	25689
827.88	25620
828.02	25540
828.159	25620
828.298	25681
828.437	25685
828.577	25529
828.716	25727
828.855	25571
828.994	25571
829.134	25289
829.273	25396
829.412	25426
829.551	25388
829.69	25434
829.829	25419
829.968	25521
830.107	25468
830.246	25422
830.385	25358
830.524	25289
830.663	25187
830.802	25084
830.941	25057
831.08	24951
831.219	25190
831.357	25053
831.496	25266
831.635	24958
831.774	24913
831.913	25015
832.051	24810
832.19	24837
832.329	24852
832.467	24730
832.606	24810
832.744	24486
832.883	24585
833.022	24555
833.16	24673
833.299	24688
833.437	24650
833.576	24779
833.714	24772
833.852	24730
833.991	24886
834.129	24901
834.267	24722
834.406	24711
834.544	24707
834.682	24795
834.821	24817
834.959	24795
835.097	24738
835.235	24833
835.373	24707
835.511	24768
835.65	24464
835.788	24620
835.926	24532
836.064	24346
836.202	24460
836.34	24570
836.478	24654
836.615	24563
836.753	24620
836.891	24700
837.029	24563
837.167	24627
837.305	24513
837.443	24585
837.58	24311
837.718	24422
837.856	24513
837.993	24361
838.131	24395
838.269	24311
838.406	24338
838.544	24239
838.681	24133
838.819	23958
838.956	23980
839.094	23843
839.231	24011
839.369	24053
839.506	24121
839.643	24133
839.781	23961
839.918	23870
840.055	23897
840.193	23760
840.33	23756
840.467	23859
840.604	23809
840.742	24068
840.879	23714
841.016	23824
841.153	23722
841.29	23729
841.427	23809
841.564	23809
841.701	23885
841.838	23710
841.975	23657
842.112	23589
842.249	23608
842.385	23596
842.522	23722
842.659	23592
842.796	23528
842.933	23661
843.069	23501
843.206	23535
843.343	23649
843.479	23425
843.616	23558
843.752	23337
843.889	23429
844.025	23425
844.162	23288
844.298	23398
844.435	23471
844.571	23277
844.708	23284
844.844	23497
844.98	23535
845.117	23463
845.253	23277
845.389	23303
845.525	23200
845.661	23189
845.798	22972
845.934	23117
846.07	23025
846.206	23075
846.342	23208
846.478	22957
846.614	22824
846.75	22755
846.886	22877
847.022	22763
847.158	22824
847.294	22778
847.429	22911
847.565	22752
847.701	22984
847.837	22436
847.972	22462
848.108	22565
848.244	22721
848.379	22417
848.515	22257
848.65	22443
848.786	22493
848.921	22329
849.057	22542
849.192	22497
849.328	22413
849.463	22497
849.598	22424
849.734	22409
849.869	22234
850.004	22226
850.14	22234
850.275	22051
850.41	22029
850.545	22082
850.68	22048
850.815	22257
850.95	22097
851.085	22276
851.22	22253
851.355	22219
851.49	22131
851.625	22147
851.76	22135
851.895	22090
852.03	21994
852.165	22162
852.299	22166
852.434	22139
852.569	22215
852.703	22162
852.838	22246
852.973	22276
853.107	22253
853.242	22150
853.376	21949
853.511	21972
853.645	22010
853.78	21953
853.914	22082
854.048	21937
854.183	21888
854.317	21975
854.451	22272
854.585	21953
854.72	21998
854.854	22044
854.988	22048
855.122	22002
855.256	21876
855.39	21831
855.524	21991
855.658	21998
855.792	22048
855.926	22109
856.06	22154
856.194	22116
856.327	21953
856.461	21846
856.595	21998
856.729	21930
856.862	22173
856.996	22067
857.13	22006
857.263	22131
857.397	22131
857.53	21960
857.664	22154
857.797	22029
857.931	22101
858.064	22029
858.197	22036
858.331	21983
858.464	21892
858.597	21941
858.731	21899
858.864	21949
858.997	21975
859.13	22010
859.263	21994
859.396	21934
859.529	21979
859.662	21937
859.795	21926
859.928	22036
860.061	22219
860.194	22131
860.327	22021
860.46	21994
860.592	22135
860.725	22040
860.858	22120
860.99	21903
861.123	21964
861.256	21945
861.388	22006
861.521	22698
861.653	21869
861.786	21766
861.918	21755
862.05	21892
862.183	21922
862.315	21972
862.447	22013
862.58	21869
862.712	21747
862.844	21595
862.976	21736
863.108	21732
863.24	22086
863.372	21576
863.504	21618
863.636	21686
863.768	21713
863.9	21701
864.032	21641
864.164	21720
864.296	21656
864.428	21698
864.559	21625
864.691	21766
864.823	21747
864.954	21603
865.086	21629
865.217	21580
865.349	21439
865.48	21648
865.612	21580
865.743	21713
865.875	21572
866.006	21523
866.137	21675
866.269	21599
866.4	21618
866.531	21629
866.662	21435
866.793	21351
866.924	21526
867.055	21648
867.186	21469
867.317	21553
867.448	21466
867.579	21523
867.71	21412
867.841	21439
867.972	21568
868.103	21557
868.233	21526
868.364	21595
868.495	21530
868.625	21743
868.756	21751
868.886	21618
869.017	21728
869.147	21876
869.278	21861
869.408	21625
869.539	21717
869.669	21709
869.799	21899
869.929	21850
870.06	21937
870.19	22032
870.32	22040
870.45	22090
870.58	22093
870.71	22295
870.84	22246
870.97	22166
871.1	22070
871.23	22325
871.36	22402
871.489	22242
871.619	22314
871.749	22295
871.879	22268
872.008	22455
872.138	22238
872.267	22291
872.397	22200
872.526	22272
872.656	22234
872.785	22234
872.915	22424
873.044	22352
873.173	22409
873.303	22284
873.432	22478
873.561	22459
873.69	22299
873.819	22394
873.948	22459
874.077	22348
874.206	22299
874.335	22337
874.464	22443
874.593	22683
874.722	22459
874.851	22599
874.979	22592
875.108	22573
875.237	22455
875.365	22341
875.494	22489
875.623	22698
875.751	22481
875.88	22634
876.008	22622
876.136	22634
876.265	23159
876.393	23121
876.521	22991
876.65	22942
876.778	22995
876.906	22786
877.034	22858
877.162	22862
877.29	22858
877.418	22999
877.546	22828
877.674	22858
877.802	22946
877.93	22923
878.058	22972
878.185	22706
878.313	22873
878.441	22767
878.568	22736
878.696	22801
878.824	22881
878.951	23018
879.079	23094
879.206	23246
879.333	23102
879.461	22881
879.588	22942
879.715	23052
879.842	23147
879.97	22984
880.097	22755
880.224	22641
880.351	22847
880.478	22774
880.605	22672
880.732	22885
880.859	22991
880.986	22843
881.112	22793
881.239	22557
881.366	22402
881.493	22409
881.619	22249
881.746	22379
881.872	22344
881.999	22223
882.125	22242
882.252	22291
882.378	22253
882.505	22398
882.631	22135
882.757	22040
882.883	22078
883.01	21941
883.136	22002
883.262	21892
883.388	21827
883.514	21960
883.64	21922
883.766	21991
883.892	21698
884.018	21892
884.143	21956
884.269	22078
884.395	21797
884.52	21507
884.646	21637
884.772	21568
884.897	21469
885.023	21675
885.148	21652
885.274	21793
885.399	21644
885.524	21595
885.65	21591
885.775	21675
885.9	21545
886.025	21610
886.15	21599
886.275	21504
886.4	21420
886.525	21606
886.65	21462
886.775	21663
886.9	21671
887.025	21800
887.149	21500
887.274	21428
887.399	21412
887.523	21447
887.648	21332
887.773	21370
887.897	21317
888.021	21431
888.146	21363
888.27	21405
888.395	21488
888.519	21447
888.643	21431
888.767	21382
888.891	21359
889.015	21203
889.139	21268
889.263	21298
889.387	21226
889.511	21545
889.635	21386
889.759	21119
889.883	21272
890.006	21173
890.13	21169
890.254	21119
890.377	20994
890.501	20960
890.624	20906
890.748	21028
890.871	20842
890.995	20746
891.118	20613
891.241	20754
891.364	20625
891.488	20815
891.611	20765
891.734	20640
891.857	20777
891.98	20773
892.103	20781
892.226	20629
892.349	20712
892.471	20606
892.594	20754
892.717	20598
892.839	20602
892.962	20556
893.085	20636
893.207	20754
893.33	20530
893.452	20594
893.575	20598
893.697	20765
893.819	20785
893.941	20944
894.064	20781
894.186	20457
894.308	20549
894.43	20807
894.552	20788
894.674	20708
894.796	20602
894.918	20670
895.04	20609
895.161	20739
895.283	20594
895.405	20590
895.526	20613
895.648	20503
895.769	20556
895.891	20617
896.012	20762
896.134	20670
896.255	20545
896.376	20602
896.498	20682
896.619	20632
896.74	20727
896.861	20636
896.982	20883
897.103	21112
897.224	20914
897.345	20937
897.466	20697
897.587	20929
897.708	20986
897.828	20785
897.949	20830
898.07	20701
898.19	20819
898.311	20891
898.431	20724
898.552	20727
898.672	20864
898.792	20838
898.913	20868
899.033	20602
899.153	20765
899.273	20522
899.393	20560
899.513	20549
899.633	20590
899.753	20568
899.873	20552
899.993	20667
900.113	20469
900.232	20480
900.352	20431
900.472	20408
900.591	20317
900.711	20282
900.83	20275
900.95	20374
901.069	20351
901.189	20248
901.308	19978
901.427	19887
901.546	19856
901.665	19902
901.784	19967
901.904	19814
902.023	19582
902.141	19445
902.26	19438
902.379	19407
902.498	19316
902.617	19354
902.735	19396
902.854	19244
902.973	19297
903.091	19057
903.21	19103
903.328	18985
903.446	18996
903.565	18920
903.683	18875
903.801	18707
903.919	18848
904.038	18897
904.156	18559
904.274	18738
904.392	18604
904.51	18540
904.627	18559
904.745	18684
904.863	18661
904.981	18429
905.098	18262
905.216	18380
905.334	18243
905.451	18357
905.569	18273
905.686	18372
905.803	18205
905.921	18049
906.038	18171
906.155	18171
906.272	18087
906.389	18102
906.506	17931
906.623	17863
906.74	17859
906.857	17710
906.974	17733
907.091	17946
907.208	17999
907.324	17832
907.441	17767
907.557	17566
907.674	17493
907.79	17512
907.907	17528
908.023	17570
908.139	17566
908.256	17634
908.372	17474
908.488	17406
908.604	17311
908.72	17269
908.836	17288
908.952	17299
909.068	17242
909.184	17303
909.3	17220
909.415	17178
909.531	17307
909.647	16995
909.762	16938
909.878	16869
909.993	16949
910.108	16968
910.224	16923
910.339	16953
910.454	16919
910.57	16812
910.685	16771
910.8	16949
910.915	16904
911.03	16782
911.145	16706
911.259	16554
911.374	16516
911.489	16474
911.604	16436
911.718	16287
911.833	16291
911.947	16219
912.062	16071
912.176	16257
912.291	16394
912.405	16337
912.519	16470
912.633	16379
912.748	16386
912.862	16287
912.976	16078
913.09	16082
913.204	16029
913.318	16150
913.431	16188
913.545	16131
913.659	16268
913.772	16002
913.886	15819
914	15934
914.113	15903
914.226	16010
914.34	15975
914.453	15804
914.566	15941
914.68	15797
914.793	15720
914.906	15648
915.019	15504
915.132	15450
915.245	15504
915.358	15515
915.47	15553
915.583	15458
915.696	15515
915.809	15557
915.921	15644
916.034	15496
916.146	15363
916.259	15424
916.371	15397
916.483	15500
916.595	15294
916.708	15245
916.82	15351
916.932	15321
917.044	15218
917.156	15249
917.268	15097
917.38	15165
917.491	15207
917.603	15173
917.715	15188
917.826	15306
917.938	15039
918.049	15017
918.161	15085
918.272	15188
918.384	15287
918.495	15093
918.606	14933
918.717	14765
918.828	14941
918.939	14876
919.05	14792
919.161	14815
919.272	14720
919.383	14701
919.494	14925
919.604	15036
919.715	14849
919.826	14651
919.936	14883
920.047	14914
920.157	14895
920.267	15077
920.378	14838
920.488	14792
920.598	14937
920.708	15070
920.818	14948
920.928	14960
921.038	15127
921.148	15009
921.258	14788
921.368	14670
921.477	14571
921.587	14644
921.697	14415
921.806	14610
921.916	14431
922.025	14282
922.134	14157
922.244	14168
922.353	14248
922.462	14069
922.571	14073
922.68	13738
922.789	13940
922.898	13833
923.007	13788
923.116	13963
923.224	13830
923.333	13799
923.442	13681
923.55	13658
923.659	13685
923.767	13803
923.876	13559
923.984	13681
924.092	13559
924.201	13594
924.309	13605
924.417	13594
924.525	13400
924.633	13537
924.741	14404
924.849	13392
924.956	13422
925.064	13400
925.172	13190
925.279	13240
925.387	13247
925.494	13293
925.602	13388
925.709	13339
925.816	13152
925.924	13202
926.031	13244
926.138	13278
926.245	13270
926.352	13099
926.459	13232
926.566	13247
926.673	13179
926.779	12913
926.886	12993
926.993	12928
927.099	12856
927.206	12726
927.312	12791
927.419	12863
927.525	12764
927.631	12817
927.737	12620
927.843	12612
927.95	12566
928.056	12665
928.162	12662
928.267	12623
928.373	13236
928.479	12688
928.585	12483
928.69	12589
928.796	12593
928.901	12388
929.007	12311
929.112	12479
929.218	12407
929.323	12414
929.428	12342
929.533	12509
929.638	12254
929.743	12167
929.848	12311
929.953	12258
930.058	12194
930.163	12038
930.267	12060
930.372	12110
930.477	12007
930.581	12254
930.685	12053
930.79	11878
930.894	11889
930.998	11935
931.103	11946
931.207	11646
931.311	11547
931.415	11448
931.519	11223
931.623	11326
