Data from test_V78500241_1246.txt Node
Date: Fri Mar 25 15:18:31 CST 2022
User: usil
Spectrometer: V785-0024
Trigger mode: 0
Integration Time (sec): 4.000000E-1
Scans to average: 1
Nonlinearity correction enabled: false
Boxcar width: 0
Storing dark spectrum: false
XAxis mode: Wavelengths
Number of Pixels in Spectrum: 1024
>>>>>Begin Spectral Data<<<<<
801.071	27599
801.214	27564
801.356	27378
801.499	27260
801.641	27058
801.783	27188
801.926	27264
802.068	27245
802.211	27135
802.353	27047
802.496	27036
802.638	26830
802.78	26842
802.923	26777
803.065	26575
803.208	26781
803.35	26906
803.492	26902
803.635	27017
803.777	26956
803.919	26986
804.061	27424
804.204	26967
804.346	27062
804.488	26857
804.63	26956
804.773	26994
804.915	27077
805.057	27199
805.199	27051
805.341	27131
805.483	27211
805.626	27230
805.768	27028
805.91	27165
806.052	27146
806.194	27070
806.336	27291
806.478	27165
806.62	27146
806.762	27287
806.904	27458
807.046	27686
807.188	27561
807.33	27663
807.472	27641
807.614	27500
807.756	27553
807.898	27488
808.04	27355
808.182	27310
808.324	27466
808.465	27504
808.607	27701
808.749	27747
808.891	27972
809.033	27880
809.174	27781
809.316	27747
809.458	27747
809.6	27660
809.741	27937
809.883	27930
810.025	28166
810.166	28025
810.308	28025
810.45	28044
810.591	28025
810.733	27785
810.875	27694
811.016	27599
811.158	27538
811.299	27781
811.441	27850
811.582	27774
811.724	27846
811.865	27606
812.007	27774
812.148	27660
812.29	27751
812.431	27972
812.573	28040
812.714	28223
812.855	28234
812.997	28401
813.138	28405
813.279	28493
813.421	28398
813.562	28299
813.703	28109
813.845	27873
813.986	27816
814.127	27545
814.268	27447
814.41	27587
814.551	27504
814.692	27435
814.833	27450
814.974	27321
815.115	27492
815.256	27294
815.397	27332
815.539	27306
815.68	27287
815.821	27344
815.962	27382
816.103	27424
816.244	27195
816.385	27173
816.526	27096
816.666	26960
816.807	26845
816.948	26743
817.089	26762
817.23	26811
817.371	26762
817.512	26804
817.653	26785
817.793	26682
817.934	26724
818.075	26971
818.216	26819
818.356	26579
818.497	26697
818.638	26431
818.778	26374
818.919	26408
819.06	26602
819.2	26686
819.341	26655
819.481	26670
819.622	26838
819.762	27112
819.903	26990
820.043	26895
820.184	26899
820.324	26800
820.465	26781
820.605	26800
820.746	26906
820.886	26667
821.026	26853
821.167	26746
821.307	26849
821.447	26708
821.588	26705
821.728	26720
821.868	26351
822.008	26103
822.149	26161
822.289	26221
822.429	26054
822.569	25917
822.709	25898
822.849	25772
822.99	25784
823.13	25635
823.27	25647
823.41	25582
823.55	25476
823.69	25639
823.83	25525
823.97	25415
824.11	25312
824.25	25346
824.389	25320
824.529	25476
824.669	25487
824.809	25460
824.949	25552
825.089	25377
825.228	25468
825.368	25244
825.508	25263
825.648	25263
825.787	25289
825.927	25388
826.067	25266
826.206	25160
826.346	25202
826.485	25183
826.625	25327
826.765	25354
826.904	25156
827.044	25114
827.183	24894
827.323	24856
827.462	24939
827.601	25019
827.741	24947
827.88	25042
828.02	24856
828.159	24886
828.298	25023
828.437	25019
828.577	24909
828.716	25015
828.855	24867
828.994	24692
829.134	24734
829.273	24764
829.412	24521
829.551	24589
829.69	24703
829.829	24692
829.968	24833
830.107	24612
830.246	24745
830.385	24566
830.524	24612
830.663	24426
830.802	24414
830.941	24251
831.08	24277
831.219	24327
831.357	24292
831.496	24608
831.635	24216
831.774	24205
831.913	24228
832.051	24091
832.19	24060
832.329	24087
832.467	24072
832.606	23802
832.744	23893
832.883	23908
833.022	23805
833.16	23954
833.299	24011
833.437	24095
833.576	24106
833.714	24041
833.852	24121
833.991	23977
834.129	24182
834.267	24064
834.406	24110
834.544	23988
834.682	23996
834.821	24133
834.959	24163
835.097	24018
835.235	24034
835.373	24087
835.511	24049
835.65	23741
835.788	23950
835.926	23680
836.064	23714
836.202	23710
836.34	23999
836.478	23999
836.615	23912
836.753	23836
836.891	23836
837.029	23996
837.167	23851
837.305	23680
837.443	23786
837.58	23554
837.718	23764
837.856	23672
837.993	23627
838.131	23695
838.269	23463
838.406	23653
838.544	23661
838.681	23360
838.819	23349
838.956	23181
839.094	23231
839.231	23220
839.369	23417
839.506	23554
839.643	23425
839.781	23117
839.918	23174
840.055	23090
840.193	23178
840.33	23170
840.467	23197
840.604	23185
840.742	23402
840.879	23006
841.016	22991
841.153	22915
841.29	23197
841.427	23075
841.564	23136
841.701	23022
841.838	23044
841.975	22976
842.112	23136
842.249	22991
842.385	22736
842.522	23029
842.659	22946
842.796	22733
842.933	22915
843.069	22839
843.206	22809
843.343	22774
843.479	22877
843.616	22900
843.752	22771
843.889	22596
844.025	22790
844.162	22580
844.298	22771
844.435	22668
844.571	22527
844.708	22847
844.844	22854
844.98	22698
845.117	22611
845.253	22474
845.389	22542
845.525	22516
845.661	22436
845.798	22398
845.934	22508
846.07	22310
846.206	22428
846.342	22447
846.478	22405
846.614	22154
846.75	22139
846.886	22044
847.022	22101
847.158	22013
847.294	22150
847.429	22181
847.565	22059
847.701	22242
847.837	21907
847.972	21835
848.108	21941
848.244	21983
848.379	21854
848.515	21682
848.65	21720
848.786	21553
848.921	21709
849.057	21823
849.192	21778
849.328	21861
849.463	21709
849.598	21808
849.734	21660
849.869	21507
850.004	21443
850.14	21462
850.275	21564
850.41	21351
850.545	21420
850.68	21397
850.815	21568
850.95	21408
851.085	21652
851.22	21534
851.355	21656
851.49	21458
851.625	21408
851.76	21507
851.895	21439
852.03	21401
852.165	21488
852.299	21557
852.434	21549
852.569	21549
852.703	21332
852.838	21561
852.973	21530
853.107	21717
853.242	21439
853.376	21245
853.511	21207
853.645	21249
853.78	21469
853.914	21321
854.048	21230
854.183	21313
854.317	21214
854.451	21386
854.585	21416
854.72	21374
854.854	21313
854.988	21233
855.122	21241
855.256	21279
855.39	21222
855.524	21313
855.658	21431
855.792	21279
855.926	21359
856.06	21325
856.194	21313
856.327	21268
856.461	21279
856.595	21230
856.729	21329
856.862	21447
856.996	21207
857.13	21294
857.263	21386
857.397	21367
857.53	21272
857.664	21268
857.797	21332
857.931	21389
858.064	21283
858.197	21481
858.331	21237
858.464	21237
858.597	21230
858.731	21226
858.864	21237
858.997	21230
859.13	21192
859.263	21302
859.396	21401
859.529	21317
859.662	21302
859.795	21146
859.928	21245
860.061	21469
860.194	21401
860.327	21275
860.46	21306
860.592	21481
860.725	21519
860.858	21401
860.99	21405
861.123	21283
861.256	21272
861.388	21302
861.521	21987
861.653	21131
861.786	21070
861.918	21077
862.05	21226
862.183	21180
862.315	21157
862.447	21363
862.58	21272
862.712	21051
862.844	20933
862.976	21074
863.108	21085
863.24	21359
863.372	20914
863.504	20998
863.636	21036
863.768	21096
863.9	21032
864.032	20906
864.164	21036
864.296	21096
864.428	21001
864.559	21020
864.691	21135
864.823	21024
864.954	20979
865.086	20937
865.217	20864
865.349	20853
865.48	20845
865.612	20842
865.743	20986
865.875	20891
866.006	20819
866.137	20921
866.269	20906
866.4	20800
866.531	20883
866.662	20765
866.793	20762
866.924	20880
867.055	20823
867.186	20868
867.317	20724
867.448	20811
867.579	20819
867.71	20682
867.841	20727
867.972	20857
868.103	20906
868.233	20910
868.364	20781
868.495	20933
868.625	21047
868.756	21116
868.886	20967
869.017	20998
869.147	21161
869.278	21195
869.408	21108
869.539	21154
869.669	21165
869.799	21154
869.929	21074
870.06	21199
870.19	21469
870.32	21317
870.45	21359
870.58	21473
870.71	21477
870.84	21412
870.97	21545
871.1	21473
871.23	21663
871.36	21618
871.489	21538
871.619	21660
871.749	21637
871.879	21797
872.008	21762
872.138	21656
872.267	21629
872.397	21603
872.526	21488
872.656	21545
872.785	21382
872.915	21671
873.044	21728
873.173	21564
873.303	21713
873.432	21701
873.561	21713
873.69	21717
873.819	21686
873.948	21804
874.077	21743
874.206	21770
874.335	21679
874.464	21823
874.593	21907
874.722	21861
874.851	21937
874.979	21968
875.108	21968
875.237	21816
875.365	21804
875.494	21797
875.623	21869
875.751	21819
875.88	21941
876.008	22032
876.136	22051
876.265	22306
876.393	22398
876.521	22303
876.65	22329
876.778	22287
876.906	22325
877.034	22306
877.162	22344
877.29	22120
877.418	22230
877.546	22185
877.674	22219
877.802	22242
877.93	22284
878.058	22177
878.185	22029
878.313	22215
878.441	22219
878.568	22192
878.696	22166
878.824	22284
878.951	22257
879.079	22470
879.206	22523
879.333	22413
879.461	22276
879.588	22451
879.715	22379
879.842	22516
879.97	22280
880.097	22223
880.224	22021
880.351	22090
880.478	22086
880.605	21953
880.732	22131
880.859	22295
880.986	22067
881.112	22192
881.239	21892
881.366	21838
881.493	21747
881.619	21774
881.746	21724
881.872	21591
881.999	21625
882.125	21629
882.252	21583
882.378	21660
882.505	21766
882.631	21599
882.757	21473
882.883	21485
883.01	21458
883.136	21298
883.262	21161
883.388	21226
883.514	21325
883.64	21359
883.766	21310
883.892	21188
884.018	21062
884.143	21256
884.269	21428
884.395	21112
884.52	20933
884.646	20944
884.772	20902
884.897	20906
885.023	20960
885.148	21138
885.274	21180
885.399	21184
885.524	20956
885.65	21131
885.775	21176
885.9	20960
886.025	21096
886.15	21017
886.275	20982
886.4	20883
886.525	21017
886.65	20792
886.775	20819
886.9	21055
887.025	21173
887.149	21001
887.274	20724
887.399	20739
887.523	20788
887.648	20644
887.773	20613
887.897	20910
888.021	20902
888.146	20693
888.27	20807
888.395	20861
888.519	20815
888.643	20826
888.767	20792
888.891	20651
889.015	20594
889.139	20629
889.263	20454
889.387	20629
889.511	20842
889.635	20724
889.759	20629
889.883	20343
890.006	20621
890.13	20651
890.254	20537
890.377	20431
890.501	20366
890.624	20282
890.748	20351
890.871	20305
890.995	20134
891.118	20096
891.241	20248
891.364	20122
891.488	20286
891.611	20149
891.734	20164
891.857	20229
891.98	20240
892.103	20286
892.226	20130
892.349	20111
892.471	20001
892.594	20065
892.717	20073
892.839	20050
892.962	20054
893.085	20145
893.207	19925
893.33	19833
893.452	19997
893.575	20024
893.697	19940
893.819	20096
893.941	20301
894.064	20271
894.186	19917
894.308	19928
894.43	20039
894.552	20286
894.674	20035
894.796	19993
894.918	19951
895.04	20024
895.161	20031
895.283	20005
895.405	19936
895.526	19963
895.648	20024
895.769	19970
895.891	20164
896.012	20142
896.134	20016
896.255	20008
896.376	19993
896.498	20107
896.619	20020
896.74	19852
896.861	20077
896.982	20298
897.103	20484
897.224	20393
897.345	20210
897.466	20294
897.587	20275
897.708	20393
897.828	20199
897.949	20199
898.07	20062
898.19	20142
898.311	20256
898.431	20267
898.552	20320
898.672	20351
898.792	20301
898.913	20301
899.033	20111
899.153	19928
899.273	19974
899.393	20001
899.513	20050
899.633	20016
899.753	19982
899.873	20012
899.993	20024
900.113	20035
900.232	19959
900.352	19879
900.472	19921
900.591	19753
900.711	19852
900.83	19670
900.95	19826
901.069	19974
901.189	19651
901.308	19464
901.427	19411
901.546	19327
901.665	19548
901.784	19373
901.904	19285
902.023	19232
902.141	18958
902.26	18924
902.379	18989
902.498	18890
902.617	18871
902.735	18916
902.854	18814
902.973	18920
903.091	18593
903.21	18620
903.328	18642
903.446	18391
903.565	18464
903.683	18437
903.801	18300
903.919	18323
904.038	18342
904.156	18098
904.274	18209
904.392	18171
904.51	18064
904.627	18194
904.745	18171
904.863	18247
904.981	17935
905.098	17859
905.216	17847
905.334	17961
905.451	17870
905.569	17786
905.686	17836
905.803	17809
905.921	17589
906.038	17642
906.155	17745
906.272	17547
906.389	17524
906.506	17490
906.623	17440
906.74	17417
906.857	17178
906.974	17292
907.091	17501
907.208	17436
907.324	17391
907.441	17288
907.557	17083
907.674	17128
907.79	17109
907.907	17060
908.023	17079
908.139	17105
908.256	17048
908.372	17105
908.488	16995
908.604	16904
908.72	16809
908.836	16820
908.952	16812
909.068	16729
909.184	16816
909.3	16694
909.415	16820
909.531	16862
909.647	16622
909.762	16561
909.878	16535
909.993	16607
910.108	16436
910.224	16527
910.339	16527
910.454	16352
910.57	16352
910.685	16276
910.8	16535
910.915	16459
911.03	16272
911.145	16207
911.259	16109
911.374	16032
911.489	16055
911.604	15945
911.718	15907
911.833	15842
911.947	15751
912.062	15656
912.176	15850
912.291	15838
912.405	15888
912.519	16010
912.633	16044
912.748	15876
912.862	15793
912.976	15603
913.09	15625
913.204	15576
913.318	15751
913.431	15732
913.545	15793
913.659	15682
913.772	15595
913.886	15492
914	15523
914.113	15466
914.226	15580
914.34	15603
914.453	15431
914.566	15454
914.68	15428
914.793	15313
914.906	15245
915.019	15074
915.132	15017
915.245	14994
915.358	15169
915.47	15043
915.583	15116
915.696	14982
915.809	15241
915.921	15165
916.034	15077
916.146	15047
916.259	14929
916.371	15020
916.483	15047
916.595	14967
916.708	14944
916.82	14982
916.932	14929
917.044	14796
917.156	14925
917.268	14762
917.38	14845
917.491	14693
917.603	14800
917.715	14758
917.826	14834
917.938	14667
918.049	14670
918.161	14693
918.272	14773
918.384	14796
918.495	14640
918.606	14556
918.717	14454
918.828	14434
918.939	14434
919.05	14370
919.161	14514
919.272	14336
919.383	14320
919.494	14522
919.604	14636
919.715	14480
919.826	14431
919.936	14442
920.047	14556
920.157	14507
920.267	14682
920.378	14499
920.488	14446
920.598	14549
920.708	14781
920.818	14689
920.928	14545
921.038	14811
921.148	14720
921.258	14381
921.368	14339
921.477	14244
921.587	14210
921.697	14134
921.806	14286
921.916	14001
922.025	13875
922.134	13909
922.244	13700
922.353	13864
922.462	13772
922.571	13639
922.68	13521
922.789	13464
922.898	13601
923.007	13426
923.116	13582
923.224	13430
923.333	13388
923.442	13339
923.55	13419
923.659	13400
923.767	13491
923.876	13301
923.984	13369
924.092	13206
924.201	13225
924.309	13274
924.417	13168
924.525	13164
924.633	13095
924.741	13917
924.849	13012
924.956	13069
925.064	12935
925.172	12947
925.279	12909
925.387	12951
925.494	12814
925.602	13110
925.709	12848
925.816	12897
925.924	12817
926.031	12913
926.138	12859
926.245	12886
926.352	12734
926.459	12924
926.566	12901
926.673	12787
926.779	12753
926.886	12669
926.993	12513
927.099	12494
927.206	12441
927.312	12357
927.419	12502
927.525	12414
927.631	12486
927.737	12361
927.843	12350
927.95	12178
928.056	12258
928.162	12338
928.267	12391
928.373	12973
928.479	12330
928.585	12125
928.69	12194
928.796	12270
928.901	12171
929.007	11965
929.112	12144
929.218	12148
929.323	12057
929.428	12045
929.533	12175
929.638	12026
929.743	11927
929.848	11969
929.953	11980
930.058	11878
930.163	11760
930.267	11733
930.372	11874
930.477	11642
930.581	11916
930.685	11790
930.79	11619
930.894	11589
930.998	11608
931.103	11688
931.207	11269
931.311	11239
931.415	11109
931.519	11014
931.623	10915
