Data from test_V78500241_644.txt Node
Date: Fri Mar 25 15:14:20 CST 2022
User: usil
Spectrometer: V785-0024
Trigger mode: 0
Integration Time (sec): 4.000000E-1
Scans to average: 1
Nonlinearity correction enabled: false
Boxcar width: 0
Storing dark spectrum: false
XAxis mode: Wavelengths
Number of Pixels in Spectrum: 1024
>>>>>Begin Spectral Data<<<<<
801.071	27321
801.214	27348
801.356	27089
801.499	27009
801.641	26815
801.783	27013
801.926	26998
802.068	26804
802.211	26883
802.353	26667
802.496	26503
802.638	26636
802.78	26526
802.923	26499
803.065	26434
803.208	26434
803.35	26617
803.492	26609
803.635	26590
803.777	26640
803.919	26746
804.061	26880
804.204	26735
804.346	26617
804.488	26537
804.63	26708
804.773	26549
804.915	26762
805.057	26731
805.199	26648
805.341	26788
805.483	26769
805.626	26815
805.768	26735
805.91	26902
806.052	26663
806.194	26621
806.336	27017
806.478	26693
806.62	26883
806.762	26967
806.904	27104
807.046	27458
807.188	27332
807.33	27161
807.472	27058
807.614	27184
807.756	27100
807.898	27108
808.04	27055
808.182	27024
808.324	27062
808.465	27047
808.607	27332
808.749	27359
808.891	27378
809.033	27523
809.174	27511
809.316	27294
809.458	27477
809.6	27469
809.741	27412
809.883	27610
810.025	27797
810.166	27751
810.308	27759
810.45	27774
810.591	27705
810.733	27405
810.875	27431
811.016	27283
811.158	27332
811.299	27492
811.441	27629
811.582	27587
811.724	27374
811.865	27218
812.007	27447
812.148	27359
812.29	27450
812.431	27568
812.573	27800
812.714	27873
812.855	27861
812.997	28196
813.138	28059
813.279	28101
813.421	28006
813.562	27781
813.703	27922
813.845	27595
813.986	27317
814.127	27184
814.268	27207
814.41	27020
814.551	27074
814.692	27180
814.833	27028
814.974	27028
815.115	27005
815.256	26944
815.397	27066
815.539	27009
815.68	26971
815.821	26834
815.962	26834
816.103	26861
816.244	26731
816.385	26746
816.526	26727
816.666	26503
816.807	26412
816.948	26507
817.089	26545
817.23	26336
817.371	26457
817.512	26442
817.653	26412
817.793	26282
817.934	26408
818.075	26362
818.216	26419
818.356	26263
818.497	26324
818.638	26031
818.778	26092
818.919	26107
819.06	26126
819.2	26298
819.341	26298
819.481	26431
819.622	26590
819.762	26739
819.903	26708
820.043	26575
820.184	26453
820.324	26568
820.465	26590
820.605	26461
820.746	26488
820.886	26339
821.026	26522
821.167	26484
821.307	26560
821.447	26374
821.588	26374
821.728	26130
821.868	26039
822.008	25833
822.149	25879
822.289	25845
822.429	25578
822.569	25552
822.709	25487
822.849	25434
822.99	25384
823.13	25354
823.27	25259
823.41	25175
823.55	25156
823.69	25240
823.83	25122
823.97	25206
824.11	24856
824.25	24924
824.389	24924
824.529	25038
824.669	24977
824.809	25236
824.949	25103
825.089	25050
825.228	25015
825.368	24703
825.508	24875
825.648	24867
825.787	24920
825.927	24920
826.067	24711
826.206	24825
826.346	24764
826.485	24882
826.625	24943
826.765	25053
826.904	24871
827.044	24601
827.183	24623
827.323	24407
827.462	24551
827.601	24555
827.741	24566
827.88	24612
828.02	24448
828.159	24574
828.298	24509
828.437	24566
828.577	24464
828.716	24646
828.855	24525
828.994	24342
829.134	24361
829.273	24304
829.412	24289
829.551	24281
829.69	24327
829.829	24346
829.968	24235
830.107	24350
830.246	24292
830.385	24167
830.524	24083
830.663	24053
830.802	23961
830.941	23958
831.08	23802
831.219	23912
831.357	24011
831.496	24121
831.635	23935
831.774	23878
831.913	23745
832.051	23581
832.19	23710
832.329	23748
832.467	23615
832.606	23604
832.744	23478
832.883	23505
833.022	23455
833.16	23497
833.299	23638
833.437	23581
833.576	23729
833.714	23672
833.852	23745
833.991	23737
834.129	23684
834.267	23684
834.406	23531
834.544	23630
834.682	23638
834.821	23608
834.959	23817
835.097	23482
835.235	23661
835.373	23611
835.511	23653
835.65	23455
835.788	23395
835.926	23334
836.064	23330
836.202	23368
836.34	23482
836.478	23566
836.615	23562
836.753	23471
836.891	23562
837.029	23509
837.167	23273
837.305	23429
837.443	23345
837.58	23307
837.718	23383
837.856	23364
837.993	23086
838.131	23280
838.269	23277
838.406	23315
838.544	23136
838.681	22987
838.819	23014
838.956	22793
839.094	22668
839.231	22919
839.369	22923
839.506	23143
839.643	23067
839.781	22717
839.918	22736
840.055	22850
840.193	22740
840.33	22774
840.467	22679
840.604	22771
840.742	23018
840.879	22523
841.016	22535
841.153	22630
841.29	22881
841.427	22755
841.564	22755
841.701	22637
841.838	22542
841.975	22542
842.112	22630
842.249	22512
842.385	22500
842.522	22694
842.659	22546
842.796	22508
842.933	22478
843.069	22360
843.206	22413
843.343	22542
843.479	22440
843.616	22504
843.752	22238
843.889	22257
844.025	22253
844.162	22268
844.298	22314
844.435	22261
844.571	22230
844.708	22086
844.844	22363
844.98	22318
845.117	22272
845.253	22276
845.389	22086
845.525	22067
845.661	22067
845.798	22044
845.934	22169
846.07	21884
846.206	21983
846.342	22158
846.478	21945
846.614	21865
846.75	21606
846.886	21679
847.022	21804
847.158	21618
847.294	21698
847.429	21671
847.565	21606
847.701	21861
847.837	21492
847.972	21275
848.108	21549
848.244	21599
848.379	21454
848.515	21313
848.65	21298
848.786	21329
848.921	21291
849.057	21386
849.192	21367
849.328	21348
849.463	21302
849.598	21325
849.734	21176
849.869	21176
850.004	21184
850.14	21116
850.275	21032
850.41	21032
850.545	21104
850.68	21131
850.815	21112
850.95	21074
851.085	21157
851.22	21123
851.355	21116
851.49	20986
851.625	21024
851.76	21001
851.895	20963
852.03	21047
852.165	21058
852.299	21055
852.434	21188
852.569	21112
852.703	21165
852.838	21039
852.973	21028
853.107	21184
853.242	21055
853.376	20891
853.511	20872
853.645	20864
853.78	21108
853.914	21036
854.048	20880
854.183	20921
854.317	21039
854.451	21017
854.585	20902
854.72	20838
854.854	20895
854.988	20815
855.122	20849
855.256	20750
855.39	20895
855.524	21009
855.658	20925
855.792	20895
855.926	20849
856.06	20929
856.194	20963
856.327	20918
856.461	20804
856.595	20830
856.729	20861
856.862	20929
856.996	20918
857.13	20994
857.263	20944
857.397	21036
857.53	20883
857.664	20971
857.797	20929
857.931	21119
858.064	20956
858.197	20948
858.331	20956
858.464	20880
858.597	20678
858.731	20918
858.864	20876
858.997	20777
859.13	20910
859.263	20880
859.396	21036
859.529	20853
859.662	20872
859.795	20804
859.928	20864
860.061	21024
860.194	21233
860.327	21036
860.46	20834
860.592	21032
860.725	21062
860.858	21058
860.99	20960
861.123	20826
861.256	20872
861.388	20861
861.521	21724
861.653	20682
861.786	20785
861.918	20819
862.05	20861
862.183	20857
862.315	20868
862.447	20975
862.58	20842
862.712	20651
862.844	20606
862.976	20739
863.108	20648
863.24	21081
863.372	20571
863.504	20606
863.636	20526
863.768	20568
863.9	20579
864.032	20632
864.164	20663
864.296	20507
864.428	20746
864.559	20579
864.691	20697
864.823	20579
864.954	20621
865.086	20526
865.217	20507
865.349	20587
865.48	20575
865.612	20541
865.743	20613
865.875	20590
866.006	20499
866.137	20697
866.269	20541
866.4	20537
866.531	20442
866.662	20355
866.793	20244
866.924	20431
867.055	20499
867.186	20476
867.317	20404
867.448	20374
867.579	20564
867.71	20259
867.841	20275
867.972	20450
868.103	20495
868.233	20480
868.364	20465
868.495	20473
868.625	20746
868.756	20804
868.886	20598
869.017	20648
869.147	20796
869.278	20861
869.408	20773
869.539	20716
869.669	20716
869.799	20678
869.929	20769
870.06	20777
870.19	20925
870.32	21028
870.45	21001
870.58	21077
870.71	21218
870.84	21157
870.97	21104
871.1	21062
871.23	21272
871.36	21367
871.489	21089
871.619	21329
871.749	21310
871.879	21405
872.008	21313
872.138	21359
872.267	21226
872.397	21226
872.526	21058
872.656	21165
872.785	21142
872.915	21416
873.044	21351
873.173	21348
873.303	21325
873.432	21370
873.561	21397
873.69	21252
873.819	21370
873.948	21374
874.077	21351
874.206	21275
874.335	21332
874.464	21488
874.593	21519
874.722	21485
874.851	21622
874.979	21663
875.108	21496
875.237	21481
875.365	21428
875.494	21637
875.623	21587
875.751	21416
875.88	21583
876.008	21591
876.136	21667
876.265	21998
876.393	21930
876.521	21949
876.65	21994
876.778	21949
876.906	21892
877.034	21774
877.162	21816
877.29	21842
877.418	21781
877.546	21972
877.674	21884
877.802	21861
877.93	21876
878.058	21835
878.185	21743
878.313	21964
878.441	21876
878.568	21709
878.696	21755
878.824	21907
878.951	21956
879.079	22086
879.206	22128
879.333	21960
879.461	21953
879.588	21956
879.715	21945
879.842	22188
879.97	21846
880.097	21713
880.224	21694
880.351	21865
880.478	21770
880.605	21819
880.732	21705
880.859	21823
880.986	21736
881.112	21606
881.239	21583
881.366	21462
881.493	21439
881.619	21344
881.746	21382
881.872	21310
881.999	21157
882.125	21051
882.252	21310
882.378	21287
882.505	21329
882.631	21104
882.757	21036
882.883	20944
883.01	21081
883.136	20960
883.262	20895
883.388	20792
883.514	20960
883.64	21043
883.766	20868
883.892	20754
884.018	20788
884.143	21001
884.269	21032
884.395	20815
884.52	20625
884.646	20705
884.772	20526
884.897	20545
885.023	20682
885.148	20708
885.274	20804
885.399	20750
885.524	20590
885.65	20659
885.775	20590
885.9	20579
886.025	20640
886.15	20708
886.275	20655
886.4	20674
886.525	20530
886.65	20465
886.775	20560
886.9	20678
887.025	20853
887.149	20587
887.274	20461
887.399	20533
887.523	20396
887.648	20263
887.773	20358
887.897	20366
888.021	20431
888.146	20282
888.27	20518
888.395	20526
888.519	20476
888.643	20412
888.767	20473
888.891	20351
889.015	20225
889.139	20305
889.263	20195
889.387	20248
889.511	20476
889.635	20347
889.759	20187
889.883	20229
890.006	20157
890.13	20374
890.254	20126
890.377	20176
890.501	20039
890.624	19982
890.748	19997
890.871	19826
890.995	19791
891.118	19761
891.241	19887
891.364	19753
891.488	19947
891.611	19833
891.734	19849
891.857	19822
891.98	19780
892.103	19856
892.226	19799
892.349	19685
892.471	19556
892.594	19776
892.717	19715
892.839	19590
892.962	19677
893.085	19784
893.207	19738
893.33	19597
893.452	19647
893.575	19704
893.697	19635
893.819	19826
893.941	19868
894.064	19772
894.186	19647
894.308	19537
894.43	19814
894.552	19955
894.674	19795
894.796	19628
894.918	19761
895.04	19597
895.161	19837
895.283	19666
895.405	19582
895.526	19757
895.648	19677
895.769	19738
895.891	19750
896.012	19712
896.134	19696
896.255	19666
896.376	19635
896.498	19833
896.619	19780
896.74	19765
896.861	19791
896.982	20043
897.103	20218
897.224	20084
897.345	19989
897.466	19928
897.587	19898
897.708	19986
897.828	20062
897.949	19902
898.07	19719
898.19	19845
898.311	19959
898.431	19864
898.552	19849
898.672	20043
898.792	20077
898.913	19936
899.033	19856
899.153	19769
899.273	19540
899.393	19784
899.513	19811
899.633	19666
899.753	19769
899.873	19635
899.993	19715
900.113	19635
900.232	19613
900.352	19586
900.472	19632
900.591	19590
900.711	19480
900.83	19460
900.95	19651
901.069	19518
901.189	19369
901.308	19198
901.427	18993
901.546	19076
901.665	19175
901.784	19069
901.904	18966
902.023	18928
902.141	18639
902.26	18658
902.379	18696
902.498	18547
902.617	18593
902.735	18703
902.854	18612
902.973	18486
903.091	18327
903.21	18292
903.328	18277
903.446	18334
903.565	18129
903.683	18174
903.801	17866
903.919	17961
904.038	18007
904.156	17893
904.274	17996
904.392	17897
904.51	17821
904.627	17863
904.745	17840
904.863	17961
904.981	17551
905.098	17547
905.216	17505
905.334	17619
905.451	17497
905.569	17509
905.686	17509
905.803	17505
905.921	17280
906.038	17414
906.155	17353
906.272	17273
906.389	17265
906.506	17140
906.623	17098
906.74	17037
906.857	16946
906.974	16991
907.091	17083
907.208	17231
907.324	17147
907.441	16953
907.557	16850
907.674	16774
907.79	16668
907.907	16702
908.023	16691
908.139	16771
908.256	16831
908.372	16752
908.488	16702
908.604	16573
908.72	16508
908.836	16535
908.952	16497
909.068	16542
909.184	16634
909.3	16504
909.415	16588
909.531	16508
909.647	16211
909.762	16253
909.878	16169
909.993	16261
910.108	16234
910.224	16090
910.339	16128
910.454	16071
910.57	15987
910.685	15956
910.8	16242
910.915	16097
911.03	15998
911.145	15869
911.259	15861
911.374	15785
911.489	15736
911.604	15679
911.718	15599
911.833	15622
911.947	15340
912.062	15412
912.176	15542
912.291	15549
912.405	15656
912.519	15728
912.633	15709
912.748	15553
912.862	15534
912.976	15382
913.09	15245
913.204	15370
913.318	15450
913.431	15355
913.545	15454
913.659	15393
913.772	15348
913.886	15180
914	15085
914.113	15184
914.226	15233
914.34	15252
914.453	15055
914.566	15173
914.68	15112
914.793	15009
914.906	14876
915.019	14796
915.132	14800
915.245	14750
915.358	14902
915.47	14838
915.583	14838
915.696	14769
915.809	14975
915.921	14933
916.034	14845
916.146	14762
916.259	14739
916.371	14838
916.483	14708
916.595	14670
916.708	14648
916.82	14568
916.932	14503
917.044	14579
917.156	14621
917.268	14469
917.38	14549
917.491	14484
917.603	14446
917.715	14415
917.826	14556
917.938	14495
918.049	14385
918.161	14457
918.272	14511
918.384	14564
918.495	14427
918.606	14214
918.717	14244
918.828	14210
918.939	14229
919.05	14176
919.161	14229
919.272	13932
919.383	14111
919.494	14347
919.604	14450
919.715	14172
919.826	14161
919.936	14176
920.047	14225
920.157	14275
920.267	14457
920.378	14221
920.488	14111
920.598	14355
920.708	14427
920.818	14434
920.928	14309
921.038	14438
921.148	14400
921.258	14088
921.368	13993
921.477	13936
921.587	13955
921.697	13803
921.806	13890
921.916	13780
922.025	13578
922.134	13548
922.244	13575
922.353	13601
922.462	13480
922.571	13426
922.68	13244
922.789	13194
922.898	13221
923.007	13232
923.116	13228
923.224	13194
923.333	13240
923.442	13103
923.55	13050
923.659	13179
923.767	13084
923.876	12913
923.984	13069
924.092	12966
924.201	13004
924.309	13015
924.417	13072
924.525	12916
924.633	12928
924.741	13674
924.849	12677
924.956	12859
925.064	12696
925.172	12722
925.279	12635
925.387	12692
925.494	12681
925.602	12867
925.709	12726
925.816	12593
925.924	12631
926.031	12665
926.138	12540
926.245	12601
926.352	12445
926.459	12616
926.566	12658
926.673	12547
926.779	12471
926.886	12445
926.993	12216
927.099	12266
927.206	12239
927.312	12213
927.419	12296
927.525	12273
927.631	12273
927.737	12190
927.843	12083
927.95	11961
928.056	12087
928.162	12148
928.267	12201
928.373	12753
928.479	12167
928.585	11935
928.69	12022
928.796	11999
928.901	11946
929.007	11821
929.112	11984
929.218	11882
929.323	11805
929.428	11805
929.533	11946
929.638	11912
929.743	11783
929.848	11733
929.953	11805
930.058	11638
930.163	11486
930.267	11520
930.372	11562
930.477	11440
930.581	11615
930.685	11592
930.79	11455
930.894	11414
930.998	11410
931.103	11493
931.207	11094
931.311	11014
931.415	10995
931.519	10835
931.623	10710
