Data from test_V78500241_2564.txt Node
Date: Fri Mar 25 15:27:42 CST 2022
User: usil
Spectrometer: V785-0024
Trigger mode: 0
Integration Time (sec): 4.000000E-1
Scans to average: 1
Nonlinearity correction enabled: false
Boxcar width: 0
Storing dark spectrum: false
XAxis mode: Wavelengths
Number of Pixels in Spectrum: 1024
>>>>>Begin Spectral Data<<<<<
801.071	27355
801.214	27272
801.356	26899
801.499	26933
801.641	26773
801.783	27028
801.926	26804
802.068	26804
802.211	26689
802.353	26887
802.496	26598
802.638	26450
802.78	26408
802.923	26476
803.065	26294
803.208	26355
803.35	26450
803.492	26545
803.635	26655
803.777	26621
803.919	26606
804.061	26948
804.204	26697
804.346	26453
804.488	26541
804.63	26541
804.773	26606
804.915	26731
805.057	26670
805.199	26480
805.341	26678
805.483	26762
805.626	26667
805.768	26594
805.91	26754
806.052	26796
806.194	26720
806.336	27001
806.478	26811
806.62	26819
806.762	26899
806.904	27043
807.046	27260
807.188	27154
807.33	27112
807.472	27184
807.614	27017
807.756	27131
807.898	27085
808.04	26918
808.182	26914
808.324	27005
808.465	27005
808.607	27104
808.749	27340
808.891	27553
809.033	27534
809.174	27355
809.316	27431
809.458	27386
809.6	27363
809.741	27519
809.883	27439
810.025	27667
810.166	27663
810.308	27641
810.45	27572
810.591	27526
810.733	27298
810.875	27268
811.016	27275
811.158	27329
811.299	27610
811.441	27530
811.582	27686
811.724	27355
811.865	27340
812.007	27161
812.148	27340
812.29	27336
812.431	27572
812.573	27652
812.714	27633
812.855	27774
812.997	28055
813.138	27926
813.279	27937
813.421	27747
813.562	27819
813.703	27644
813.845	27595
813.986	27252
814.127	27123
814.268	27093
814.41	27058
814.551	27055
814.692	27112
814.833	26971
814.974	27047
815.115	26921
815.256	26975
815.397	26956
815.539	26746
815.68	26682
815.821	26648
815.962	26826
816.103	26849
816.244	26629
816.385	26571
816.526	26514
816.666	26476
816.807	26233
816.948	26480
817.089	26233
817.23	26263
817.371	26336
817.512	26229
817.653	26195
817.793	26172
817.934	26271
818.075	26358
818.216	26309
818.356	26145
818.497	26073
818.638	25849
818.778	26062
818.919	25963
819.06	26084
819.2	26050
819.341	26240
819.481	26313
819.622	26412
819.762	26587
819.903	26514
820.043	26533
820.184	26366
820.324	26427
820.465	26480
820.605	26347
820.746	26393
820.886	26130
821.026	26343
821.167	26370
821.307	26396
821.447	26286
821.588	26103
821.728	26100
821.868	25898
822.008	25738
822.149	25830
822.289	25708
822.429	25438
822.569	25426
822.709	25407
822.849	25156
822.99	25152
823.13	25274
823.27	25217
823.41	25000
823.55	24947
823.69	25103
823.83	25069
823.97	25137
824.11	24867
824.25	24932
824.389	24810
824.529	24928
824.669	24875
824.809	24928
824.949	24905
825.089	25050
825.228	24928
825.368	24787
825.508	24719
825.648	24760
825.787	24814
825.927	24711
826.067	24798
826.206	24719
826.346	24867
826.485	24878
826.625	24703
826.765	24894
826.904	24776
827.044	24521
827.183	24566
827.323	24505
827.462	24479
827.601	24521
827.741	24330
827.88	24509
828.02	24418
828.159	24498
828.298	24467
828.437	24460
828.577	24502
828.716	24490
828.855	24399
828.994	24258
829.134	24106
829.273	24296
829.412	24117
829.551	24091
829.69	24201
829.829	24213
829.968	24277
830.107	24190
830.246	24235
830.385	24076
830.524	23988
830.663	24076
830.802	23904
830.941	23687
831.08	23737
831.219	23904
831.357	23741
831.496	24095
831.635	23824
831.774	23691
831.913	23729
832.051	23581
832.19	23619
832.329	23551
832.467	23554
832.606	23402
832.744	23448
832.883	23509
833.022	23360
833.16	23509
833.299	23452
833.437	23570
833.576	23630
833.714	23573
833.852	23516
833.991	23585
834.129	23638
834.267	23627
834.406	23501
834.544	23604
834.682	23657
834.821	23512
834.959	23741
835.097	23562
835.235	23558
835.373	23558
835.511	23512
835.65	23345
835.788	23440
835.926	23277
836.064	23189
836.202	23181
836.34	23463
836.478	23410
836.615	23436
836.753	23531
836.891	23528
837.029	23410
837.167	23334
837.305	23189
837.443	23318
837.58	23174
837.718	23208
837.856	23387
837.993	23197
838.131	23288
838.269	23189
838.406	23151
838.544	23022
838.681	22938
838.819	22862
838.956	22778
839.094	22637
839.231	22767
839.369	22923
839.506	23098
839.643	23006
839.781	22694
839.918	22744
840.055	22729
840.193	22679
840.33	22698
840.467	22733
840.604	22801
840.742	23033
840.879	22542
841.016	22622
841.153	22565
841.29	22824
841.427	22710
841.564	22603
841.701	22668
841.838	22592
841.975	22497
842.112	22675
842.249	22554
842.385	22409
842.522	22721
842.659	22535
842.796	22504
842.933	22390
843.069	22329
843.206	22310
843.343	22504
843.479	22481
843.616	22512
843.752	22226
843.889	22162
844.025	22405
844.162	22185
844.298	22344
844.435	22131
844.571	22188
844.708	22158
844.844	22265
844.98	22299
845.117	22360
845.253	22097
845.389	22131
845.525	22040
845.661	22139
845.798	22006
845.934	21937
846.07	21823
846.206	21941
846.342	21934
846.478	21949
846.614	21770
846.75	21618
846.886	21633
847.022	21709
847.158	21785
847.294	21603
847.429	21652
847.565	21720
847.701	21949
847.837	21466
847.972	21378
848.108	21572
848.244	21500
848.379	21294
848.515	21359
848.65	21165
848.786	21226
848.921	21310
849.057	21401
849.192	21428
849.328	21363
849.463	21321
849.598	21268
849.734	21192
849.869	21218
850.004	21051
850.14	21119
850.275	21119
850.41	21077
850.545	21039
850.68	21066
850.815	21112
850.95	20963
851.085	21199
851.22	21211
851.355	21013
851.49	21028
851.625	20994
851.76	20967
851.895	20925
852.03	20963
852.165	21096
852.299	20956
852.434	20982
852.569	21024
852.703	20990
852.838	21135
852.973	21096
853.107	21241
853.242	21047
853.376	20880
853.511	20769
853.645	20937
853.78	20975
853.914	20902
854.048	20815
854.183	20826
854.317	20918
854.451	21074
854.585	20956
854.72	20910
854.854	20876
854.988	20785
855.122	20838
855.256	20735
855.39	20895
855.524	20902
855.658	20937
855.792	20872
855.926	20876
856.06	20807
856.194	20918
856.327	20838
856.461	20750
856.595	20864
856.729	20754
856.862	20902
856.996	20861
857.13	20906
857.263	20982
857.397	20960
857.53	20834
857.664	20796
857.797	20960
857.931	20952
858.064	20948
858.197	20982
858.331	20914
858.464	20834
858.597	20792
858.731	20739
858.864	20834
858.997	20826
859.13	20773
859.263	20952
859.396	21043
859.529	20872
859.662	20830
859.795	20838
859.928	20895
860.061	20979
860.194	21062
860.327	20853
860.46	20937
860.592	21055
860.725	21116
860.858	20990
860.99	20891
861.123	20849
861.256	20933
861.388	20872
861.521	21454
861.653	20781
861.786	20651
861.918	20682
862.05	20792
862.183	20762
862.315	20891
862.447	20921
862.58	20830
862.712	20648
862.844	20613
862.976	20804
863.108	20705
863.24	21055
863.372	20522
863.504	20613
863.636	20617
863.768	20594
863.9	20632
864.032	20461
864.164	20587
864.296	20693
864.428	20739
864.559	20750
864.691	20712
864.823	20613
864.954	20701
865.086	20575
865.217	20530
865.349	20480
865.48	20370
865.612	20469
865.743	20746
865.875	20560
866.006	20473
866.137	20511
866.269	20640
866.4	20465
866.531	20438
866.662	20320
866.793	20564
866.924	20431
867.055	20438
867.186	20457
867.317	20446
867.448	20347
867.579	20461
867.71	20400
867.841	20408
867.972	20556
868.103	20438
868.233	20427
868.364	20533
868.495	20469
868.625	20659
868.756	20800
868.886	20549
869.017	20735
869.147	20648
869.278	20724
869.408	20724
869.539	20655
869.669	20720
869.799	20849
869.929	20830
870.06	20845
870.19	20921
870.32	20971
870.45	20971
870.58	21089
870.71	21173
870.84	21214
870.97	20982
871.1	21024
871.23	21230
871.36	21264
871.489	21188
871.619	21302
871.749	21298
871.879	21256
872.008	21313
872.138	21302
872.267	21275
872.397	21226
872.526	21298
872.656	21058
872.785	21165
872.915	21230
873.044	21424
873.173	21264
873.303	21526
873.432	21294
873.561	21336
873.69	21336
873.819	21363
873.948	21420
874.077	21287
874.206	21157
874.335	21252
874.464	21405
874.593	21614
874.722	21447
874.851	21523
874.979	21610
875.108	21762
875.237	21587
875.365	21469
875.494	21454
875.623	21568
875.751	21420
875.88	21701
876.008	21793
876.136	21728
876.265	21934
876.393	21930
876.521	22013
876.65	22086
876.778	22059
876.906	21903
877.034	21846
877.162	21884
877.29	21903
877.418	21934
877.546	21895
877.674	21926
877.802	21956
877.93	21903
878.058	21888
878.185	21762
878.313	21854
878.441	21816
878.568	21755
878.696	21934
878.824	21918
878.951	21918
879.079	22131
879.206	22086
879.333	22051
879.461	21869
879.588	22013
879.715	22067
879.842	22280
879.97	21907
880.097	21747
880.224	21789
880.351	21762
880.478	21759
880.605	21682
880.732	21816
880.859	21926
880.986	21743
881.112	21827
881.239	21568
881.366	21469
881.493	21382
881.619	21348
881.746	21355
881.872	21245
881.999	21310
882.125	21268
882.252	21443
882.378	21298
882.505	21363
882.631	21192
882.757	21081
882.883	21024
883.01	21058
883.136	20899
883.262	20906
883.388	20887
883.514	20994
883.64	21100
883.766	20804
883.892	20800
884.018	20842
884.143	20986
884.269	21020
884.395	20712
884.52	20663
884.646	20796
884.772	20606
884.897	20598
885.023	20602
885.148	20743
885.274	20792
885.399	20815
885.524	20598
885.65	20648
885.775	20773
885.9	20659
886.025	20762
886.15	20693
886.275	20484
886.4	20564
886.525	20617
886.65	20526
886.775	20644
886.9	20655
887.025	20925
887.149	20625
887.274	20480
887.399	20461
887.523	20488
887.648	20317
887.773	20339
887.897	20457
888.021	20446
888.146	20408
888.27	20431
888.395	20446
888.519	20377
888.643	20434
888.767	20518
888.891	20343
889.015	20278
889.139	20233
889.263	20134
889.387	20195
889.511	20431
889.635	20358
889.759	20221
889.883	20336
890.006	20256
890.13	20298
890.254	20229
890.377	20073
890.501	19993
890.624	19986
890.748	20096
890.871	19909
890.995	19776
891.118	19769
891.241	19849
891.364	20024
891.488	19978
891.611	19818
891.734	19940
891.857	19993
891.98	19750
892.103	19963
892.226	19750
892.349	19750
892.471	19655
892.594	19674
892.717	19643
892.839	19750
892.962	19769
893.085	19833
893.207	19715
893.33	19552
893.452	19624
893.575	19757
893.697	19772
893.819	19906
893.941	19963
894.064	19856
894.186	19750
894.308	19712
894.43	19795
894.552	19822
894.674	19822
894.796	19590
894.918	19727
895.04	19731
895.161	19731
895.283	19658
895.405	19658
895.526	19757
895.648	19811
895.769	19746
895.891	19750
896.012	19795
896.134	19765
896.255	19651
896.376	19567
896.498	19616
896.619	19784
896.74	19712
896.861	19852
896.982	20100
897.103	20237
897.224	19936
897.345	19986
897.466	19917
897.587	20027
897.708	20119
897.828	20005
897.949	19845
898.07	19693
898.19	19890
898.311	20001
898.431	19951
898.552	19974
898.672	20012
898.792	19963
898.913	20016
899.033	19753
899.153	19727
899.273	19658
899.393	19674
899.513	19818
899.633	19666
899.753	19708
899.873	19495
899.993	19601
900.113	19597
900.232	19586
900.352	19590
900.472	19597
900.591	19499
900.711	19460
900.83	19419
900.95	19620
901.069	19483
901.189	19369
901.308	19038
901.427	19137
901.546	19095
901.665	19080
901.784	19069
901.904	18802
902.023	18837
902.141	18681
902.26	18597
902.379	18684
902.498	18681
902.617	18563
902.735	18642
902.854	18517
902.973	18441
903.091	18315
903.21	18254
903.328	18243
903.446	18144
903.565	18091
903.683	18019
903.801	18034
903.919	18038
904.038	17973
904.156	17882
904.274	17912
904.392	17923
904.51	17847
904.627	17756
904.745	17866
904.863	17927
904.981	17665
905.098	17493
905.216	17581
905.334	17573
905.451	17562
905.569	17505
905.686	17520
905.803	17562
905.921	17299
906.038	17410
906.155	17337
906.272	17178
906.389	17166
906.506	17025
906.623	17086
906.74	17056
906.857	16987
906.974	17048
907.091	17045
907.208	17181
907.324	17117
907.441	16972
907.557	16801
907.674	16778
907.79	16752
907.907	16892
908.023	16721
908.139	16725
908.256	16782
908.372	16683
908.488	16694
908.604	16489
908.72	16398
908.836	16508
908.952	16462
909.068	16485
909.184	16641
909.3	16508
909.415	16421
909.531	16493
909.647	16253
909.762	16200
909.878	16154
909.993	16181
910.108	16287
910.224	16185
910.339	16284
910.454	16071
910.57	16010
910.685	15983
910.8	16249
910.915	16284
911.03	16010
911.145	15903
911.259	15766
911.374	15720
911.489	15618
911.604	15713
911.718	15557
911.833	15591
911.947	15534
912.062	15416
912.176	15614
912.291	15606
912.405	15667
912.519	15915
912.633	15804
912.748	15644
912.862	15553
912.976	15469
913.09	15302
913.204	15332
913.318	15424
913.431	15401
913.545	15504
913.659	15500
913.772	15340
913.886	15245
914	15207
914.113	15249
914.226	15275
914.34	15188
914.453	15085
914.566	15104
914.68	15070
914.793	14967
914.906	14880
915.019	14807
915.132	14758
915.245	14773
915.358	14769
915.47	14693
915.583	14845
915.696	14853
915.809	14880
915.921	14880
916.034	14727
916.146	14613
916.259	14788
916.371	14819
916.483	14788
916.595	14678
916.708	14682
916.82	14606
916.932	14655
917.044	14594
917.156	14579
917.268	14499
917.38	14533
917.491	14404
917.603	14495
917.715	14450
917.826	14530
917.938	14396
918.049	14309
918.161	14473
918.272	14617
918.384	14579
918.495	14396
918.606	14317
918.717	14191
918.828	14248
918.939	14259
919.05	14103
919.161	14218
919.272	14031
919.383	14069
919.494	14233
919.604	14328
919.715	14142
919.826	14103
919.936	14180
920.047	14290
920.157	14271
920.267	14393
920.378	14290
920.488	14206
920.598	14442
920.708	14511
920.818	14252
920.928	14351
921.038	14530
921.148	14514
921.258	14183
921.368	14077
921.477	13978
921.587	13925
921.697	13917
921.806	13875
921.916	13807
922.025	13708
922.134	13651
922.244	13613
922.353	13571
922.462	13449
922.571	13449
922.68	13289
922.789	13274
922.898	13198
923.007	13110
923.116	13270
923.224	13225
923.333	13240
923.442	13145
923.55	13095
923.659	13137
923.767	13141
923.876	12985
923.984	13145
924.092	13004
924.201	13076
924.309	13027
924.417	12973
924.525	12882
924.633	12878
924.741	13784
924.849	12688
924.956	12844
925.064	12642
925.172	12631
925.279	12654
925.387	12707
925.494	12741
925.602	12875
925.709	12753
925.816	12525
925.924	12593
926.031	12760
926.138	12593
926.245	12711
926.352	12578
926.459	12654
926.566	12650
926.673	12578
926.779	12414
926.886	12452
926.993	12342
927.099	12289
927.206	12273
927.312	12251
927.419	12258
927.525	12201
927.631	12300
927.737	12190
927.843	12136
927.95	11942
928.056	12060
928.162	12087
928.267	12049
928.373	12570
928.479	12121
928.585	11961
928.69	12049
928.796	12091
928.901	11965
929.007	11866
929.112	11996
929.218	11946
929.323	11901
929.428	11741
929.533	11954
929.638	11764
929.743	11832
929.848	11904
929.953	11802
930.058	11688
930.163	11577
930.267	11611
930.372	11672
930.477	11501
930.581	11764
930.685	11566
930.79	11364
930.894	11353
930.998	11414
931.103	11566
931.207	11197
931.311	11128
931.415	11086
931.519	10854
931.623	10805
