Data from test_V78500241_3552.txt Node
Date: Fri Mar 25 15:34:35 CST 2022
User: usil
Spectrometer: V785-0024
Trigger mode: 0
Integration Time (sec): 4.000000E-1
Scans to average: 1
Nonlinearity correction enabled: false
Boxcar width: 0
Storing dark spectrum: false
XAxis mode: Wavelengths
Number of Pixels in Spectrum: 1024
>>>>>Begin Spectral Data<<<<<
801.071	27249
801.214	27214
801.356	27024
801.499	27013
801.641	26716
801.783	26952
801.926	27013
802.068	26762
802.211	26701
802.353	26629
802.496	26609
802.638	26564
802.78	26465
802.923	26442
803.065	26309
803.208	26469
803.35	26450
803.492	26651
803.635	26651
803.777	26480
803.919	26716
804.061	26918
804.204	26735
804.346	26613
804.488	26530
804.63	26594
804.773	26556
804.915	26682
805.057	26590
805.199	26541
805.341	26785
805.483	26826
805.626	26651
805.768	26678
805.91	26682
806.052	26796
806.194	26579
806.336	26895
806.478	26838
806.62	26834
806.762	26785
806.904	26880
807.046	27310
807.188	27169
807.33	27161
807.472	27138
807.614	27096
807.756	27077
807.898	26998
808.04	26842
808.182	26800
808.324	26952
808.465	27036
808.607	27104
808.749	27344
808.891	27435
809.033	27408
809.174	27211
809.316	27272
809.458	27264
809.6	27348
809.741	27363
809.883	27260
810.025	27587
810.166	27545
810.308	27675
810.45	27469
810.591	27435
810.733	27310
810.875	27275
811.016	27199
811.158	27336
811.299	27405
811.441	27485
811.582	27291
811.724	27306
811.865	27218
812.007	27473
812.148	27108
812.29	27317
812.431	27317
812.573	27671
812.714	27622
812.855	27953
812.997	27804
813.138	28025
813.279	27884
813.421	27774
813.562	27736
813.703	27545
813.845	27481
813.986	27348
814.127	26891
814.268	27017
814.41	27032
814.551	27081
814.692	26982
814.833	26971
814.974	26849
815.115	26937
815.256	26971
815.397	26811
815.539	26819
815.68	26849
815.821	26648
815.962	26785
816.103	26765
816.244	26530
816.385	26571
816.526	26609
816.666	26328
816.807	26259
816.948	26202
817.089	26237
817.23	26294
817.371	26168
817.512	26324
817.653	26153
817.793	26126
817.934	26259
818.075	26191
818.216	26309
818.356	26237
818.497	26054
818.638	26058
818.778	26027
818.919	25925
819.06	26168
819.2	26058
819.341	26138
819.481	26161
819.622	26286
819.762	26560
819.903	26415
820.043	26396
820.184	26263
820.324	26191
820.465	26385
820.605	26259
820.746	26301
820.886	26176
821.026	26450
821.167	26286
821.307	26313
821.447	26324
821.588	26115
821.728	25947
821.868	25830
822.008	25746
822.149	25696
822.289	25727
822.429	25559
822.569	25407
822.709	25282
822.849	25217
822.99	25244
823.13	25190
823.27	25122
823.41	24973
823.55	24947
823.69	25023
823.83	25065
823.97	25008
824.11	24814
824.25	24722
824.389	24840
824.529	24867
824.669	24981
824.809	24901
824.949	24897
825.089	24894
825.228	24749
825.368	24673
825.508	24703
825.648	24612
825.787	24829
825.927	24745
826.067	24669
826.206	24825
826.346	24719
826.485	24585
826.625	24688
826.765	24787
826.904	24772
827.044	24509
827.183	24395
827.323	24410
827.462	24452
827.601	24494
827.741	24486
827.88	24536
828.02	24285
828.159	24289
828.298	24357
828.437	24551
828.577	24433
828.716	24563
828.855	24300
828.994	24171
829.134	24239
829.273	24186
829.412	24224
829.551	24057
829.69	24235
829.829	24114
829.968	24083
830.107	24220
830.246	24136
830.385	24030
830.524	24155
830.663	23988
830.802	23931
830.941	23729
831.08	23790
831.219	23855
831.357	23771
831.496	24064
831.635	23691
831.774	23657
831.913	23638
832.051	23649
832.19	23535
832.329	23600
832.467	23436
832.606	23280
832.744	23360
832.883	23433
833.022	23505
833.16	23421
833.299	23490
833.437	23353
833.576	23547
833.714	23455
833.852	23573
833.991	23512
834.129	23596
834.267	23547
834.406	23543
834.544	23467
834.682	23497
834.821	23429
834.959	23786
835.097	23387
835.235	23551
835.373	23543
835.511	23509
835.65	23478
835.788	23216
835.926	23235
836.064	23246
836.202	23220
836.34	23425
836.478	23505
836.615	23402
836.753	23345
836.891	23463
837.029	23318
837.167	23235
837.305	23261
837.443	23185
837.58	23140
837.718	23189
837.856	23075
837.993	23204
838.131	23265
838.269	23006
838.406	23048
838.544	22999
838.681	22942
838.819	22740
838.956	22778
839.094	22679
839.231	22603
839.369	22927
839.506	23029
839.643	22904
839.781	22740
839.918	22538
840.055	22675
840.193	22607
840.33	22596
840.467	22592
840.604	22675
840.742	22759
840.879	22459
841.016	22557
841.153	22466
841.29	22736
841.427	22607
841.564	22634
841.701	22592
841.838	22626
841.975	22546
842.112	22683
842.249	22481
842.385	22363
842.522	22630
842.659	22413
842.796	22310
842.933	22402
843.069	22405
843.206	22337
843.343	22382
843.479	22356
843.616	22272
843.752	22070
843.889	22120
844.025	22284
844.162	22010
844.298	22200
844.435	22139
844.571	22128
844.708	22276
844.844	22303
844.98	22356
845.117	22215
845.253	22166
845.389	21911
845.525	22112
845.661	22021
845.798	21835
845.934	21998
846.07	21781
846.206	22017
846.342	22036
846.478	21797
846.614	21709
846.75	21530
846.886	21614
847.022	21720
847.158	21603
847.294	21606
847.429	21576
847.565	21663
847.701	21873
847.837	21382
847.972	21291
848.108	21443
848.244	21485
848.379	21233
848.515	21226
848.65	21176
848.786	21233
848.921	21249
849.057	21355
849.192	21283
849.328	21230
849.463	21218
849.598	21157
849.734	21150
849.869	21032
850.004	21001
850.14	21005
850.275	21051
850.41	21081
850.545	20880
850.68	21020
850.815	21020
850.95	21108
851.085	21218
851.22	21017
851.355	20975
851.49	20960
851.625	20883
851.76	20933
851.895	20853
852.03	20925
852.165	20914
852.299	20986
852.434	21024
852.569	20979
852.703	20948
852.838	20979
852.973	21165
853.107	21146
853.242	20910
853.376	20929
853.511	20830
853.645	20769
853.78	20990
853.914	20781
854.048	20842
854.183	20651
854.317	20792
854.451	20971
854.585	20849
854.72	20952
854.854	20925
854.988	20781
855.122	20781
855.256	20617
855.39	20864
855.524	20902
855.658	20773
855.792	20781
855.926	20921
856.06	20853
856.194	20781
856.327	20724
856.461	20800
856.595	20739
856.729	20914
856.862	20876
856.996	20872
857.13	20887
857.263	20861
857.397	20807
857.53	20754
857.664	20971
857.797	20781
857.931	20906
858.064	20853
858.197	20937
858.331	20788
858.464	20899
858.597	20693
858.731	20815
858.864	20716
858.997	20720
859.13	20807
859.263	20731
859.396	20948
859.529	20807
859.662	20773
859.795	20735
859.928	20834
860.061	20994
860.194	21055
860.327	20864
860.46	20716
860.592	20906
860.725	20925
860.858	20899
860.99	20906
861.123	20731
861.256	20724
861.388	20823
861.521	21606
861.653	20651
861.786	20556
861.918	20575
862.05	20686
862.183	20765
862.315	20815
862.447	20861
862.58	20670
862.712	20651
862.844	20530
862.976	20682
863.108	20693
863.24	20826
863.372	20579
863.504	20575
863.636	20560
863.768	20674
863.9	20465
864.032	20404
864.164	20530
864.296	20560
864.428	20686
864.559	20533
864.691	20667
864.823	20556
864.954	20495
865.086	20533
865.217	20431
865.349	20366
865.48	20431
865.612	20358
865.743	20556
865.875	20484
866.006	20488
866.137	20560
866.269	20431
866.4	20415
866.531	20434
866.662	20385
866.793	20385
866.924	20450
867.055	20366
867.186	20377
867.317	20454
867.448	20339
867.579	20313
867.71	20374
867.841	20313
867.972	20564
868.103	20377
868.233	20370
868.364	20461
868.495	20526
868.625	20613
868.756	20792
868.886	20514
869.017	20731
869.147	20773
869.278	20902
869.408	20697
869.539	20632
869.669	20667
869.799	20785
869.929	20796
870.06	20754
870.19	21108
870.32	20925
870.45	20910
870.58	21070
870.71	21272
870.84	21051
870.97	21039
871.1	21062
871.23	21146
871.36	21272
871.489	21150
871.619	21188
871.749	21272
871.879	21264
872.008	21370
872.138	21272
872.267	21310
872.397	21112
872.526	21161
872.656	21081
872.785	21173
872.915	21260
873.044	21233
873.173	21184
873.303	21363
873.432	21382
873.561	21420
873.69	21279
873.819	21310
873.948	21382
874.077	21370
874.206	21306
874.335	21188
874.464	21363
874.593	21606
874.722	21405
874.851	21553
874.979	21481
875.108	21720
875.237	21496
875.365	21374
875.494	21530
875.623	21564
875.751	21572
875.88	21507
876.008	21717
876.136	21797
876.265	22059
876.393	21979
876.521	21934
876.65	22032
876.778	21937
876.906	21892
877.034	21915
877.162	21781
877.29	21857
877.418	21888
877.546	21850
877.674	21797
877.802	21876
877.93	21751
878.058	21804
878.185	21675
878.313	21770
878.441	21717
878.568	21861
878.696	21713
878.824	21880
878.951	21994
879.079	22013
879.206	22181
879.333	21994
879.461	21861
879.588	21892
879.715	21956
879.842	22169
879.97	21888
880.097	21694
880.224	21800
880.351	21774
880.478	21793
880.605	21568
880.732	21686
880.859	21892
880.986	21808
881.112	21622
881.239	21644
881.366	21424
881.493	21298
881.619	21252
881.746	21397
881.872	21226
881.999	21313
882.125	21218
882.252	21214
882.378	21222
882.505	21447
882.631	21169
882.757	20941
882.883	21058
883.01	20994
883.136	21058
883.262	20769
883.388	20857
883.514	20933
883.64	20967
883.766	20834
883.892	20701
884.018	20792
884.143	20899
884.269	20998
884.395	20712
884.52	20598
884.646	20484
884.772	20636
884.897	20514
885.023	20632
885.148	20811
885.274	20880
885.399	20716
885.524	20651
885.65	20606
885.775	20636
885.9	20659
886.025	20705
886.15	20754
886.275	20560
886.4	20454
886.525	20549
886.65	20495
886.775	20495
886.9	20625
887.025	20861
887.149	20606
887.274	20423
887.399	20377
887.523	20434
887.648	20408
887.773	20275
887.897	20461
888.021	20488
888.146	20355
888.27	20419
888.395	20522
888.519	20347
888.643	20450
888.767	20530
888.891	20415
889.015	20145
889.139	20263
889.263	20149
889.387	20431
889.511	20469
889.635	20336
889.759	20161
889.883	20145
890.006	20130
890.13	20324
890.254	20225
890.377	20069
890.501	19887
890.624	20001
890.748	19913
890.871	19906
890.995	19715
891.118	19689
891.241	19715
891.364	19788
891.488	19902
891.611	19727
891.734	19700
891.857	19791
891.98	19803
892.103	19795
892.226	19791
892.349	19685
892.471	19529
892.594	19677
892.717	19772
892.839	19693
892.962	19731
893.085	19746
893.207	19563
893.33	19624
893.452	19575
893.575	19719
893.697	19662
893.819	19925
893.941	19887
894.064	19723
894.186	19578
894.308	19582
894.43	19864
894.552	19799
894.674	19738
894.796	19635
894.918	19704
895.04	19540
895.161	19757
895.283	19830
895.405	19525
895.526	19769
895.648	19639
895.769	19643
895.891	19681
896.012	19727
896.134	19833
896.255	19700
896.376	19647
896.498	19746
896.619	19742
896.74	19647
896.861	19814
896.982	20016
897.103	20161
897.224	20024
897.345	19928
897.466	19852
897.587	19932
897.708	19909
897.828	19906
897.949	20020
898.07	19852
898.19	19928
898.311	19974
898.431	19890
898.552	19909
898.672	20073
898.792	19993
898.913	19890
899.033	19799
899.153	19818
899.273	19666
899.393	19708
899.513	19681
899.633	19662
899.753	19830
899.873	19670
899.993	19658
900.113	19609
900.232	19674
900.352	19544
900.472	19472
900.591	19419
900.711	19460
900.83	19331
900.95	19586
901.069	19422
901.189	19377
901.308	19057
901.427	18985
901.546	19023
901.665	19023
901.784	19072
901.904	18932
902.023	18821
902.141	18631
902.26	18532
902.379	18627
902.498	18536
902.617	18578
902.735	18593
902.854	18612
902.973	18467
903.091	18262
903.21	18148
903.328	18224
903.446	18163
903.565	18011
903.683	17931
903.801	17996
903.919	17999
904.038	17984
904.156	17863
904.274	17935
904.392	17786
904.51	17741
904.627	17874
904.745	17805
904.863	17790
904.981	17562
905.098	17467
905.216	17417
905.334	17596
905.451	17429
905.569	17455
905.686	17467
905.803	17436
905.921	17220
906.038	17406
906.155	17242
906.272	17200
906.389	17121
906.506	16987
906.623	17037
906.74	16995
906.857	16957
906.974	16923
907.091	17033
907.208	17189
907.324	17052
907.441	16995
907.557	16721
907.674	16656
907.79	16691
907.907	16816
908.023	16672
908.139	16801
908.256	16687
908.372	16641
908.488	16687
908.604	16462
908.72	16428
908.836	16531
908.952	16443
909.068	16443
909.184	16565
909.3	16519
909.415	16569
909.531	16413
909.647	16207
909.762	16147
909.878	16154
909.993	16169
910.108	16169
910.224	16166
910.339	16169
910.454	16017
910.57	16017
910.685	15934
910.8	16280
910.915	15975
911.03	15998
911.145	15835
911.259	15743
911.374	15732
911.489	15637
911.604	15709
911.718	15576
911.833	15591
911.947	15428
912.062	15370
912.176	15530
912.291	15580
912.405	15504
912.519	15793
912.633	15785
912.748	15564
912.862	15526
912.976	15397
913.09	15386
913.204	15378
913.318	15401
913.431	15473
913.545	15386
913.659	15466
913.772	15416
913.886	15146
914	15226
914.113	15226
914.226	15287
914.34	15195
914.453	15028
914.566	15135
914.68	15017
914.793	15001
914.906	14796
915.019	14785
915.132	14758
915.245	14819
915.358	14750
915.47	14800
915.583	14743
915.696	14773
915.809	14883
915.921	14887
916.034	14701
916.146	14720
916.259	14632
916.371	14804
916.483	14746
916.595	14720
916.708	14560
916.82	14545
916.932	14606
917.044	14484
917.156	14503
917.268	14476
917.38	14465
917.491	14526
917.603	14473
917.715	14499
917.826	14571
917.938	14347
918.049	14237
918.161	14385
918.272	14488
918.384	14488
918.495	14454
918.606	14187
918.717	14267
918.828	14275
918.939	14244
919.05	14157
919.161	14183
919.272	14054
919.383	14035
919.494	14187
919.604	14503
919.715	14195
919.826	14054
919.936	14126
920.047	14267
920.157	14130
920.267	14336
920.378	14191
920.488	14180
920.598	14351
920.708	14412
920.818	14343
920.928	14347
921.038	14415
921.148	14328
921.258	14050
921.368	14077
921.477	13963
921.587	13890
921.697	13826
921.806	13887
921.916	13788
922.025	13655
922.134	13620
922.244	13624
922.353	13616
922.462	13441
922.571	13422
922.68	13247
922.789	13232
922.898	13335
923.007	13156
923.116	13209
923.224	13164
923.333	13266
923.442	13069
923.55	13095
923.659	13080
923.767	13160
923.876	13053
923.984	13072
924.092	12920
924.201	12954
924.309	12993
924.417	13034
924.525	12787
924.633	12947
924.741	13776
924.849	12772
924.956	12817
925.064	12730
925.172	12589
925.279	12582
925.387	12635
925.494	12711
925.602	12688
925.709	12730
925.816	12544
925.924	12547
926.031	12658
926.138	12604
926.245	12688
926.352	12498
926.459	12597
926.566	12608
926.673	12448
926.779	12448
926.886	12452
926.993	12197
927.099	12277
927.206	12197
927.312	12152
927.419	12273
927.525	12228
927.631	12175
927.737	12152
927.843	12022
927.95	11961
928.056	12022
928.162	12038
928.267	12140
928.373	12570
928.479	12213
928.585	11950
928.69	11988
928.796	12041
928.901	11897
929.007	11764
929.112	11908
929.218	11855
929.323	11760
929.428	11729
929.533	11954
929.638	11767
929.743	11748
929.848	11859
929.953	11737
930.058	11570
930.163	11444
930.267	11570
930.372	11592
930.477	11482
930.581	11703
930.685	11486
930.79	11398
930.894	11433
930.998	11417
931.103	11520
931.207	11185
931.311	11064
931.415	11067
931.519	10843
931.623	10801
