Data from test_V78500241_712.txt Node
Date: Fri Mar 25 15:14:48 CST 2022
User: usil
Spectrometer: V785-0024
Trigger mode: 0
Integration Time (sec): 4.000000E-1
Scans to average: 1
Nonlinearity correction enabled: false
Boxcar width: 0
Storing dark spectrum: false
XAxis mode: Wavelengths
Number of Pixels in Spectrum: 1024
>>>>>Begin Spectral Data<<<<<
801.071	28013
801.214	27876
801.356	27804
801.499	27751
801.641	27530
801.783	27793
801.926	27572
802.068	27557
802.211	27427
802.353	27397
802.496	27237
802.638	27192
802.78	27230
802.923	27214
803.065	27154
803.208	27184
803.35	27264
803.492	27291
803.635	27386
803.777	27310
803.919	27378
804.061	27656
804.204	27420
804.346	27412
804.488	27405
804.63	27435
804.773	27332
804.915	27355
805.057	27496
805.199	27340
805.341	27504
805.483	27629
805.626	27447
805.768	27427
805.91	27572
806.052	27542
806.194	27469
806.336	27842
806.478	27523
806.62	27622
806.762	27641
806.904	27800
807.046	28093
807.188	28025
807.33	27926
807.472	28078
807.614	28032
807.756	27937
807.898	28032
808.04	27766
808.182	27709
808.324	27899
808.465	27899
808.607	28090
808.749	28238
808.891	28272
809.033	28303
809.174	28284
809.316	28135
809.458	28409
809.6	28207
809.741	28329
809.883	28310
810.025	28550
810.166	28618
810.308	28649
810.45	28577
810.591	28314
810.733	28291
810.875	28249
811.016	28086
811.158	28067
811.299	28329
811.441	28341
811.582	28432
811.724	28219
811.865	28223
812.007	28086
812.148	28124
812.29	28344
812.431	28428
812.573	28698
812.714	28603
812.855	28771
812.997	28759
813.138	28987
813.279	28923
813.421	28774
813.562	28668
813.703	28554
813.845	28489
813.986	28272
814.127	28093
814.268	27979
814.41	28135
814.551	27930
814.692	28067
814.833	27972
814.974	27808
815.115	27922
815.256	27949
815.397	27701
815.539	27812
815.68	27728
815.821	27587
815.962	27603
816.103	27686
816.244	27629
816.385	27504
816.526	27450
816.666	27336
816.807	27203
816.948	27313
817.089	27329
817.23	27298
817.371	27222
817.512	27211
817.653	27237
817.793	27325
817.934	27180
818.075	27256
818.216	27279
818.356	27188
818.497	27192
818.638	26952
818.778	27020
818.919	26925
819.06	26906
819.2	27157
819.341	27260
819.481	27222
819.622	27317
819.762	27587
819.903	27534
820.043	27435
820.184	27279
820.324	27272
820.465	27389
820.605	27450
820.746	27416
820.886	27214
821.026	27344
821.167	27291
821.307	27439
821.447	27283
821.588	27039
821.728	27009
821.868	26956
822.008	26678
822.149	26708
822.289	26613
822.429	26446
822.569	26374
822.709	26492
822.849	26214
822.99	26256
823.13	26043
823.27	26180
823.41	25932
823.55	25799
823.69	26046
823.83	26043
823.97	25902
824.11	25795
824.25	25784
824.389	25826
824.529	25963
824.669	25928
824.809	25959
824.949	25921
825.089	26008
825.228	25925
825.368	25837
825.508	25712
825.648	25776
825.787	25799
825.927	25776
826.067	25685
826.206	25563
826.346	25864
826.485	25795
826.625	25719
826.765	25864
826.904	25814
827.044	25525
827.183	25472
827.323	25396
827.462	25468
827.601	25422
827.741	25434
827.88	25255
828.02	25266
828.159	25407
828.298	25426
828.437	25403
828.577	25339
828.716	25445
828.855	25384
828.994	25046
829.134	25107
829.273	25103
829.412	25145
829.551	25065
829.69	25209
829.829	25129
829.968	25152
830.107	25247
830.246	25084
830.385	24970
830.524	24913
830.663	25027
830.802	24878
830.941	24684
831.08	24722
831.219	24840
831.357	24772
831.496	24924
831.635	24642
831.774	24669
831.913	24616
832.051	24601
832.19	24604
832.329	24528
832.467	24441
832.606	24323
832.744	24353
832.883	24327
833.022	24346
833.16	24391
833.299	24494
833.437	24403
833.576	24513
833.714	24517
833.852	24589
833.991	24570
834.129	24700
834.267	24639
834.406	24365
834.544	24505
834.682	24585
834.821	24540
834.959	24639
835.097	24311
835.235	24456
835.373	24422
835.511	24525
835.65	24292
835.788	24357
835.926	24262
836.064	24015
836.202	24167
836.34	24228
836.478	24391
836.615	24399
836.753	24270
836.891	24376
837.029	24365
837.167	24304
837.305	24311
837.443	24285
837.58	24201
837.718	24292
837.856	24216
837.993	24091
838.131	24117
838.269	23965
838.406	24076
838.544	23950
838.681	23859
838.819	23638
838.956	23623
839.094	23562
839.231	23680
839.369	23767
839.506	23878
839.643	23904
839.781	23589
839.918	23592
840.055	23615
840.193	23619
840.33	23699
840.467	23539
840.604	23573
840.742	23817
840.879	23406
841.016	23368
841.153	23433
841.29	23547
841.427	23547
841.564	23493
841.701	23505
841.838	23573
841.975	23562
842.112	23433
842.249	23372
842.385	23242
842.522	23543
842.659	23334
842.796	23322
842.933	23326
843.069	23185
843.206	23269
843.343	23341
843.479	23277
843.616	23372
843.752	23227
843.889	23109
844.025	23208
844.162	22927
844.298	23064
844.435	23003
844.571	23033
844.708	23105
844.844	23162
844.98	23204
845.117	23227
845.253	23083
845.389	23022
845.525	22987
845.661	22972
845.798	22805
845.934	22839
846.07	22771
846.206	22759
846.342	22866
846.478	22733
846.614	22504
846.75	22413
846.886	22466
847.022	22752
847.158	22531
847.294	22615
847.429	22664
847.565	22447
847.701	22889
847.837	22375
847.972	22261
848.108	22257
848.244	22303
848.379	22188
848.515	22116
848.65	22120
848.786	22124
848.921	22112
849.057	22246
849.192	22162
849.328	22067
849.463	22124
849.598	22044
849.734	21998
849.869	21975
850.004	21945
850.14	21907
850.275	21949
850.41	21774
850.545	21857
850.68	21816
850.815	21922
850.95	21831
851.085	22093
851.22	21991
851.355	21895
851.49	21934
851.625	21895
851.76	21892
851.895	21793
852.03	21660
852.165	21842
852.299	21892
852.434	22002
852.569	21930
852.703	21949
852.838	22040
852.973	21968
853.107	22051
853.242	21789
853.376	21732
853.511	21492
853.645	21606
853.78	21861
853.914	21762
854.048	21648
854.183	21690
854.317	21846
854.451	21972
854.585	21724
854.72	21694
854.854	21854
854.988	21701
855.122	21831
855.256	21580
855.39	21690
855.524	21854
855.658	21660
855.792	21743
855.926	21713
856.06	21797
856.194	21793
856.327	21625
856.461	21755
856.595	21614
856.729	21789
856.862	21804
856.996	21781
857.13	21800
857.263	21774
857.397	21751
857.53	21679
857.664	21793
857.797	21789
857.931	21823
858.064	21675
858.197	21785
858.331	21762
858.464	21606
858.597	21599
858.731	21797
858.864	21644
858.997	21625
859.13	21679
859.263	21595
859.396	21918
859.529	21679
859.662	21713
859.795	21675
859.928	21709
860.061	21793
860.194	21949
860.327	21766
860.46	21667
860.592	21888
860.725	21983
860.858	21865
860.99	21660
861.123	21736
861.256	21709
861.388	21671
861.521	22512
861.653	21564
861.786	21534
861.918	21492
862.05	21644
862.183	21591
862.315	21663
862.447	21618
862.58	21523
862.712	21412
862.844	21439
862.976	21507
863.108	21454
863.24	21747
863.372	21386
863.504	21450
863.636	21462
863.768	21523
863.9	21382
864.032	21245
864.164	21325
864.296	21431
864.428	21496
864.559	21519
864.691	21420
864.823	21428
864.954	21477
865.086	21332
865.217	21405
865.349	21287
865.48	21287
865.612	21252
865.743	21462
865.875	21389
866.006	21268
866.137	21370
866.269	21275
866.4	21222
866.531	21310
866.662	21199
866.793	21317
866.924	21302
867.055	21237
867.186	21241
867.317	21249
867.448	21123
867.579	21233
867.71	21230
867.841	21176
867.972	21344
868.103	21336
868.233	21294
868.364	21237
868.495	21279
868.625	21553
868.756	21549
868.886	21424
869.017	21447
869.147	21545
869.278	21504
869.408	21389
869.539	21538
869.669	21660
869.799	21534
869.929	21564
870.06	21538
870.19	21724
870.32	21903
870.45	21770
870.58	21766
870.71	21915
870.84	21987
870.97	21755
871.1	21880
871.23	22040
871.36	21994
871.489	22002
871.619	22082
871.749	22082
871.879	22048
872.008	22040
872.138	22044
872.267	22086
872.397	21838
872.526	21945
872.656	21979
872.785	21949
872.915	22082
873.044	22032
873.173	22124
873.303	22040
873.432	22131
873.561	22219
873.69	22196
873.819	22063
873.948	22211
874.077	22025
874.206	22032
874.335	22086
874.464	22219
874.593	22436
874.722	22303
874.851	22261
874.979	22306
875.108	22352
875.237	22352
875.365	22276
875.494	22284
875.623	22386
875.751	22394
875.88	22268
876.008	22363
876.136	22432
876.265	22641
876.393	22771
876.521	22717
876.65	22691
876.778	22687
876.906	22622
877.034	22592
877.162	22664
877.29	22713
877.418	22774
877.546	22698
877.674	22626
877.802	22752
877.93	22546
878.058	22516
878.185	22577
878.313	22649
878.441	22793
878.568	22390
878.696	22596
878.824	22672
878.951	22607
879.079	22839
879.206	22927
879.333	22767
879.461	22675
879.588	22733
879.715	22881
879.842	22793
879.97	22557
880.097	22333
880.224	22546
880.351	22417
880.478	22504
880.605	22432
880.732	22436
880.859	22630
880.986	22466
881.112	22344
881.239	22280
881.366	22166
881.493	22150
881.619	22040
881.746	22162
881.872	21941
881.999	22002
882.125	21926
882.252	22048
882.378	21953
882.505	22139
882.631	21850
882.757	21732
882.883	21819
883.01	21724
883.136	21682
883.262	21523
883.388	21553
883.514	21698
883.64	21675
883.766	21663
883.892	21466
884.018	21523
884.143	21720
884.269	21861
884.395	21424
884.52	21378
884.646	21378
884.772	21397
884.897	21317
885.023	21367
885.148	21477
885.274	21473
885.399	21477
885.524	21435
885.65	21298
885.775	21393
885.9	21412
886.025	21431
886.15	21435
886.275	21283
886.4	21287
886.525	21298
886.65	21321
886.775	21317
886.9	21393
887.025	21519
887.149	21310
887.274	21188
887.399	21028
887.523	21123
887.648	21062
887.773	21055
887.897	21188
888.021	21123
888.146	21070
888.27	21138
888.395	21264
888.519	21169
888.643	21096
888.767	21195
888.891	21028
889.015	20925
889.139	21051
889.263	20887
889.387	21081
889.511	21150
889.635	21070
889.759	20902
889.883	20887
890.006	20895
890.13	21017
890.254	20887
890.377	20792
890.501	20689
890.624	20678
890.748	20750
890.871	20712
890.995	20541
891.118	20374
891.241	20514
891.364	20476
891.488	20651
891.611	20442
891.734	20412
891.857	20560
891.98	20339
892.103	20583
892.226	20465
892.349	20450
892.471	20256
892.594	20400
892.717	20476
892.839	20454
892.962	20431
893.085	20400
893.207	20313
893.33	20313
893.452	20332
893.575	20408
893.697	20324
893.819	20552
893.941	20682
894.064	20488
894.186	20442
894.308	20240
894.43	20484
894.552	20545
894.674	20400
894.796	20240
894.918	20366
895.04	20275
895.161	20446
895.283	20427
895.405	20229
895.526	20298
895.648	20305
895.769	20377
895.891	20339
896.012	20465
896.134	20381
896.255	20301
896.376	20381
896.498	20412
896.619	20271
896.74	20355
896.861	20530
896.982	20743
897.103	20781
897.224	20625
897.345	20606
897.466	20598
897.587	20579
897.708	20716
897.828	20621
897.949	20526
898.07	20454
898.19	20575
898.311	20739
898.431	20511
898.552	20689
898.672	20659
898.792	20629
898.913	20560
899.033	20526
899.153	20396
899.273	20199
899.393	20355
899.513	20374
899.633	20366
899.753	20237
899.873	20267
899.993	20256
900.113	20309
900.232	20442
900.352	20199
900.472	20172
900.591	20054
900.711	20157
900.83	20111
900.95	20180
901.069	20062
901.189	20084
901.308	19883
901.427	19635
901.546	19677
901.665	19605
901.784	19685
901.904	19571
902.023	19582
902.141	19335
902.26	19293
902.379	19259
902.498	19209
902.617	19240
902.735	19316
902.854	19171
902.973	19122
903.091	18993
903.21	18871
903.328	18863
903.446	18760
903.565	18665
903.683	18749
903.801	18559
903.919	18563
904.038	18654
904.156	18452
904.274	18593
904.392	18441
904.51	18422
904.627	18479
904.745	18479
904.863	18407
904.981	18254
905.098	18098
905.216	18140
905.334	18114
905.451	18045
905.569	18136
905.686	18136
905.803	18053
905.921	17927
906.038	18045
906.155	17927
906.272	17767
906.389	17843
906.506	17646
906.623	17726
906.74	17585
906.857	17554
906.974	17627
907.091	17589
907.208	17779
907.324	17615
907.441	17467
907.557	17387
907.674	17379
907.79	17292
907.907	17315
908.023	17353
908.139	17414
908.256	17299
908.372	17254
908.488	17284
908.604	17197
908.72	17045
908.836	17147
908.952	17067
909.068	17045
909.184	17197
909.3	17079
909.415	17239
909.531	17132
909.647	16831
909.762	16752
909.878	16790
909.993	16801
910.108	16706
910.224	16740
910.339	16713
910.454	16618
910.57	16599
910.685	16516
910.8	16797
910.915	16759
911.03	16645
911.145	16348
911.259	16443
911.374	16318
911.489	16386
911.604	16196
911.718	16120
911.833	16120
911.947	16063
912.062	16021
912.176	16150
912.291	16124
912.405	16166
912.519	16246
912.633	16303
912.748	16101
912.862	16112
912.976	16006
913.09	15770
913.204	15876
913.318	15831
913.431	16040
913.545	15895
913.659	15960
913.772	15865
913.886	15724
914	15648
914.113	15755
914.226	15800
914.34	15736
914.453	15667
914.566	15705
914.68	15557
914.793	15534
914.906	15477
915.019	15344
915.132	15264
915.245	15256
915.358	15252
915.47	15272
915.583	15321
915.696	15310
915.809	15408
915.921	15412
916.034	15306
916.146	15199
916.259	15165
916.371	15268
916.483	15211
916.595	15165
916.708	15195
916.82	15157
916.932	15173
917.044	15127
917.156	15116
917.268	14998
917.38	15089
917.491	14925
917.603	14914
917.715	15047
917.826	15119
917.938	14910
918.049	14925
918.161	14944
918.272	15089
918.384	14986
918.495	14868
918.606	14720
918.717	14644
918.828	14686
918.939	14743
919.05	14689
919.161	14716
919.272	14457
919.383	14522
919.494	14705
919.604	14872
919.715	14651
919.826	14648
919.936	14556
920.047	14697
920.157	14678
920.267	14872
920.378	14610
920.488	14735
920.598	14906
920.708	15005
920.818	14712
920.928	14861
921.038	15020
921.148	14902
921.258	14617
921.368	14450
921.477	14339
921.587	14412
921.697	14305
921.806	14351
921.916	14256
922.025	14065
922.134	14031
922.244	13982
922.353	14107
922.462	13906
922.571	13864
922.68	13780
922.789	13723
922.898	13719
923.007	13666
923.116	13712
923.224	13586
923.333	13609
923.442	13552
923.55	13415
923.659	13548
923.767	13658
923.876	13407
923.984	13521
924.092	13438
924.201	13377
924.309	13453
924.417	13464
924.525	13278
924.633	13373
924.741	14107
924.849	13156
924.956	13274
925.064	13072
925.172	13004
925.279	13072
925.387	13149
925.494	13042
925.602	13221
925.709	13156
925.816	13031
925.924	13084
926.031	13160
926.138	13027
926.245	13149
926.352	12947
926.459	13031
926.566	13034
926.673	12916
926.779	12783
926.886	12871
926.993	12696
927.099	12776
927.206	12722
927.312	12574
927.419	12620
927.525	12589
927.631	12639
927.737	12585
927.843	12536
927.95	12464
928.056	12528
928.162	12547
928.267	12448
928.373	13149
928.479	12544
928.585	12292
928.69	12486
928.796	12506
928.901	12330
929.007	12190
929.112	12327
929.218	12292
929.323	12209
929.428	12125
929.533	12330
929.638	12167
929.743	12091
929.848	12266
929.953	12163
930.058	12076
930.163	11813
930.267	11935
930.372	12098
930.477	11851
930.581	12102
930.685	11908
930.79	11775
930.894	11760
930.998	11710
931.103	11783
931.207	11516
931.311	11429
931.415	11421
931.519	11239
931.623	11170
