Data from test_V78500241_2433.txt Node
Date: Fri Mar 25 15:26:47 CST 2022
User: usil
Spectrometer: V785-0024
Trigger mode: 0
Integration Time (sec): 4.000000E-1
Scans to average: 1
Nonlinearity correction enabled: false
Boxcar width: 0
Storing dark spectrum: false
XAxis mode: Wavelengths
Number of Pixels in Spectrum: 1024
>>>>>Begin Spectral Data<<<<<
801.071	27043
801.214	27119
801.356	26781
801.499	26693
801.641	26583
801.783	26663
801.926	26765
802.068	26602
802.211	26530
802.353	26469
802.496	26332
802.638	26164
802.78	26210
802.923	26225
803.065	26058
803.208	26176
803.35	26233
803.492	26408
803.635	26400
803.777	26267
803.919	26343
804.061	26743
804.204	26613
804.346	26511
804.488	26408
804.63	26309
804.773	26286
804.915	26438
805.057	26453
805.199	26362
805.341	26396
805.483	26594
805.626	26545
805.768	26298
805.91	26575
806.052	26427
806.194	26450
806.336	26701
806.478	26511
806.62	26598
806.762	26587
806.904	26693
807.046	27074
807.188	26960
807.33	26921
807.472	26971
807.614	26796
807.756	26944
807.898	26823
808.04	26606
808.182	26743
808.324	26785
808.465	26834
808.607	26906
808.749	27165
808.891	27138
809.033	27074
809.174	27214
809.316	26982
809.458	27043
809.6	27032
809.741	27119
809.883	27272
810.025	27321
810.166	27355
810.308	27260
810.45	27348
810.591	27306
810.733	27119
810.875	27123
811.016	27013
811.158	26940
811.299	27218
811.441	27116
811.582	27157
811.724	27089
811.865	26948
812.007	27001
812.148	27093
812.29	26960
812.431	27173
812.573	27321
812.714	27496
812.855	27447
812.997	27743
813.138	27762
813.279	27641
813.421	27694
813.562	27580
813.703	27359
813.845	27264
813.986	26956
814.127	26724
814.268	26682
814.41	26735
814.551	26659
814.692	26602
814.833	26651
814.974	26743
815.115	26765
815.256	26450
815.397	26575
815.539	26648
815.68	26469
815.821	26427
815.962	26488
816.103	26366
816.244	26442
816.385	26278
816.526	26278
816.666	26111
816.807	25978
816.948	26043
817.089	26199
817.23	26046
817.371	25989
817.512	25944
817.653	25883
817.793	25936
817.934	26031
818.075	26035
818.216	26039
818.356	25879
818.497	25849
818.638	25700
818.778	25731
818.919	25738
819.06	25715
819.2	25799
819.341	26005
819.481	25894
819.622	26100
819.762	26218
819.903	26206
820.043	26191
820.184	26100
820.324	26126
820.465	26096
820.605	26161
820.746	26046
820.886	25902
821.026	26008
821.167	25909
821.307	26145
821.447	26027
821.588	25856
821.728	25784
821.868	25616
822.008	25388
822.149	25559
822.289	25514
822.429	25187
822.569	25015
822.709	25065
822.849	24924
822.99	24916
823.13	24951
823.27	24802
823.41	24848
823.55	24795
823.69	24764
823.83	24798
823.97	24646
824.11	24555
824.25	24532
824.389	24559
824.529	24597
824.669	24509
824.809	24677
824.949	24791
825.089	24578
825.228	24631
825.368	24357
825.508	24315
825.648	24418
825.787	24445
825.927	24528
826.067	24418
826.206	24399
826.346	24483
826.485	24513
826.625	24330
826.765	24551
826.904	24490
827.044	24251
827.183	24330
827.323	24174
827.462	24228
827.601	24136
827.741	24178
827.88	24125
828.02	24110
828.159	24015
828.298	24178
828.437	24106
828.577	24083
828.716	24186
828.855	24022
828.994	23863
829.134	23904
829.273	24026
829.412	23889
829.551	23767
829.69	23828
829.829	23931
829.968	24079
830.107	23927
830.246	23950
830.385	23790
830.524	23836
830.663	23516
830.802	23623
830.941	23334
831.08	23410
831.219	23551
831.357	23524
831.496	23627
831.635	23535
831.774	23474
831.913	23376
832.051	23231
832.19	23174
832.329	23216
832.467	23121
832.606	23166
832.744	23162
832.883	23098
833.022	23090
833.16	23132
833.299	23216
833.437	23181
833.576	23261
833.714	23220
833.852	23140
833.991	23376
834.129	23235
834.267	23284
834.406	23273
834.544	23227
834.682	23216
834.821	23273
834.959	23315
835.097	23159
835.235	23223
835.373	23239
835.511	23162
835.65	23102
835.788	23041
835.926	22995
836.064	22961
836.202	22885
836.34	23022
836.478	23185
836.615	23060
836.753	23029
836.891	23250
837.029	23174
837.167	23014
837.305	23006
837.443	23033
837.58	22911
837.718	23090
837.856	22889
837.993	22934
838.131	23006
838.269	22767
838.406	22824
838.544	22710
838.681	22615
838.819	22519
838.956	22394
839.094	22360
839.231	22577
839.369	22599
839.506	22755
839.643	22759
839.781	22394
839.918	22447
840.055	22386
840.193	22375
840.33	22394
840.467	22375
840.604	22459
840.742	22630
840.879	22169
841.016	22318
841.153	22287
841.29	22341
841.427	22306
841.564	22440
841.701	22128
841.838	22192
841.975	22215
842.112	22166
842.249	22070
842.385	21934
842.522	22284
842.659	22070
842.796	22017
842.933	22215
843.069	21960
843.206	22093
843.343	22093
843.479	22147
843.616	22124
843.752	21876
843.889	22002
844.025	22010
844.162	21804
844.298	21972
844.435	21816
844.571	21857
844.708	21930
844.844	22040
844.98	21953
845.117	21930
845.253	21831
845.389	21755
845.525	21770
845.661	21663
845.798	21618
845.934	21797
846.07	21534
846.206	21850
846.342	21736
846.478	21743
846.614	21351
846.75	21260
846.886	21275
847.022	21287
847.158	21382
847.294	21332
847.429	21454
847.565	21332
847.701	21500
847.837	21116
847.972	21009
848.108	21272
848.244	21233
848.379	20971
848.515	20891
848.65	20842
848.786	21138
848.921	20941
849.057	20982
849.192	21043
849.328	20921
849.463	20982
849.598	20937
849.734	20765
849.869	20777
850.004	20807
850.14	20686
850.275	20769
850.41	20617
850.545	20575
850.68	20609
850.815	20743
850.95	20648
851.085	20830
851.22	20887
851.355	20716
851.49	20689
851.625	20659
851.76	20712
851.895	20689
852.03	20590
852.165	20564
852.299	20708
852.434	20739
852.569	20613
852.703	20712
852.838	20727
852.973	20868
853.107	20880
853.242	20640
853.376	20587
853.511	20431
853.645	20549
853.78	20617
853.914	20511
854.048	20522
854.183	20514
854.317	20541
854.451	20758
854.585	20556
854.72	20609
854.854	20648
854.988	20511
855.122	20518
855.256	20427
855.39	20507
855.524	20629
855.658	20533
855.792	20602
855.926	20606
856.06	20457
856.194	20659
856.327	20590
856.461	20469
856.595	20457
856.729	20377
856.862	20602
856.996	20606
857.13	20522
857.263	20693
857.397	20571
857.53	20552
857.664	20579
857.797	20708
857.931	20568
858.064	20564
858.197	20712
858.331	20427
858.464	20507
858.597	20450
858.731	20571
858.864	20564
858.997	20431
859.13	20393
859.263	20457
859.396	20613
859.529	20594
859.662	20480
859.795	20621
859.928	20587
860.061	20689
860.194	20689
860.327	20670
860.46	20598
860.592	20670
860.725	20648
860.858	20674
860.99	20408
861.123	20450
861.256	20427
861.388	20587
861.521	21074
861.653	20419
861.786	20336
861.918	20431
862.05	20309
862.183	20381
862.315	20579
862.447	20670
862.58	20522
862.712	20393
862.844	20309
862.976	20343
863.108	20389
863.24	20613
863.372	20237
863.504	20229
863.636	20221
863.768	20244
863.9	20233
864.032	20130
864.164	20286
864.296	20324
864.428	20313
864.559	20206
864.691	20339
864.823	20145
864.954	20248
865.086	20210
865.217	20157
865.349	20142
865.48	20130
865.612	20126
865.743	20282
865.875	20221
866.006	20145
866.137	20107
866.269	20218
866.4	20153
866.531	20119
866.662	20050
866.793	20046
866.924	20134
867.055	20157
867.186	20012
867.317	20039
867.448	20050
867.579	20111
867.71	20157
867.841	19982
867.972	20100
868.103	20024
868.233	20084
868.364	20153
868.495	20164
868.625	20301
868.756	20404
868.886	20210
869.017	20423
869.147	20400
869.278	20469
869.408	20457
869.539	20457
869.669	20446
869.799	20465
869.929	20457
870.06	20503
870.19	20613
870.32	20655
870.45	20621
870.58	20800
870.71	20792
870.84	20819
870.97	20705
871.1	20659
871.23	20929
871.36	20876
871.489	20845
871.619	20902
871.749	20956
871.879	21001
872.008	21001
872.138	20963
872.267	20967
872.397	20830
872.526	20762
872.656	20792
872.785	20689
872.915	21077
873.044	21047
873.173	20899
873.303	21119
873.432	20998
873.561	21066
873.69	20967
873.819	20963
873.948	20975
874.077	21005
874.206	21039
874.335	20979
874.464	21058
874.593	21184
874.722	21138
874.851	21135
874.979	21363
875.108	21336
875.237	21207
875.365	21142
875.494	21089
875.623	21355
875.751	21317
875.88	21165
876.008	21279
876.136	21469
876.265	21545
876.393	21747
876.521	21686
876.65	21770
876.778	21564
876.906	21530
877.034	21481
877.162	21648
877.29	21530
877.418	21492
877.546	21572
877.674	21526
877.802	21557
877.93	21492
878.058	21610
878.185	21439
878.313	21393
878.441	21481
878.568	21462
878.696	21534
878.824	21576
878.951	21454
879.079	21717
879.206	21816
879.333	21686
879.461	21656
879.588	21690
879.715	21713
879.842	21842
879.97	21652
880.097	21348
880.224	21325
880.351	21435
880.478	21534
880.605	21378
880.732	21389
880.859	21568
880.986	21431
881.112	21389
881.239	21260
881.366	21135
881.493	21028
881.619	20998
881.746	20956
881.872	21032
881.999	20998
882.125	20906
882.252	20872
882.378	20925
882.505	21180
882.631	20948
882.757	20682
882.883	20762
883.01	20708
883.136	20705
883.262	20526
883.388	20556
883.514	20613
883.64	20781
883.766	20648
883.892	20457
884.018	20442
884.143	20754
884.269	20705
884.395	20381
884.52	20324
884.646	20442
884.772	20385
884.897	20183
885.023	20320
885.148	20381
885.274	20499
885.399	20469
885.524	20271
885.65	20370
885.775	20294
885.9	20317
886.025	20434
886.15	20476
886.275	20294
886.4	20145
886.525	20332
886.65	20176
886.775	20267
886.9	20473
887.025	20434
887.149	20336
887.274	20046
887.399	20134
887.523	20225
887.648	20043
887.773	20031
887.897	20210
888.021	20172
888.146	20157
888.27	20225
888.395	20115
888.519	20096
888.643	20020
888.767	20164
888.891	20062
889.015	19894
889.139	19947
889.263	19925
889.387	20035
889.511	20081
889.635	20062
889.759	19807
889.883	19890
890.006	19963
890.13	20031
890.254	19708
890.377	19879
890.501	19715
890.624	19677
890.748	19704
890.871	19681
890.995	19476
891.118	19331
891.241	19571
891.364	19457
891.488	19567
891.611	19449
891.734	19457
891.857	19548
891.98	19559
892.103	19529
892.226	19506
892.349	19460
892.471	19312
892.594	19537
892.717	19502
892.839	19460
892.962	19468
893.085	19457
893.207	19510
893.33	19358
893.452	19301
893.575	19457
893.697	19327
893.819	19613
893.941	19495
894.064	19514
894.186	19384
894.308	19289
894.43	19438
894.552	19460
894.674	19483
894.796	19392
894.918	19316
895.04	19388
895.161	19453
895.283	19365
895.405	19343
895.526	19373
895.648	19400
895.769	19525
895.891	19457
896.012	19480
896.134	19537
896.255	19377
896.376	19350
896.498	19403
896.619	19411
896.74	19457
896.861	19377
896.982	19856
897.103	19780
897.224	19685
897.345	19632
897.466	19540
897.587	19590
897.708	19799
897.828	19776
897.949	19635
898.07	19464
898.19	19578
898.311	19727
898.431	19597
898.552	19620
898.672	19738
898.792	19742
898.913	19719
899.033	19590
899.153	19521
899.273	19343
899.393	19468
899.513	19533
899.633	19438
899.753	19468
899.873	19400
899.993	19472
900.113	19388
900.232	19422
900.352	19365
900.472	19175
900.591	19312
900.711	19217
900.83	19137
900.95	19354
901.069	19270
901.189	19107
901.308	18882
901.427	18829
901.546	18772
901.665	18768
901.784	18802
901.904	18585
902.023	18646
902.141	18346
902.26	18330
902.379	18407
902.498	18300
902.617	18311
902.735	18437
902.854	18251
902.973	18194
903.091	17996
903.21	17984
903.328	17999
903.446	17866
903.565	17783
903.683	17847
903.801	17687
903.919	17824
904.038	17764
904.156	17665
904.274	17729
904.392	17661
904.51	17581
904.627	17566
904.745	17733
904.863	17543
904.981	17318
905.098	17280
905.216	17273
905.334	17296
905.451	17277
905.569	17204
905.686	17349
905.803	17155
905.921	16972
906.038	17193
906.155	17052
906.272	16904
906.389	16919
906.506	16793
906.623	16854
906.74	16873
906.857	16637
906.974	16622
907.091	16809
907.208	16889
907.324	16824
907.441	16672
907.557	16542
907.674	16603
907.79	16542
907.907	16459
908.023	16508
908.139	16493
908.256	16500
908.372	16470
908.488	16417
908.604	16306
908.72	16219
908.836	16246
908.952	16188
909.068	16276
909.184	16344
909.3	16234
909.415	16249
909.531	16268
909.647	15987
909.762	15903
909.878	15941
909.993	15930
910.108	15922
910.224	15960
910.339	15941
910.454	15816
910.57	15800
910.685	15644
910.8	15899
910.915	15960
911.03	15641
911.145	15614
911.259	15606
911.374	15564
911.489	15428
911.604	15443
911.718	15389
911.833	15344
911.947	15203
912.062	15077
912.176	15287
912.291	15298
912.405	15355
912.519	15557
912.633	15530
912.748	15294
912.862	15348
912.976	15123
913.09	15020
913.204	15085
913.318	15154
913.431	15291
913.545	15329
913.659	15272
913.772	15058
913.886	15051
914	14952
914.113	15032
914.226	15070
914.34	15036
914.453	14902
914.566	15013
914.68	14750
914.793	14830
914.906	14651
915.019	14617
915.132	14556
915.245	14556
915.358	14537
915.47	14632
915.583	14648
915.696	14545
915.809	14560
915.921	14640
916.034	14488
916.146	14473
916.259	14427
916.371	14404
916.483	14507
916.595	14358
916.708	14415
916.82	14317
916.932	14400
917.044	14370
917.156	14286
917.268	14229
917.38	14237
917.491	14119
917.603	14183
917.715	14286
917.826	14415
917.938	14161
918.049	14031
918.161	14214
918.272	14286
918.384	14286
918.495	14229
918.606	14138
918.717	13925
918.828	14035
918.939	13947
919.05	13906
919.161	14005
919.272	13833
919.383	13852
919.494	14096
919.604	14252
919.715	14096
919.826	13841
919.936	13974
920.047	14020
920.157	13982
920.267	14187
920.378	13970
920.488	13936
920.598	14157
920.708	14271
920.818	14111
920.928	14077
921.038	14161
921.148	14324
921.258	13974
921.368	13845
921.477	13662
921.587	13712
921.697	13445
921.806	13795
921.916	13502
922.025	13499
922.134	13396
922.244	13388
922.353	13438
922.462	13225
922.571	13110
922.68	13065
922.789	12996
922.898	13057
923.007	12913
923.116	12951
923.224	13008
923.333	12939
923.442	12909
923.55	12890
923.659	12871
923.767	12920
923.876	12795
923.984	12859
924.092	12703
924.201	12863
924.309	12878
924.417	12856
924.525	12688
924.633	12700
924.741	13658
924.849	12601
924.956	12715
925.064	12464
925.172	12418
925.279	12437
925.387	12517
925.494	12441
925.602	12566
925.709	12563
925.816	12346
925.924	12445
926.031	12498
926.138	12311
926.245	12395
926.352	12338
926.459	12433
926.566	12403
926.673	12311
926.779	12353
926.886	12285
926.993	12019
927.099	12015
927.206	11988
927.312	12053
927.419	12114
927.525	12091
927.631	12064
927.737	12007
927.843	11977
927.95	11775
928.056	11882
928.162	11863
928.267	11923
928.373	12517
928.479	11946
928.585	11726
928.69	11821
928.796	11882
928.901	11748
929.007	11611
929.112	11729
929.218	11722
929.323	11665
929.428	11535
929.533	11783
929.638	11512
929.743	11562
929.848	11570
929.953	11573
930.058	11372
930.163	11265
930.267	11288
930.372	11478
930.477	11159
930.581	11463
930.685	11383
930.79	11197
930.894	11181
930.998	11185
931.103	11330
931.207	11010
931.311	10927
931.415	10797
931.519	10615
931.623	10618
