Data from test_V78500241_2913.txt Node
Date: Fri Mar 25 15:30:08 CST 2022
User: usil
Spectrometer: V785-0024
Trigger mode: 0
Integration Time (sec): 4.000000E-1
Scans to average: 1
Nonlinearity correction enabled: false
Boxcar width: 0
Storing dark spectrum: false
XAxis mode: Wavelengths
Number of Pixels in Spectrum: 1024
>>>>>Begin Spectral Data<<<<<
801.071	27237
801.214	27161
801.356	26986
801.499	26838
801.641	26819
801.783	26845
801.926	26769
802.068	26826
802.211	26651
802.353	26674
802.496	26583
802.638	26412
802.78	26438
802.923	26233
803.065	26240
803.208	26237
803.35	26511
803.492	26663
803.635	26545
803.777	26358
803.919	26667
804.061	26994
804.204	26568
804.346	26396
804.488	26457
804.63	26537
804.773	26537
804.915	26670
805.057	26701
805.199	26632
805.341	26667
805.483	26571
805.626	26792
805.768	26514
805.91	26716
806.052	26708
806.194	26598
806.336	26838
806.478	26629
806.62	26545
806.762	26708
806.904	26918
807.046	27062
807.188	27108
807.33	27237
807.472	27165
807.614	26971
807.756	27062
807.898	26921
808.04	26857
808.182	26800
808.324	27001
808.465	27077
808.607	27081
808.749	27424
808.891	27382
809.033	27519
809.174	27298
809.316	27283
809.458	27313
809.6	27340
809.741	27370
809.883	27397
810.025	27473
810.166	27660
810.308	27603
810.45	27458
810.591	27591
810.733	27431
810.875	27256
811.016	27173
811.158	27119
811.299	27469
811.441	27523
811.582	27496
811.724	27249
811.865	27207
812.007	27165
812.148	27222
812.29	27310
812.431	27485
812.573	27454
812.714	27644
812.855	27804
812.997	27903
813.138	27998
813.279	27964
813.421	27766
813.562	27690
813.703	27675
813.845	27462
813.986	27180
814.127	27043
814.268	26960
814.41	26986
814.551	26990
814.692	27013
814.833	26819
814.974	26918
815.115	26975
815.256	26796
815.397	26864
815.539	26864
815.68	26838
815.821	26682
815.962	26674
816.103	26686
816.244	26442
816.385	26366
816.526	26412
816.666	26252
816.807	26282
816.948	26237
817.089	26267
817.23	26233
817.371	26157
817.512	26161
817.653	26111
817.793	26035
817.934	26142
818.075	26218
818.216	26233
818.356	26172
818.497	25970
818.638	25944
818.778	25898
818.919	25894
819.06	25921
819.2	26206
819.341	26096
819.481	26206
819.622	26511
819.762	26499
819.903	26583
820.043	26389
820.184	26366
820.324	26199
820.465	26347
820.605	26286
820.746	26320
820.886	26153
821.026	26324
821.167	26172
821.307	26240
821.447	26199
821.588	26103
821.728	25940
821.868	25822
822.008	25662
822.149	25670
822.289	25597
822.429	25301
822.569	25175
822.709	25259
822.849	25175
822.99	25088
823.13	25187
823.27	24966
823.41	25091
823.55	24943
823.69	24943
823.83	24916
823.97	25031
824.11	24840
824.25	24783
824.389	24787
824.529	24795
824.669	24814
824.809	24806
824.949	24882
825.089	24916
825.228	24726
825.368	24661
825.508	24631
825.648	24612
825.787	24768
825.927	24764
826.067	24661
826.206	24513
826.346	24814
826.485	24726
826.625	24582
826.765	24783
826.904	24726
827.044	24448
827.183	24327
827.323	24376
827.462	24361
827.601	24300
827.741	24384
827.88	24292
828.02	24110
828.159	24304
828.298	24342
828.437	24323
828.577	24270
828.716	24486
828.855	24186
828.994	24045
829.134	24091
829.273	24060
829.412	23999
829.551	23958
829.69	24007
829.829	24095
829.968	24163
830.107	24155
830.246	24018
830.385	23832
830.524	23874
830.663	23809
830.802	23874
830.941	23638
831.08	23581
831.219	23828
831.357	23726
831.496	23870
831.635	23703
831.774	23554
831.913	23551
832.051	23360
832.19	23296
832.329	23471
832.467	23387
832.606	23311
832.744	23204
832.883	23410
833.022	23212
833.16	23280
833.299	23296
833.437	23318
833.576	23250
833.714	23379
833.852	23459
833.991	23406
834.129	23391
834.267	23471
834.406	23383
834.544	23398
834.682	23265
834.821	23318
834.959	23398
835.097	23509
835.235	23334
835.373	23391
835.511	23242
835.65	23223
835.788	23261
835.926	23181
836.064	22968
836.202	23136
836.34	23265
836.478	23121
836.615	23113
836.753	23090
836.891	23288
837.029	23250
837.167	23105
837.305	23064
837.443	22961
837.58	23003
837.718	23258
837.856	23102
837.993	22972
838.131	23006
838.269	22889
838.406	22968
838.544	22896
838.681	22793
838.819	22588
838.956	22493
839.094	22497
839.231	22500
839.369	22615
839.506	22862
839.643	22771
839.781	22489
839.918	22466
840.055	22577
840.193	22462
840.33	22352
840.467	22573
840.604	22413
840.742	22645
840.879	22428
841.016	22421
841.153	22325
841.29	22447
841.427	22405
841.564	22424
841.701	22455
841.838	22531
841.975	22325
842.112	22348
842.249	22314
842.385	22059
842.522	22409
842.659	22215
842.796	22185
842.933	22086
843.069	22238
843.206	22158
843.343	22276
843.479	22067
843.616	22139
843.752	22112
843.889	22017
844.025	22112
844.162	21918
844.298	21960
844.435	22025
844.571	22067
844.708	22109
844.844	22158
844.98	22040
845.117	22128
845.253	21922
845.389	21831
845.525	21800
845.661	21793
845.798	21766
845.934	21797
846.07	21648
846.206	21747
846.342	21846
846.478	21720
846.614	21462
846.75	21443
846.886	21523
847.022	21549
847.158	21439
847.294	21469
847.429	21488
847.565	21412
847.701	21736
847.837	21203
847.972	21077
848.108	21291
848.244	21233
848.379	21062
848.515	21161
848.65	20967
848.786	20998
848.921	20906
849.057	21218
849.192	21161
849.328	21077
849.463	20941
849.598	21112
849.734	20933
849.869	20842
850.004	20826
850.14	20792
850.275	20975
850.41	20811
850.545	20735
850.68	20777
850.815	20731
850.95	20891
851.085	20910
851.22	20990
851.355	20868
851.49	20830
851.625	20716
851.76	20895
851.895	20720
852.03	20644
852.165	20762
852.299	20853
852.434	20914
852.569	20830
852.703	20838
852.838	20727
852.973	20895
853.107	20902
853.242	20686
853.376	20667
853.511	20503
853.645	20564
853.78	20838
853.914	20659
854.048	20488
854.183	20518
854.317	20613
854.451	20777
854.585	20659
854.72	20629
854.854	20667
854.988	20526
855.122	20667
855.256	20533
855.39	20598
855.524	20659
855.658	20644
855.792	20571
855.926	20769
856.06	20636
856.194	20720
856.327	20541
856.461	20640
856.595	20484
856.729	20667
856.862	20758
856.996	20765
857.13	20716
857.263	20861
857.397	20724
857.53	20537
857.664	20613
857.797	20602
857.931	20712
858.064	20564
858.197	20758
858.331	20609
858.464	20552
858.597	20465
858.731	20625
858.864	20590
858.997	20609
859.13	20689
859.263	20705
859.396	20663
859.529	20617
859.662	20613
859.795	20499
859.928	20712
860.061	20819
860.194	20845
860.327	20716
860.46	20537
860.592	20693
860.725	20724
860.858	20781
860.99	20648
861.123	20602
861.256	20499
861.388	20621
861.521	21146
861.653	20457
861.786	20328
861.918	20336
862.05	20617
862.183	20533
862.315	20575
862.447	20587
862.58	20514
862.712	20438
862.844	20206
862.976	20495
863.108	20400
863.24	20682
863.372	20191
863.504	20362
863.636	20324
863.768	20385
863.9	20393
864.032	20244
864.164	20324
864.296	20374
864.428	20393
864.559	20469
864.691	20480
864.823	20343
864.954	20385
865.086	20336
865.217	20244
865.349	20149
865.48	20298
865.612	20202
865.743	20400
865.875	20172
866.006	20214
866.137	20199
866.269	20229
866.4	20229
866.531	20122
866.662	20065
866.793	20244
866.924	20164
867.055	20221
867.186	20218
867.317	20077
867.448	20149
867.579	20062
867.71	20084
867.841	19955
867.972	20161
868.103	20073
868.233	20282
868.364	20103
868.495	20328
868.625	20503
868.756	20564
868.886	20381
869.017	20419
869.147	20499
869.278	20587
869.408	20427
869.539	20461
869.669	20484
869.799	20313
869.929	20552
870.06	20518
870.19	20754
870.32	20819
870.45	20792
870.58	20868
870.71	20880
870.84	20788
870.97	20868
871.1	20834
871.23	21032
871.36	20941
871.489	20963
871.619	21036
871.749	20971
871.879	21013
872.008	21195
872.138	21146
872.267	21032
872.397	20899
872.526	20906
872.656	20845
872.785	20830
872.915	21070
873.044	21070
873.173	21085
873.303	21138
873.432	21245
873.561	21074
873.69	20948
873.819	21005
873.948	21203
874.077	21150
874.206	20971
874.335	21001
874.464	21188
874.593	21272
874.722	21298
874.851	21344
874.979	21321
875.108	21279
875.237	21233
875.365	21184
875.494	21302
875.623	21317
875.751	21279
875.88	21245
876.008	21469
876.136	21447
876.265	21690
876.393	21789
876.521	21686
876.65	21831
876.778	21633
876.906	21618
877.034	21641
877.162	21736
877.29	21671
877.418	21580
877.546	21618
877.674	21637
877.802	21580
877.93	21686
878.058	21618
878.185	21557
878.313	21538
878.441	21667
878.568	21530
878.696	21526
878.824	21583
878.951	21667
879.079	21922
879.206	22048
879.333	21873
879.461	21728
879.588	21888
879.715	21724
879.842	21918
879.97	21739
880.097	21435
880.224	21500
880.351	21572
880.478	21561
880.605	21382
880.732	21454
880.859	21595
880.986	21469
881.112	21545
881.239	21332
881.366	21199
881.493	21081
881.619	21039
881.746	21051
881.872	20868
881.999	21051
882.125	21036
882.252	21127
882.378	21085
882.505	21211
882.631	21043
882.757	20826
882.883	20773
883.01	20891
883.136	20796
883.262	20663
883.388	20579
883.514	20712
883.64	20727
883.766	20598
883.892	20609
884.018	20648
884.143	20724
884.269	20731
884.395	20423
884.52	20461
884.646	20400
884.772	20415
884.897	20431
885.023	20457
885.148	20450
885.274	20579
885.399	20480
885.524	20423
885.65	20396
885.775	20514
885.9	20332
886.025	20537
886.15	20412
886.275	20309
886.4	20408
886.525	20381
886.65	20233
886.775	20214
886.9	20492
887.025	20480
887.149	20427
887.274	20142
887.399	20126
887.523	20149
887.648	20191
887.773	20126
887.897	20263
888.021	20218
888.146	20115
888.27	20290
888.395	20221
888.519	20164
888.643	20210
888.767	20119
888.891	20092
889.015	20107
889.139	19936
889.263	19970
889.387	20107
889.511	20259
889.635	20225
889.759	20077
889.883	20008
890.006	20065
890.13	20069
890.254	19906
890.377	19925
890.501	19700
890.624	19662
890.748	19746
890.871	19620
890.995	19544
891.118	19578
891.241	19533
891.364	19540
891.488	19613
891.611	19495
891.734	19578
891.857	19537
891.98	19525
892.103	19639
892.226	19521
892.349	19422
892.471	19278
892.594	19476
892.717	19495
892.839	19419
892.962	19567
893.085	19506
893.207	19487
893.33	19422
893.452	19388
893.575	19624
893.697	19381
893.819	19666
893.941	19765
894.064	19658
894.186	19533
894.308	19240
894.43	19575
894.552	19601
894.674	19582
894.796	19453
894.918	19453
895.04	19445
895.161	19506
895.283	19647
895.405	19464
895.526	19457
895.648	19457
895.769	19559
895.891	19529
896.012	19590
896.134	19480
896.255	19491
896.376	19403
896.498	19510
896.619	19571
896.74	19495
896.861	19537
896.982	19879
897.103	19997
897.224	19753
897.345	19700
897.466	19719
897.587	19719
897.708	19818
897.828	19734
897.949	19746
898.07	19674
898.19	19772
898.311	19776
898.431	19597
898.552	19811
898.672	19784
898.792	19776
898.913	19757
899.033	19563
899.153	19445
899.273	19544
899.393	19483
899.513	19609
899.633	19533
899.753	19506
899.873	19533
899.993	19460
900.113	19483
900.232	19396
900.352	19415
900.472	19247
900.591	19289
900.711	19327
900.83	19289
900.95	19324
901.069	19339
901.189	19225
901.308	18844
901.427	19031
901.546	18825
901.665	18939
901.784	18901
901.904	18745
902.023	18741
902.141	18388
902.26	18441
902.379	18517
902.498	18429
902.617	18300
902.735	18426
902.854	18323
902.973	18251
903.091	18114
903.21	18110
903.328	17969
903.446	18019
903.565	17904
903.683	17821
903.801	17824
903.919	17794
904.038	17752
904.156	17573
904.274	17752
904.392	17729
904.51	17592
904.627	17699
904.745	17707
904.863	17798
904.981	17433
905.098	17280
905.216	17254
905.334	17299
905.451	17269
905.569	17315
905.686	17345
905.803	17269
905.921	17056
906.038	17193
906.155	17212
906.272	16995
906.389	17003
906.506	16911
906.623	16843
906.74	16889
906.857	16866
906.974	16748
907.091	16858
907.208	17022
907.324	16915
907.441	16809
907.557	16675
907.674	16588
907.79	16516
907.907	16535
908.023	16683
908.139	16481
908.256	16538
908.372	16455
908.488	16409
908.604	16310
908.72	16272
908.836	16428
908.952	16310
909.068	16318
909.184	16341
909.3	16257
909.415	16333
909.531	16303
909.647	16055
909.762	16013
909.878	15998
909.993	15972
910.108	15865
910.224	15918
910.339	15915
910.454	15861
910.57	15892
910.685	15766
910.8	16017
910.915	15953
911.03	15873
911.145	15641
911.259	15622
911.374	15587
911.489	15644
911.604	15416
911.718	15382
911.833	15351
911.947	15298
912.062	15260
912.176	15370
912.291	15435
912.405	15424
912.519	15603
912.633	15580
912.748	15325
912.862	15367
912.976	15199
913.09	15081
913.204	15249
913.318	15184
913.431	15207
913.545	15321
913.659	15264
913.772	15062
913.886	14998
914	15017
914.113	15119
914.226	15135
914.34	14986
914.453	14769
914.566	15020
914.68	14941
914.793	14845
914.906	14617
915.019	14632
915.132	14545
915.245	14670
915.358	14606
915.47	14625
915.583	14613
915.696	14686
915.809	14739
915.921	14758
916.034	14533
916.146	14484
916.259	14488
916.371	14556
916.483	14617
916.595	14461
916.708	14575
916.82	14408
916.932	14423
917.044	14457
917.156	14339
917.268	14278
917.38	14328
917.491	14263
917.603	14317
917.715	14442
917.826	14366
917.938	14157
918.049	14077
918.161	14237
918.272	14351
918.384	14313
918.495	14278
918.606	14103
918.717	13921
918.828	14142
918.939	14073
919.05	14027
919.161	14031
919.272	13845
919.383	13887
919.494	14138
919.604	14218
919.715	14001
919.826	13894
919.936	14039
920.047	14123
920.157	14046
920.267	14183
920.378	13974
920.488	14088
920.598	14176
920.708	14381
920.818	14214
920.928	14161
921.038	14320
921.148	14301
921.258	13986
921.368	13944
921.477	13818
921.587	13734
921.697	13761
921.806	13818
921.916	13689
922.025	13586
922.134	13396
922.244	13426
922.353	13377
922.462	13331
922.571	13156
922.68	12996
922.789	13065
922.898	13156
923.007	13004
923.116	13122
923.224	12962
923.333	13023
923.442	12962
923.55	12913
923.659	12924
923.767	12966
923.876	12878
923.984	13000
924.092	12859
924.201	12878
924.309	12753
924.417	12859
924.525	12730
924.633	12779
924.741	13655
924.849	12574
924.956	12642
925.064	12574
925.172	12509
925.279	12597
925.387	12616
925.494	12532
925.602	12688
925.709	12551
925.816	12422
925.924	12597
926.031	12471
926.138	12509
926.245	12513
926.352	12361
926.459	12536
926.566	12547
926.673	12486
926.779	12296
926.886	12266
926.993	12171
927.099	12098
927.206	12079
927.312	12095
927.419	12136
927.525	12076
927.631	12167
927.737	12030
927.843	11988
927.95	11775
928.056	11946
928.162	11961
928.267	11954
928.373	12570
928.479	12030
928.585	11855
928.69	11920
928.796	11961
928.901	11764
929.007	11649
929.112	11794
929.218	11771
929.323	11699
929.428	11703
929.533	11908
929.638	11649
929.743	11672
929.848	11638
929.953	11535
930.058	11509
930.163	11372
930.267	11383
930.372	11524
930.477	11303
930.581	11509
930.685	11459
930.79	11227
930.894	11303
930.998	11261
931.103	11376
931.207	10991
931.311	11010
931.415	10919
931.519	10710
931.623	10637
