Data from test_V78500241_2007.txt Node
Date: Fri Mar 25 15:23:50 CST 2022
User: usil
Spectrometer: V785-0024
Trigger mode: 0
Integration Time (sec): 4.000000E-1
Scans to average: 1
Nonlinearity correction enabled: false
Boxcar width: 0
Storing dark spectrum: false
XAxis mode: Wavelengths
Number of Pixels in Spectrum: 1024
>>>>>Begin Spectral Data<<<<<
801.071	27713
801.214	27739
801.356	27580
801.499	27458
801.641	27249
801.783	27325
801.926	27454
802.068	27389
802.211	27260
802.353	27154
802.496	26933
802.638	26891
802.78	27032
802.923	26899
803.065	26823
803.208	26940
803.35	26861
803.492	27138
803.635	27108
803.777	26899
803.919	27154
804.061	27382
804.204	27264
804.346	27138
804.488	27093
804.63	27127
804.773	27055
804.915	27123
805.057	27249
805.199	27131
805.341	27169
805.483	27367
805.626	27260
805.768	27119
805.91	27252
806.052	27401
806.194	27184
806.336	27507
806.478	27313
806.62	27169
806.762	27507
806.904	27553
807.046	27694
807.188	27720
807.33	27671
807.472	27618
807.614	27603
807.756	27701
807.898	27564
808.04	27469
808.182	27622
808.324	27557
808.465	27572
808.607	27789
808.749	28013
808.891	27991
809.033	28025
809.174	27892
809.316	27914
809.458	27888
809.6	27823
809.741	27991
809.883	27941
810.025	28147
810.166	28158
810.308	28116
810.45	28215
810.591	28120
810.733	27964
810.875	27895
811.016	27709
811.158	27930
811.299	27972
811.441	28067
811.582	27994
811.724	28002
811.865	27751
812.007	27804
812.148	27835
812.29	27956
812.431	28139
812.573	28196
812.714	28272
812.855	28413
812.997	28504
813.138	28599
813.279	28519
813.421	28333
813.562	28394
813.703	28234
813.845	27983
813.986	27770
814.127	27644
814.268	27625
814.41	27625
814.551	27625
814.692	27774
814.833	27538
814.974	27644
815.115	27561
815.256	27424
815.397	27439
815.539	27401
815.68	27279
815.821	27363
815.962	27329
816.103	27382
816.244	27268
816.385	27089
816.526	27150
816.666	27017
816.807	26857
816.948	26891
817.089	26914
817.23	26891
817.371	26834
817.512	26899
817.653	26857
817.793	26758
817.934	26857
818.075	26925
818.216	26971
818.356	26883
818.497	26762
818.638	26537
818.778	26625
818.919	26590
819.06	26819
819.2	26663
819.341	26792
819.481	26807
819.622	26921
819.762	27252
819.903	27123
820.043	27028
820.184	27066
820.324	27096
820.465	26994
820.605	27009
820.746	26960
820.886	26899
821.026	26952
821.167	26971
821.307	26883
821.447	26895
821.588	26826
821.728	26621
821.868	26473
822.008	26423
822.149	26320
822.289	26332
822.429	26134
822.569	25955
822.709	26073
822.849	25928
822.99	25788
823.13	25746
823.27	25727
823.41	25655
823.55	25597
823.69	25769
823.83	25723
823.97	25620
824.11	25430
824.25	25483
824.389	25362
824.529	25510
824.669	25548
824.809	25518
824.949	25624
825.089	25613
825.228	25613
825.368	25202
825.508	25327
825.648	25343
825.787	25365
825.927	25335
826.067	25255
826.206	25320
826.346	25358
826.485	25354
826.625	25297
826.765	25491
826.904	25263
827.044	25133
827.183	25126
827.323	25046
827.462	25122
827.601	25126
827.741	25107
827.88	25145
828.02	24928
828.159	25012
828.298	25015
828.437	25034
828.577	25129
828.716	25103
828.855	24798
828.994	24642
829.134	24639
829.273	24715
829.412	24589
829.551	24734
829.69	24863
829.829	24840
829.968	24821
830.107	24958
830.246	24688
830.385	24715
830.524	24658
830.663	24547
830.802	24502
830.941	24224
831.08	24399
831.219	24403
831.357	24395
831.496	24620
831.635	24323
831.774	24262
831.913	24247
832.051	24167
832.19	24144
832.329	24076
832.467	24079
832.606	24026
832.744	23904
832.883	23954
833.022	24007
833.16	24110
833.299	24129
833.437	24117
833.576	24144
833.714	24114
833.852	24327
833.991	24167
834.129	24171
834.267	24197
834.406	24163
834.544	24022
834.682	23996
834.821	24041
834.959	24251
835.097	23904
835.235	24129
835.373	24057
835.511	24102
835.65	24064
835.788	23927
835.926	23771
836.064	23824
836.202	23824
836.34	23939
836.478	24018
836.615	23984
836.753	23942
836.891	23935
837.029	23992
837.167	23851
837.305	23752
837.443	23798
837.58	23726
837.718	23866
837.856	23798
837.993	23718
838.131	23840
838.269	23543
838.406	23718
838.544	23665
838.681	23406
838.819	23406
838.956	23162
839.094	23273
839.231	23410
839.369	23452
839.506	23649
839.643	23509
839.781	23208
839.918	23220
840.055	23292
840.193	23147
840.33	23189
840.467	23132
840.604	23239
840.742	23387
840.879	23010
841.016	23132
841.153	23105
841.29	23193
841.427	23132
841.564	23121
841.701	23239
841.838	23121
841.975	23037
842.112	23022
842.249	22987
842.385	22904
842.522	23056
842.659	22995
842.796	22812
842.933	22908
843.069	22915
843.206	22881
843.343	22915
843.479	22869
843.616	22911
843.752	22713
843.889	22679
844.025	22786
844.162	22752
844.298	22869
844.435	22831
844.571	22675
844.708	22771
844.844	22805
844.98	22866
845.117	22847
845.253	22618
845.389	22557
845.525	22542
845.661	22512
845.798	22344
845.934	22413
846.07	22367
846.206	22504
846.342	22508
846.478	22436
846.614	22192
846.75	22124
846.886	22265
847.022	22284
847.158	22230
847.294	22097
847.429	22200
847.565	22166
847.701	22325
847.837	22059
847.972	21895
848.108	22109
848.244	22002
848.379	21800
848.515	21709
848.65	21762
848.786	21663
848.921	21816
849.057	21869
849.192	21808
849.328	21743
849.463	21682
849.598	21690
849.734	21644
849.869	21625
850.004	21469
850.14	21458
850.275	21458
850.41	21466
850.545	21408
850.68	21443
850.815	21663
850.95	21443
851.085	21743
851.22	21682
851.355	21515
851.49	21435
851.625	21462
851.76	21473
851.895	21454
852.03	21466
852.165	21397
852.299	21568
852.434	21587
852.569	21561
852.703	21580
852.838	21625
852.973	21694
853.107	21675
853.242	21272
853.376	21340
853.511	21146
853.645	21393
853.78	21370
853.914	21386
854.048	21378
854.183	21443
854.317	21272
854.451	21572
854.585	21378
854.72	21405
854.854	21481
854.988	21150
855.122	21408
855.256	21230
855.39	21321
855.524	21313
855.658	21408
855.792	21389
855.926	21351
856.06	21466
856.194	21561
856.327	21348
856.461	21287
856.595	21298
856.729	21313
856.862	21412
856.996	21450
857.13	21272
857.263	21401
857.397	21351
857.53	21332
857.664	21389
857.797	21332
857.931	21458
858.064	21378
858.197	21321
858.331	21272
858.464	21279
858.597	21173
858.731	21237
858.864	21317
858.997	21138
859.13	21313
859.263	21367
859.396	21408
859.529	21367
859.662	21291
859.795	21207
859.928	21367
860.061	21530
860.194	21485
860.327	21412
860.46	21298
860.592	21466
860.725	21454
860.858	21378
860.99	21408
861.123	21302
861.256	21310
861.388	21268
861.521	21960
861.653	21218
861.786	21009
861.918	21123
862.05	21211
862.183	21310
862.315	21256
862.447	21401
862.58	21256
862.712	21039
862.844	20952
862.976	21077
863.108	21173
863.24	21488
863.372	21005
863.504	20963
863.636	21051
863.768	21142
863.9	20902
864.032	21024
864.164	20967
864.296	21116
864.428	21108
864.559	21055
864.691	21321
864.823	21028
864.954	21039
865.086	21058
865.217	20952
865.349	20834
865.48	20804
865.612	21017
865.743	20963
865.875	21028
866.006	20883
866.137	20994
866.269	20735
866.4	20975
866.531	20910
866.662	20948
866.793	20811
866.924	20834
867.055	20979
867.186	20887
867.317	20941
867.448	20769
867.579	20933
867.71	20902
867.841	20788
867.972	20937
868.103	20921
868.233	20815
868.364	20868
868.495	21058
868.625	21165
868.756	21241
868.886	21043
869.017	21180
869.147	21112
869.278	21256
869.408	21161
869.539	20971
869.669	21184
869.799	21237
869.929	21104
870.06	21310
870.19	21420
870.32	21332
870.45	21519
870.58	21496
870.71	21614
870.84	21519
870.97	21530
871.1	21587
871.23	21553
871.36	21713
871.489	21603
871.619	21694
871.749	21694
871.879	21667
872.008	21823
872.138	21671
872.267	21618
872.397	21618
872.526	21526
872.656	21595
872.785	21401
872.915	21709
873.044	21842
873.173	21804
873.303	21701
873.432	21816
873.561	21899
873.69	21823
873.819	21606
873.948	21831
874.077	21770
874.206	21648
874.335	21667
874.464	21774
874.593	21922
874.722	21964
874.851	21899
874.979	22017
875.108	21975
875.237	21941
875.365	21918
875.494	21911
875.623	22063
875.751	21873
875.88	21994
876.008	22059
876.136	22154
876.265	22333
876.393	22504
876.521	22402
876.65	22356
876.778	22337
876.906	22295
877.034	22318
877.162	22424
877.29	22192
877.418	22428
877.546	22512
877.674	22413
877.802	22280
877.93	22348
878.058	22432
878.185	22135
878.313	22093
878.441	22280
878.568	22055
878.696	22230
878.824	22306
878.951	22337
879.079	22512
879.206	22607
879.333	22504
879.461	22253
879.588	22371
879.715	22379
879.842	22531
879.97	22390
880.097	22120
880.224	22090
880.351	22230
880.478	22154
880.605	22021
880.732	22101
880.859	22344
880.986	22158
881.112	22150
881.239	21994
881.366	21934
881.493	21819
881.619	21823
881.746	21770
881.872	21682
881.999	21633
882.125	21656
882.252	21732
882.378	21663
882.505	21778
882.631	21545
882.757	21454
882.883	21477
883.01	21431
883.136	21298
883.262	21230
883.388	21325
883.514	21291
883.64	21515
883.766	21336
883.892	21157
884.018	21241
884.143	21336
884.269	21386
884.395	21146
884.52	21005
884.646	21032
884.772	20986
884.897	20925
885.023	21074
885.148	21093
885.274	21245
885.399	21207
885.524	21062
885.65	21093
885.775	21043
885.9	21024
886.025	21051
886.15	21093
886.275	20967
886.4	20842
886.525	20982
886.65	20902
886.775	21005
886.9	21161
887.025	21218
887.149	21100
887.274	20788
887.399	20727
887.523	20834
887.648	20765
887.773	20712
887.897	20883
888.021	20807
888.146	20743
888.27	20906
888.395	20838
888.519	20979
888.643	20838
888.767	20887
888.891	20587
889.015	20629
889.139	20575
889.263	20609
889.387	20712
889.511	20758
889.635	20693
889.759	20431
889.883	20571
890.006	20651
890.13	20651
890.254	20602
890.377	20511
890.501	20396
890.624	20301
890.748	20457
890.871	20252
890.995	20122
891.118	20122
891.241	20199
891.364	20138
891.488	20301
891.611	20256
891.734	20134
891.857	20229
891.98	20164
892.103	20229
892.226	20248
892.349	20199
892.471	19993
892.594	20100
892.717	20103
892.839	20153
892.962	20096
893.085	20142
893.207	20164
893.33	19986
893.452	20005
893.575	20218
893.697	20077
893.819	20237
893.941	20374
894.064	20240
894.186	19967
894.308	19970
894.43	20149
894.552	20149
894.674	20164
894.796	19959
894.918	20035
895.04	20081
895.161	20024
895.283	20161
895.405	20035
895.526	20012
895.648	20126
895.769	20073
895.891	20233
896.012	20187
896.134	20115
896.255	20020
896.376	20031
896.498	20016
896.619	20168
896.74	20058
896.861	20065
896.982	20404
897.103	20556
897.224	20332
897.345	20347
897.466	20142
897.587	20221
897.708	20381
897.828	20339
897.949	20183
898.07	20134
898.19	20278
898.311	20385
898.431	20278
898.552	20278
898.672	20324
898.792	20324
898.913	20347
899.033	20180
899.153	20172
899.273	19970
899.393	20073
899.513	20126
899.633	20016
899.753	20180
899.873	19982
899.993	20031
900.113	19986
900.232	19974
900.352	19917
900.472	19879
900.591	19883
900.711	19750
900.83	19677
900.95	19925
901.069	19883
901.189	19803
901.308	19487
901.427	19377
901.546	19441
901.665	19403
901.784	19339
901.904	19251
902.023	19183
902.141	18943
902.26	19008
902.379	19046
902.498	18962
902.617	18833
902.735	18882
902.854	18962
902.973	18882
903.091	18623
903.21	18639
903.328	18544
903.446	18490
903.565	18388
903.683	18429
903.801	18372
903.919	18300
904.038	18258
904.156	18129
904.274	18239
904.392	18095
904.51	18087
904.627	18178
904.745	18247
904.863	18224
904.981	18026
905.098	17912
905.216	17889
905.334	17813
905.451	17840
905.569	17813
905.686	17859
905.803	17828
905.921	17486
906.038	17653
906.155	17596
906.272	17551
906.389	17535
906.506	17360
906.623	17406
906.74	17440
906.857	17185
906.974	17284
907.091	17532
907.208	17539
907.324	17452
907.441	17208
907.557	17094
907.674	17086
907.79	16984
907.907	17048
908.023	17143
908.139	17006
908.256	16987
908.372	16957
908.488	16919
908.604	16767
908.72	16809
908.836	16869
908.952	16763
909.068	16847
909.184	16927
909.3	16862
909.415	16869
909.531	16877
909.647	16542
909.762	16523
909.878	16440
909.993	16542
910.108	16493
910.224	16493
910.339	16478
910.454	16428
910.57	16379
910.685	16314
910.8	16611
910.915	16402
911.03	16314
911.145	16135
911.259	15953
911.374	16162
911.489	16021
911.604	15941
911.718	15899
911.833	15861
911.947	15713
912.062	15724
912.176	15915
912.291	15816
912.405	15838
912.519	15994
912.633	16040
912.748	15846
912.862	15800
912.976	15778
913.09	15496
913.204	15618
913.318	15713
913.431	15652
913.545	15789
913.659	15766
913.772	15568
913.886	15420
914	15523
914.113	15523
914.226	15580
914.34	15526
914.453	15378
914.566	15439
914.68	15313
914.793	15275
914.906	15123
915.019	15131
915.132	15081
915.245	15058
915.358	15097
915.47	15097
915.583	15039
915.696	15062
915.809	15116
915.921	15230
916.034	15020
916.146	14994
916.259	14933
916.371	14963
916.483	15077
916.595	14838
916.708	14861
916.82	14876
916.932	14838
917.044	14807
917.156	14849
917.268	14826
917.38	14788
917.491	14667
917.603	14815
917.715	14773
917.826	14750
917.938	14712
918.049	14511
918.161	14659
918.272	14769
918.384	14853
918.495	14556
918.606	14583
918.717	14374
918.828	14545
918.939	14419
919.05	14415
919.161	14507
919.272	14225
919.383	14301
919.494	14526
919.604	14720
919.715	14343
919.826	14438
919.936	14461
920.047	14530
920.157	14526
920.267	14644
920.378	14495
920.488	14450
920.598	14651
920.708	14800
920.818	14537
920.928	14503
921.038	14701
921.148	14769
921.258	14484
921.368	14309
921.477	14161
921.587	14123
921.697	14077
921.806	14248
921.916	14062
922.025	13989
922.134	13883
922.244	13791
922.353	13822
922.462	13795
922.571	13639
922.68	13419
922.789	13468
922.898	13445
923.007	13308
923.116	13483
923.224	13430
923.333	13491
923.442	13392
923.55	13236
923.659	13324
923.767	13403
923.876	13266
923.984	13297
924.092	13061
924.201	13316
924.309	13259
924.417	13270
924.525	13179
924.633	13095
924.741	13947
924.849	12996
924.956	13076
925.064	12886
925.172	12856
925.279	12935
925.387	12913
925.494	12909
925.602	12989
925.709	12897
925.816	12711
925.924	12863
926.031	12943
926.138	12875
926.245	12825
926.352	12817
926.459	12901
926.566	12924
926.673	12601
926.779	12635
926.886	12662
926.993	12479
927.099	12426
927.206	12399
927.312	12407
927.419	12551
927.525	12448
927.631	12475
927.737	12361
927.843	12254
927.95	12148
928.056	12319
928.162	12277
928.267	12273
928.373	12985
928.479	12399
928.585	12125
928.69	12266
928.796	12235
928.901	12163
929.007	11969
929.112	12148
929.218	12106
929.323	11996
929.428	11973
929.533	12083
929.638	11954
929.743	11958
929.848	11973
929.953	11942
930.058	11843
930.163	11642
930.267	11733
930.372	11866
930.477	11710
930.581	11901
930.685	11813
930.79	11611
930.894	11600
930.998	11478
931.103	11726
931.207	11417
931.311	11261
931.415	11201
931.519	10987
931.623	11075
