Data from test_V78500241_3510.txt Node
Date: Fri Mar 25 15:34:18 CST 2022
User: usil
Spectrometer: V785-0024
Trigger mode: 0
Integration Time (sec): 4.000000E-1
Scans to average: 1
Nonlinearity correction enabled: false
Boxcar width: 0
Storing dark spectrum: false
XAxis mode: Wavelengths
Number of Pixels in Spectrum: 1024
>>>>>Begin Spectral Data<<<<<
801.071	27405
801.214	27245
801.356	26952
801.499	26994
801.641	26925
801.783	27036
801.926	26838
802.068	26887
802.211	26891
802.353	26937
802.496	26583
802.638	26530
802.78	26518
802.923	26526
803.065	26507
803.208	26434
803.35	26545
803.492	26693
803.635	26689
803.777	26511
803.919	26663
804.061	26925
804.204	26693
804.346	26609
804.488	26640
804.63	26705
804.773	26579
804.915	26617
805.057	26754
805.199	26602
805.341	26743
805.483	26777
805.626	26777
805.768	26636
805.91	26785
806.052	26823
806.194	26659
806.336	26849
806.478	26868
806.62	26762
806.762	26781
806.904	27062
807.046	27268
807.188	27268
807.33	27176
807.472	27325
807.614	27116
807.756	27154
807.898	27081
808.04	26910
808.182	26998
808.324	26975
808.465	27047
808.607	27207
808.749	27401
808.891	27481
809.033	27469
809.174	27469
809.316	27435
809.458	27454
809.6	27230
809.741	27397
809.883	27587
810.025	27644
810.166	27682
810.308	27641
810.45	27523
810.591	27561
810.733	27534
810.875	27466
811.016	27310
811.158	27279
811.299	27473
811.441	27477
811.582	27595
811.724	27336
811.865	27298
812.007	27431
812.148	27431
812.29	27389
812.431	27515
812.573	27656
812.714	27797
812.855	27918
812.997	27903
813.138	28029
813.279	28067
813.421	27892
813.562	27797
813.703	27629
813.845	27724
813.986	27374
814.127	27127
814.268	26944
814.41	26975
814.551	27024
814.692	27173
814.833	27043
814.974	27146
815.115	26956
815.256	26940
815.397	26876
815.539	26876
815.68	26815
815.821	26674
815.962	26838
816.103	26792
816.244	26750
816.385	26575
816.526	26537
816.666	26427
816.807	26339
816.948	26362
817.089	26290
817.23	26442
817.371	26282
817.512	26237
817.653	26305
817.793	26210
817.934	26339
818.075	26301
818.216	26336
818.356	26282
818.497	26172
818.638	26024
818.778	26046
818.919	26107
819.06	26149
819.2	26081
819.341	26259
819.481	26218
819.622	26404
819.762	26758
819.903	26514
820.043	26503
820.184	26412
820.324	26427
820.465	26636
820.605	26381
820.746	26347
820.886	26286
821.026	26476
821.167	26229
821.307	26495
821.447	26336
821.588	26119
821.728	25963
821.868	25993
822.008	25776
822.149	25788
822.289	25757
822.429	25430
822.569	25476
822.709	25479
822.849	25335
822.99	25194
823.13	25255
823.27	25126
823.41	25148
823.55	24916
823.69	25008
823.83	25129
823.97	25034
824.11	24962
824.25	24935
824.389	24825
824.529	25122
824.669	24905
824.809	24894
824.949	24992
825.089	24962
825.228	24973
825.368	24749
825.508	24787
825.648	24719
825.787	24810
825.927	24817
826.067	24760
826.206	24726
826.346	24932
826.485	24890
826.625	24764
826.765	24913
826.904	24943
827.044	24589
827.183	24601
827.323	24304
827.462	24646
827.601	24623
827.741	24479
827.88	24422
828.02	24422
828.159	24532
828.298	24422
828.437	24479
828.577	24471
828.716	24578
828.855	24540
828.994	24224
829.134	24254
829.273	24357
829.412	24228
829.551	24209
829.69	24174
829.829	24201
829.968	24479
830.107	24308
830.246	24182
830.385	24186
830.524	24076
830.663	24060
830.802	23999
830.941	23882
831.08	23889
831.219	23908
831.357	23916
831.496	23992
831.635	23741
831.774	23707
831.913	23589
832.051	23684
832.19	23585
832.329	23676
832.467	23570
832.606	23440
832.744	23436
832.883	23410
833.022	23391
833.16	23554
833.299	23619
833.437	23551
833.576	23627
833.714	23646
833.852	23581
833.991	23592
834.129	23668
834.267	23752
834.406	23554
834.544	23657
834.682	23630
834.821	23585
834.959	23596
835.097	23387
835.235	23619
835.373	23501
835.511	23687
835.65	23349
835.788	23410
835.926	23326
836.064	23231
836.202	23322
836.34	23440
836.478	23596
836.615	23334
836.753	23490
836.891	23444
837.029	23509
837.167	23497
837.305	23356
837.443	23212
837.58	23193
837.718	23459
837.856	23322
837.993	23147
838.131	23227
838.269	23128
838.406	23151
838.544	23220
838.681	22946
838.819	23033
838.956	22721
839.094	22797
839.231	22805
839.369	23037
839.506	23212
839.643	22968
839.781	22812
839.918	22713
840.055	22725
840.193	22733
840.33	22786
840.467	22672
840.604	22694
840.742	22934
840.879	22641
841.016	22748
841.153	22618
841.29	22752
841.427	22733
841.564	22809
841.701	22736
841.838	22763
841.975	22573
842.112	22550
842.249	22485
842.385	22417
842.522	22721
842.659	22523
842.796	22386
842.933	22402
843.069	22394
843.206	22466
843.343	22535
843.479	22379
843.616	22474
843.752	22287
843.889	22291
844.025	22497
844.162	22284
844.298	22413
844.435	22333
844.571	22249
844.708	22299
844.844	22421
844.98	22268
845.117	22310
845.253	22284
845.389	22143
845.525	22116
845.661	22116
845.798	21888
845.934	22112
846.07	22032
846.206	21987
846.342	22120
846.478	21918
846.614	21804
846.75	21717
846.886	21656
847.022	21865
847.158	21606
847.294	21793
847.429	21808
847.565	21603
847.701	21869
847.837	21420
847.972	21405
848.108	21515
848.244	21431
848.379	21329
848.515	21332
848.65	21329
848.786	21329
848.921	21424
849.057	21542
849.192	21412
849.328	21374
849.463	21188
849.598	21306
849.734	21291
849.869	21154
850.004	21089
850.14	21017
850.275	21066
850.41	21093
850.545	20910
850.68	21108
850.815	21089
850.95	21039
851.085	21283
851.22	21249
851.355	21154
851.49	21043
851.625	21142
851.76	21039
851.895	20982
852.03	20918
852.165	21043
852.299	21066
852.434	21180
852.569	21074
852.703	20933
852.838	21058
852.973	21188
853.107	21055
853.242	20990
853.376	20868
853.511	20781
853.645	20800
853.78	21096
853.914	20998
854.048	20849
854.183	20861
854.317	21009
854.451	21161
854.585	20929
854.72	20963
854.854	20990
854.988	20708
855.122	20986
855.256	20716
855.39	20864
855.524	20941
855.658	20895
855.792	20800
855.926	20910
856.06	20800
856.194	21020
856.327	20823
856.461	20777
856.595	20918
856.729	20933
856.862	21047
856.996	20982
857.13	20982
857.263	20948
857.397	20975
857.53	20785
857.664	20994
857.797	20971
857.931	21020
858.064	20819
858.197	20880
858.331	20925
858.464	20853
858.597	20754
858.731	20925
858.864	20842
858.997	20895
859.13	20864
859.263	20952
859.396	20880
859.529	20914
859.662	20956
859.795	20807
859.928	20868
860.061	21028
860.194	21135
860.327	20914
860.46	20876
860.592	21085
860.725	21051
860.858	20967
860.99	20933
861.123	20853
861.256	20788
861.388	20891
861.521	21534
861.653	20762
861.786	20587
861.918	20811
862.05	20651
862.183	20872
862.315	20834
862.447	20975
862.58	20781
862.712	20522
862.844	20522
862.976	20689
863.108	20674
863.24	21001
863.372	20587
863.504	20552
863.636	20575
863.768	20697
863.9	20663
864.032	20537
864.164	20564
864.296	20621
864.428	20689
864.559	20606
864.691	20746
864.823	20644
864.954	20701
865.086	20514
865.217	20583
865.349	20442
865.48	20476
865.612	20484
865.743	20594
865.875	20503
866.006	20438
866.137	20415
866.269	20461
866.4	20568
866.531	20469
866.662	20381
866.793	20419
866.924	20480
867.055	20514
867.186	20495
867.317	20393
867.448	20419
867.579	20488
867.71	20366
867.841	20377
867.972	20492
868.103	20552
868.233	20336
868.364	20473
868.495	20385
868.625	20648
868.756	20811
868.886	20651
869.017	20636
869.147	20769
869.278	20708
869.408	20746
869.539	20667
869.669	20754
869.799	20655
869.929	20910
870.06	20712
870.19	20914
870.32	21036
870.45	21127
870.58	21089
870.71	21256
870.84	21119
870.97	21066
871.1	21104
871.23	21389
871.36	21279
871.489	21150
871.619	21241
871.749	21294
871.879	21294
872.008	21428
872.138	21382
872.267	21336
872.397	21146
872.526	21104
872.656	21157
872.785	21119
872.915	21485
873.044	21447
873.173	21241
873.303	21283
873.432	21313
873.561	21344
873.69	21428
873.819	21192
873.948	21416
874.077	21252
874.206	21291
874.335	21374
874.464	21500
874.593	21530
874.722	21477
874.851	21656
874.979	21519
875.108	21641
875.237	21564
875.365	21507
875.494	21622
875.623	21610
875.751	21595
875.88	21648
876.008	21774
876.136	21747
876.265	22013
876.393	22139
876.521	22021
876.65	22147
876.778	21945
876.906	21953
877.034	21778
877.162	22059
877.29	22006
877.418	22002
877.546	22090
877.674	21945
877.802	21975
877.93	21857
878.058	21972
878.185	21816
878.313	21831
878.441	21865
878.568	21720
878.696	21842
878.824	21960
878.951	21922
879.079	22021
879.206	22200
879.333	22181
879.461	21956
879.588	22048
879.715	22070
879.842	22074
879.97	21960
880.097	21808
880.224	21793
880.351	21743
880.478	21770
880.605	21679
880.732	21709
880.859	22006
880.986	21747
881.112	21816
881.239	21686
881.366	21583
881.493	21382
881.619	21306
881.746	21340
881.872	21389
881.999	21386
882.125	21222
882.252	21435
882.378	21218
882.505	21386
882.631	21203
882.757	21047
882.883	21058
883.01	21028
883.136	21013
883.262	20929
883.388	20857
883.514	21112
883.64	20975
883.766	20933
883.892	20606
884.018	20739
884.143	20998
884.269	21051
884.395	20762
884.52	20693
884.646	20750
884.772	20598
884.897	20560
885.023	20644
885.148	20746
885.274	20765
885.399	20731
885.524	20564
885.65	20651
885.775	20731
885.9	20644
886.025	20823
886.15	20708
886.275	20625
886.4	20560
886.525	20598
886.65	20568
886.775	20617
886.9	20716
887.025	20845
887.149	20754
887.274	20484
887.399	20450
887.523	20530
887.648	20503
887.773	20252
887.897	20579
888.021	20469
888.146	20408
888.27	20450
888.395	20503
888.519	20396
888.643	20454
888.767	20454
888.891	20537
889.015	20206
889.139	20400
889.263	20206
889.387	20320
889.511	20355
889.635	20313
889.759	20210
889.883	20157
890.006	20252
890.13	20305
890.254	20062
890.377	20100
890.501	19982
890.624	19997
890.748	20027
890.871	19803
890.995	19780
891.118	19696
891.241	19890
891.364	19898
891.488	19871
891.611	19860
891.734	19833
891.857	19826
891.98	19841
892.103	19772
892.226	19871
892.349	19613
892.471	19609
892.594	19761
892.717	19677
892.839	19658
892.962	19704
893.085	19753
893.207	19742
893.33	19795
893.452	19677
893.575	19772
893.697	19734
893.819	19803
893.941	19936
894.064	19856
894.186	19635
894.308	19632
894.43	19772
894.552	19932
894.674	19822
894.796	19689
894.918	19734
895.04	19723
895.161	19860
895.283	19791
895.405	19712
895.526	19799
895.648	19689
895.769	19723
895.891	19689
896.012	19871
896.134	19784
896.255	19685
896.376	19685
896.498	19803
896.619	19780
896.74	19723
896.861	19772
896.982	20142
897.103	20237
897.224	19986
897.345	19932
897.466	19830
897.587	19974
897.708	20115
897.828	20073
897.949	20001
898.07	19940
898.19	19925
898.311	20115
898.431	19906
898.552	20001
898.672	19906
898.792	20050
898.913	19837
899.033	19986
899.153	19826
899.273	19578
899.393	19696
899.513	19784
899.633	19807
899.753	19772
899.873	19620
899.993	19734
900.113	19643
900.232	19651
900.352	19685
900.472	19533
900.591	19377
900.711	19502
900.83	19346
900.95	19518
901.069	19449
901.189	19362
901.308	19221
901.427	19069
901.546	19057
901.665	19088
901.784	19118
901.904	19072
902.023	18909
902.141	18661
902.26	18540
902.379	18719
902.498	18593
902.617	18582
902.735	18639
902.854	18654
902.973	18547
903.091	18216
903.21	18239
903.328	18273
903.446	18228
903.565	18144
903.683	18068
903.801	17958
903.919	18091
904.038	18079
904.156	17893
904.274	17863
904.392	17802
904.51	17923
904.627	17912
904.745	17863
904.863	17908
904.981	17665
905.098	17535
905.216	17524
905.334	17501
905.451	17471
905.569	17467
905.686	17668
905.803	17490
905.921	17414
906.038	17410
906.155	17353
906.272	17220
906.389	17303
906.506	17037
906.623	17064
906.74	17124
906.857	16965
906.974	17048
907.091	17113
907.208	17235
907.324	17136
907.441	17006
907.557	16790
907.674	16892
907.79	16866
907.907	16725
908.023	16812
908.139	16805
908.256	16691
908.372	16664
908.488	16645
908.604	16569
908.72	16554
908.836	16512
908.952	16535
909.068	16478
909.184	16615
909.3	16618
909.415	16607
909.531	16538
909.647	16226
909.762	16280
909.878	16207
909.993	16196
910.108	16261
910.224	16124
910.339	16181
910.454	16196
910.57	15930
910.685	15975
910.8	16261
910.915	16207
911.03	16002
911.145	15869
911.259	15812
911.374	15907
911.489	15732
911.604	15690
911.718	15595
911.833	15572
911.947	15386
912.062	15447
912.176	15538
912.291	15610
912.405	15599
912.519	15770
912.633	15732
912.748	15667
912.862	15553
912.976	15420
913.09	15317
913.204	15272
913.318	15412
913.431	15519
913.545	15363
913.659	15473
913.772	15424
913.886	15264
914	15119
914.113	15233
914.226	15256
914.34	15249
914.453	15077
914.566	15230
914.68	15150
914.793	14971
914.906	14925
915.019	14830
915.132	14815
915.245	14765
915.358	14933
915.47	14811
915.583	14773
915.696	14807
915.809	14921
915.921	14895
916.034	14792
916.146	14632
916.259	14777
916.371	14769
916.483	14872
916.595	14526
916.708	14655
916.82	14682
916.932	14606
917.044	14678
917.156	14640
917.268	14438
917.38	14419
917.491	14374
917.603	14404
917.715	14598
917.826	14644
917.938	14419
918.049	14282
918.161	14454
918.272	14636
918.384	14594
918.495	14412
918.606	14206
918.717	14176
918.828	14271
918.939	14286
919.05	14142
919.161	14275
919.272	14103
919.383	14046
919.494	14252
919.604	14370
919.715	14263
919.826	14092
919.936	14206
920.047	14218
920.157	14305
920.267	14374
920.378	14259
920.488	14115
920.598	14427
920.708	14511
920.818	14320
920.928	14377
921.038	14522
921.148	14476
921.258	14229
921.368	14088
921.477	13932
921.587	13944
921.697	13822
921.806	13944
921.916	13860
922.025	13666
922.134	13544
922.244	13552
922.353	13544
922.462	13453
922.571	13381
922.68	13240
922.789	13312
922.898	13327
923.007	13152
923.116	13312
923.224	13247
923.333	13236
923.442	13088
923.55	13122
923.659	13122
923.767	13217
923.876	13046
923.984	13095
924.092	12954
924.201	13027
924.309	13000
924.417	12989
924.525	12932
924.633	12916
924.741	13791
924.849	12787
924.956	12890
925.064	12741
925.172	12574
925.279	12673
925.387	12726
925.494	12662
925.602	12890
925.709	12757
925.816	12601
925.924	12639
926.031	12669
926.138	12620
926.245	12642
926.352	12479
926.459	12635
926.566	12631
926.673	12551
926.779	12483
926.886	12460
926.993	12330
927.099	12308
927.206	12201
927.312	12228
927.419	12308
927.525	12266
927.631	12300
927.737	12175
927.843	12098
927.95	12049
928.056	12159
928.162	12144
928.267	12182
928.373	12658
928.479	12133
928.585	11874
928.69	12041
928.796	12038
928.901	12026
929.007	11722
929.112	12030
929.218	11946
929.323	11813
929.428	11859
929.533	11954
929.638	11783
929.743	11783
929.848	11767
929.953	11745
930.058	11630
930.163	11459
930.267	11539
930.372	11585
930.477	11398
930.581	11665
930.685	11630
930.79	11360
930.894	11414
930.998	11395
931.103	11486
931.207	11121
931.311	11113
931.415	10938
931.519	10740
931.623	10759
