Data from test_V78500241_818.txt Node
Date: Fri Mar 25 15:15:33 CST 2022
User: usil
Spectrometer: V785-0024
Trigger mode: 0
Integration Time (sec): 4.000000E-1
Scans to average: 1
Nonlinearity correction enabled: false
Boxcar width: 0
Storing dark spectrum: false
XAxis mode: Wavelengths
Number of Pixels in Spectrum: 1024
>>>>>Begin Spectral Data<<<<<
801.071	28344
801.214	28116
801.356	27816
801.499	27918
801.641	27819
801.783	27914
801.926	27903
802.068	27934
802.211	27739
802.353	27800
802.496	27576
802.638	27469
802.78	27424
802.923	27572
803.065	27359
803.208	27435
803.35	27348
803.492	27603
803.635	27728
803.777	27652
803.919	27572
804.061	27922
804.204	27720
804.346	27660
804.488	27656
804.63	27717
804.773	27652
804.915	27861
805.057	27960
805.199	27625
805.341	27956
805.483	27987
805.626	27762
805.768	27766
805.91	27861
806.052	27857
806.194	27914
806.336	28059
806.478	27888
806.62	28006
806.762	28128
806.904	28143
807.046	28291
807.188	28234
807.33	28341
807.472	28360
807.614	28036
807.756	28242
807.898	28105
808.04	28188
808.182	28048
808.324	28219
808.465	28204
808.607	28379
808.749	28542
808.891	28584
809.033	28618
809.174	28527
809.316	28550
809.458	28481
809.6	28615
809.741	28656
809.883	28653
810.025	28702
810.166	28797
810.308	28854
810.45	28759
810.591	28733
810.733	28615
810.875	28527
811.016	28508
811.158	28508
811.299	28577
811.441	28679
811.582	28694
811.724	28561
811.865	28546
812.007	28554
812.148	28516
812.29	28611
812.431	28733
812.573	28892
812.714	29090
812.855	29098
812.997	29269
813.138	29368
813.279	29250
813.421	28942
813.562	29071
813.703	28965
813.845	28835
813.986	28531
814.127	28322
814.268	28219
814.41	28230
814.551	28246
814.692	28352
814.833	28265
814.974	28246
815.115	28234
815.256	28074
815.397	28074
815.539	28200
815.68	28044
815.821	27983
815.962	28013
816.103	28135
816.244	27991
816.385	28010
816.526	27831
816.666	27682
816.807	27663
816.948	27690
817.089	27766
817.23	27614
817.371	27614
817.512	27633
817.653	27614
817.793	27462
817.934	27606
818.075	27610
818.216	27694
818.356	27583
818.497	27515
818.638	27272
818.778	27344
818.919	27287
819.06	27359
819.2	27553
819.341	27713
819.481	27557
819.622	27880
819.762	27956
819.903	27922
820.043	27762
820.184	27747
820.324	27561
820.465	27770
820.605	27610
820.746	27728
820.886	27641
821.026	27732
821.167	27667
821.307	27720
821.447	27755
821.588	27439
821.728	27420
821.868	27157
822.008	27150
822.149	27135
822.289	26998
822.429	26815
822.569	26686
822.709	26769
822.849	26473
822.99	26598
823.13	26609
823.27	26514
823.41	26374
823.55	26370
823.69	26419
823.83	26419
823.97	26362
824.11	26199
824.25	26073
824.389	26396
824.529	26149
824.669	26134
824.809	26202
824.949	26271
825.089	26202
825.228	26218
825.368	26027
825.508	26115
825.648	26153
825.787	26092
825.927	26183
826.067	26027
826.206	25951
826.346	26016
826.485	26008
826.625	26046
826.765	26100
826.904	26142
827.044	25955
827.183	25864
827.323	25780
827.462	25868
827.601	25830
827.741	25875
827.88	25883
828.02	25693
828.159	25761
828.298	25719
828.437	25791
828.577	25734
828.716	25769
828.855	25776
828.994	25556
829.134	25514
829.273	25620
829.412	25487
829.551	25483
829.69	25529
829.829	25487
829.968	25479
830.107	25548
830.246	25620
830.385	25419
830.524	25487
830.663	25247
830.802	25244
830.941	25270
831.08	25129
831.219	25175
831.357	25160
831.496	25263
831.635	25194
831.774	24947
831.913	24920
832.051	24943
832.19	24852
832.329	25050
832.467	24901
832.606	24669
832.744	24642
832.883	24844
833.022	24760
833.16	24810
833.299	24863
833.437	24890
833.576	24894
833.714	24970
833.852	24958
833.991	24970
834.129	24848
834.267	24962
834.406	24814
834.544	24954
834.682	24928
834.821	24776
834.959	24977
835.097	24795
835.235	24821
835.373	24894
835.511	24821
835.65	24677
835.788	24703
835.926	24593
836.064	24490
836.202	24635
836.34	24627
836.478	24749
836.615	24620
836.753	24722
836.891	24757
837.029	24833
837.167	24642
837.305	24620
837.443	24604
837.58	24494
837.718	24696
837.856	24578
837.993	24441
838.131	24517
838.269	24350
838.406	24494
838.544	24300
838.681	24125
838.819	24167
838.956	24095
839.094	24041
839.231	24030
839.369	24163
839.506	24350
839.643	24308
839.781	24026
839.918	23965
840.055	23999
840.193	24007
840.33	23923
840.467	23866
840.604	23927
840.742	24155
840.879	23722
841.016	23794
841.153	23748
841.29	23977
841.427	23935
841.564	23893
841.701	23817
841.838	23783
841.975	23794
842.112	23882
842.249	23718
842.385	23691
842.522	23855
842.659	23840
842.796	23592
842.933	23604
843.069	23707
843.206	23642
843.343	23707
843.479	23748
843.616	23627
843.752	23512
843.889	23490
844.025	23501
844.162	23284
844.298	23539
844.435	23376
844.571	23322
844.708	23429
844.844	23638
844.98	23497
845.117	23589
845.253	23387
845.389	23277
845.525	23356
845.661	23296
845.798	23067
845.934	23280
846.07	23166
846.206	23117
846.342	23318
846.478	23220
846.614	22843
846.75	22946
846.886	22881
847.022	23022
847.158	23052
847.294	22957
847.429	22850
847.565	22915
847.701	22896
847.837	22683
847.972	22607
848.108	22717
848.244	22729
848.379	22527
848.515	22424
848.65	22485
848.786	22443
848.921	22557
849.057	22607
849.192	22531
849.328	22577
849.463	22504
849.598	22493
849.734	22238
849.869	22455
850.004	22280
850.14	22223
850.275	22287
850.41	22185
850.545	22204
850.68	22143
850.815	22207
850.95	22291
851.085	22341
851.22	22322
851.355	22200
851.49	22257
851.625	22242
851.76	22150
851.895	22173
852.03	22166
852.165	22261
852.299	22276
852.434	22215
852.569	22329
852.703	22150
852.838	22322
852.973	22322
853.107	22360
853.242	22147
853.376	22021
853.511	21964
853.645	21968
853.78	22078
853.914	22109
854.048	22120
854.183	22086
854.317	22021
854.451	22325
854.585	22010
854.72	22124
854.854	22200
854.988	21979
855.122	22029
855.256	21987
855.39	22078
855.524	22150
855.658	22120
855.792	22051
855.926	22063
856.06	22070
856.194	22196
856.327	22124
856.461	22002
856.595	22055
856.729	21991
856.862	22105
856.996	22147
857.13	22131
857.263	22059
857.397	22055
857.53	22105
857.664	22143
857.797	22131
857.931	22147
858.064	22097
858.197	22105
858.331	22048
858.464	22070
858.597	21918
858.731	22078
858.864	22002
858.997	21892
859.13	22131
859.263	22048
859.396	22112
859.529	22097
859.662	21953
859.795	21964
859.928	22131
860.061	22234
860.194	22325
860.327	22048
860.46	22128
860.592	22196
860.725	22299
860.858	22185
860.99	22074
861.123	22010
861.256	21979
861.388	22105
861.521	22744
861.653	21968
861.786	21873
861.918	21831
862.05	21880
862.183	21918
862.315	21998
862.447	22070
862.58	22051
862.712	21808
862.844	21770
862.976	21842
863.108	21808
863.24	22109
863.372	21641
863.504	21679
863.636	21751
863.768	21705
863.9	21709
864.032	21629
864.164	21709
864.296	21789
864.428	21960
864.559	21793
864.691	21831
864.823	21717
864.954	21732
865.086	21633
865.217	21698
865.349	21526
865.48	21580
865.612	21690
865.743	21770
865.875	21747
866.006	21603
866.137	21667
866.269	21778
866.4	21583
866.531	21553
866.662	21587
866.793	21606
866.924	21428
867.055	21568
867.186	21557
867.317	21523
867.448	21481
867.579	21549
867.71	21435
867.841	21481
867.972	21656
868.103	21587
868.233	21439
868.364	21625
868.495	21698
868.625	21755
868.756	21838
868.886	21766
869.017	21770
869.147	21907
869.278	21953
869.408	21857
869.539	21774
869.669	21835
869.799	21835
869.929	21941
870.06	21854
870.19	22135
870.32	22097
870.45	22124
870.58	22299
870.71	22344
870.84	22291
870.97	22074
871.1	22226
871.23	22413
871.36	22535
871.489	22295
871.619	22276
871.749	22398
871.879	22478
872.008	22413
872.138	22379
872.267	22443
872.397	22303
872.526	22246
872.656	22325
872.785	22310
872.915	22329
873.044	22451
873.173	22382
873.303	22402
873.432	22459
873.561	22527
873.69	22557
873.819	22417
873.948	22459
874.077	22402
874.206	22436
874.335	22470
874.464	22500
874.593	22694
874.722	22615
874.851	22584
874.979	22702
875.108	22664
875.237	22664
875.365	22573
875.494	22550
875.623	22573
875.751	22675
875.88	22615
876.008	22740
876.136	22862
876.265	22915
876.393	23124
876.521	22965
876.65	23025
876.778	23006
876.906	22984
877.034	23044
877.162	22995
877.29	22953
877.418	22949
877.546	22980
877.674	22953
877.802	22782
877.93	22991
878.058	22949
878.185	22812
878.313	22892
878.441	22949
878.568	22767
878.696	22771
878.824	22881
878.951	23060
879.079	23170
879.206	23178
879.333	23181
879.461	23056
879.588	23025
879.715	23178
879.842	23246
879.97	23098
880.097	22809
880.224	22915
880.351	22839
880.478	22744
880.605	22786
880.732	22637
880.859	23037
880.986	22752
881.112	22729
881.239	22538
881.366	22409
881.493	22459
881.619	22402
881.746	22360
881.872	22280
881.999	22306
882.125	22348
882.252	22265
882.378	22246
882.505	22310
882.631	22246
882.757	22010
882.883	22139
883.01	22128
883.136	22040
883.262	21964
883.388	21774
883.514	22074
883.64	22036
883.766	21838
883.892	21857
884.018	21854
884.143	22025
884.269	22067
884.395	21766
884.52	21694
884.646	21557
884.772	21614
884.897	21576
885.023	21709
885.148	21622
885.274	21823
885.399	21743
885.524	21629
885.65	21728
885.775	21660
885.9	21762
886.025	21709
886.15	21728
886.275	21694
886.4	21538
886.525	21591
886.65	21526
886.775	21618
886.9	21762
887.025	21766
887.149	21614
887.274	21523
887.399	21420
887.523	21523
887.648	21416
887.773	21405
887.897	21450
888.021	21542
888.146	21310
888.27	21549
888.395	21466
888.519	21443
888.643	21504
888.767	21416
888.891	21264
889.015	21233
889.139	21302
889.263	21252
889.387	21340
889.511	21340
889.635	21268
889.759	21241
889.883	21245
890.006	21245
890.13	21283
890.254	21093
890.377	21241
890.501	20982
890.624	20902
890.748	21074
890.871	20944
890.995	20777
891.118	20613
891.241	20777
891.364	20834
891.488	20937
891.611	20708
891.734	20750
891.857	20769
891.98	20735
892.103	20800
892.226	20823
892.349	20727
892.471	20507
892.594	20640
892.717	20686
892.839	20705
892.962	20769
893.085	20670
893.207	20705
893.33	20583
893.452	20590
893.575	20834
893.697	20625
893.819	20788
893.941	20971
894.064	20800
894.186	20507
894.308	20716
894.43	20758
894.552	20750
894.674	20781
894.796	20632
894.918	20754
895.04	20670
895.161	20693
895.283	20754
895.405	20613
895.526	20648
895.648	20670
895.769	20712
895.891	20682
896.012	20895
896.134	20644
896.255	20727
896.376	20571
896.498	20667
896.619	20651
896.74	20655
896.861	20758
896.982	20975
897.103	21081
897.224	20921
897.345	20857
897.466	20800
897.587	20868
897.708	21028
897.828	20811
897.949	20724
898.07	20674
898.19	20842
898.311	20941
898.431	20727
898.552	20731
898.672	20910
898.792	20864
898.913	20902
899.033	20735
899.153	20648
899.273	20552
899.393	20613
899.513	20659
899.633	20629
899.753	20705
899.873	20545
899.993	20571
900.113	20575
900.232	20503
900.352	20583
900.472	20469
900.591	20313
900.711	20511
900.83	20393
900.95	20434
901.069	20389
901.189	20180
901.308	20031
901.427	20001
901.546	20005
901.665	19970
901.784	20001
901.904	19795
902.023	19765
902.141	19476
902.26	19441
902.379	19563
902.498	19441
902.617	19518
902.735	19396
902.854	19415
902.973	19472
903.091	19232
903.21	19202
903.328	19145
903.446	18981
903.565	18993
903.683	18932
903.801	18817
903.919	18981
904.038	18867
904.156	18738
904.274	18757
904.392	18677
904.51	18681
904.627	18768
904.745	18753
904.863	18760
904.981	18532
905.098	18361
905.216	18281
905.334	18403
905.451	18410
905.569	18319
905.686	18357
905.803	18380
905.921	18015
906.038	18330
906.155	18247
906.272	18174
906.389	18068
906.506	18038
906.623	17992
906.74	17843
906.857	17779
906.974	17802
907.091	18007
907.208	18045
907.324	17882
907.441	17821
907.557	17646
907.674	17558
907.79	17585
907.907	17604
908.023	17672
908.139	17619
908.256	17630
908.372	17543
908.488	17551
908.604	17273
908.72	17368
908.836	17288
908.952	17292
909.068	17406
909.184	17463
909.3	17311
909.415	17315
909.531	17353
909.647	17109
909.762	17029
909.878	17014
909.993	17048
910.108	16984
910.224	17010
910.339	17006
910.454	16847
910.57	16904
910.685	16660
910.8	17033
910.915	16999
911.03	16801
911.145	16668
911.259	16698
911.374	16664
911.489	16611
911.604	16455
911.718	16341
911.833	16535
911.947	16253
912.062	16219
912.176	16299
912.291	16360
912.405	16371
912.519	16459
912.633	16596
912.748	16428
912.862	16295
912.976	16169
913.09	16112
913.204	16120
913.318	16196
913.431	16238
913.545	16185
913.659	16234
913.772	16150
913.886	16093
914	16032
914.113	15994
914.226	16128
914.34	16017
914.453	15819
914.566	16002
914.68	15842
914.793	15800
914.906	15675
915.019	15519
915.132	15500
915.245	15488
915.358	15485
915.47	15458
915.583	15492
915.696	15606
915.809	15625
915.921	15648
916.034	15507
916.146	15348
916.259	15500
916.371	15469
916.483	15397
916.595	15405
916.708	15428
916.82	15348
916.932	15359
917.044	15317
917.156	15298
917.268	15199
917.38	15138
917.491	15180
917.603	15112
917.715	15252
917.826	15249
917.938	15058
918.049	14990
918.161	15070
918.272	15184
918.384	15310
918.495	15173
918.606	14994
918.717	14948
918.828	15017
918.939	14918
919.05	14811
919.161	15032
919.272	14773
919.383	14712
919.494	14994
919.604	15108
919.715	14960
919.826	14872
919.936	14872
920.047	14971
920.157	14796
920.267	15020
920.378	14899
920.488	14857
920.598	15081
920.708	15218
920.818	15032
920.928	15009
921.038	15165
921.148	15100
921.258	14788
921.368	14788
921.477	14625
921.587	14503
921.697	14492
921.806	14571
921.916	14454
922.025	14313
922.134	14199
922.244	14054
922.353	14324
922.462	14157
922.571	14046
922.68	13860
922.789	13860
922.898	13913
923.007	13811
923.116	13864
923.224	13909
923.333	13750
923.442	13795
923.55	13761
923.659	13742
923.767	13769
923.876	13708
923.984	13879
924.092	13594
924.201	13731
924.309	13639
924.417	13609
924.525	13529
924.633	13518
924.741	14298
924.849	13324
924.956	13411
925.064	13304
925.172	13316
925.279	13190
925.387	13324
925.494	13251
925.602	13335
925.709	13255
925.816	13175
925.924	13228
926.031	13221
926.138	13194
926.245	13206
926.352	13095
926.459	13282
926.566	13244
926.673	13270
926.779	13099
926.886	13095
926.993	12890
927.099	12882
927.206	12871
927.312	12757
927.419	12856
927.525	12844
927.631	12810
927.737	12745
927.843	12711
927.95	12627
928.056	12677
928.162	12700
928.267	12688
928.373	13316
928.479	12738
928.585	12429
928.69	12589
928.796	12631
928.901	12547
929.007	12384
929.112	12540
929.218	12380
929.323	12391
929.428	12350
929.533	12521
929.638	12273
929.743	12239
929.848	12311
929.953	12319
930.058	12235
930.163	12072
930.267	12125
930.372	12197
930.477	12053
930.581	12247
930.685	12114
930.79	11927
930.894	11942
930.998	11885
931.103	12034
931.207	11767
931.311	11596
931.415	11490
931.519	11284
931.623	11307
