Data from test_V78500241_49.txt Node
Date: Fri Mar 25 15:10:12 CST 2022
User: usil
Spectrometer: V785-0024
Trigger mode: 0
Integration Time (sec): 4.000000E-1
Scans to average: 1
Nonlinearity correction enabled: false
Boxcar width: 0
Storing dark spectrum: false
XAxis mode: Wavelengths
Number of Pixels in Spectrum: 1024
>>>>>Begin Spectral Data<<<<<
801.071	28706
801.214	28592
801.356	28508
801.499	28371
801.641	28226
801.783	28295
801.926	28417
802.068	28303
802.211	28143
802.353	28128
802.496	28021
802.638	27934
802.78	27907
802.923	27797
803.065	27667
803.208	27762
803.35	27937
803.492	27857
803.635	28021
803.777	27880
803.919	28097
804.061	28287
804.204	27960
804.346	27922
804.488	27846
804.63	27774
804.773	27762
804.915	27930
805.057	27964
805.199	27895
805.341	27922
805.483	28051
805.626	27930
805.768	27937
805.91	28086
806.052	28105
806.194	27964
806.336	28200
806.478	27953
806.62	28036
806.762	28059
806.904	28124
807.046	28497
807.188	28394
807.33	28371
807.472	28443
807.614	28287
807.756	28284
807.898	28234
808.04	28246
808.182	28196
808.324	28112
808.465	28067
808.607	28303
808.749	28405
808.891	28459
809.033	28531
809.174	28455
809.316	28424
809.458	28500
809.6	28531
809.741	28432
809.883	28371
810.025	28679
810.166	28687
810.308	28801
810.45	28569
810.591	28508
810.733	28489
810.875	28428
811.016	28367
811.158	28432
811.299	28401
811.441	28497
811.582	28512
811.724	28314
811.865	28382
812.007	28493
812.148	28329
812.29	28531
812.431	28542
812.573	28660
812.714	28733
812.855	28801
812.997	29094
813.138	29140
813.279	29003
813.421	28961
813.562	28752
813.703	28668
813.845	28649
813.986	28196
814.127	28101
814.268	27975
814.41	28002
814.551	27861
814.692	28040
814.833	27903
814.974	27964
815.115	28029
815.256	27861
815.397	27941
815.539	27857
815.68	27751
815.821	27492
815.962	27766
816.103	27644
816.244	27553
816.385	27405
816.526	27481
816.666	27317
816.807	27336
816.948	27093
817.089	27370
817.23	27104
817.371	27211
817.512	27051
817.653	27077
817.793	27028
817.934	27157
818.075	27138
818.216	27093
818.356	27074
818.497	26944
818.638	26807
818.778	26788
818.919	26929
819.06	26948
819.2	26940
819.341	26918
819.481	27066
819.622	27233
819.762	27348
819.903	27275
820.043	27085
820.184	27237
820.324	27096
820.465	27363
820.605	27298
820.746	27116
820.886	26998
821.026	27036
821.167	27062
821.307	27264
821.447	27032
821.588	26944
821.728	26975
821.868	26746
822.008	26442
822.149	26469
822.289	26393
822.429	26275
822.569	26145
822.709	26077
822.849	25982
822.99	25856
823.13	25932
823.27	25944
823.41	25769
823.55	25590
823.69	25693
823.83	25639
823.97	25643
824.11	25521
824.25	25426
824.389	25594
824.529	25529
824.669	25415
824.809	25620
824.949	25586
825.089	25571
825.228	25613
825.368	25350
825.508	25377
825.648	25339
825.787	25362
825.927	25487
826.067	25259
826.206	25190
826.346	25365
826.485	25225
826.625	25426
826.765	25407
826.904	25411
827.044	24962
827.183	25034
827.323	24985
827.462	25118
827.601	24856
827.741	24844
827.88	24905
828.02	24939
828.159	24837
828.298	24954
828.437	25019
828.577	24745
828.716	24973
828.855	24939
828.994	24749
829.134	24658
829.273	24563
829.412	24536
829.551	24544
829.69	24642
829.829	24475
829.968	24730
830.107	24623
830.246	24730
830.385	24475
830.524	24445
830.663	24433
830.802	24285
830.941	24228
831.08	24152
831.219	24243
831.357	24228
831.496	24498
831.635	24174
831.774	24079
831.913	24064
832.051	23824
832.19	23988
832.329	23874
832.467	23752
832.606	23817
832.744	23809
832.883	23745
833.022	23821
833.16	23703
833.299	23775
833.437	23798
833.576	23737
833.714	23836
833.852	23798
833.991	23855
834.129	23999
834.267	23889
834.406	23627
834.544	23828
834.682	23786
834.821	23764
834.959	23939
835.097	23665
835.235	23733
835.373	23729
835.511	23756
835.65	23566
835.788	23623
835.926	23444
836.064	23509
836.202	23448
836.34	23604
836.478	23619
836.615	23543
836.753	23653
836.891	23695
837.029	23566
837.167	23455
837.305	23471
837.443	23535
837.58	23524
837.718	23474
837.856	23474
837.993	23425
838.131	23581
838.269	23410
838.406	23322
838.544	23284
838.681	23136
838.819	22999
838.956	22843
839.094	22957
839.231	22923
839.369	22965
839.506	23280
839.643	23025
839.781	22896
839.918	22858
840.055	22850
840.193	22778
840.33	22721
840.467	22774
840.604	22687
840.742	22946
840.879	22493
841.016	22702
841.153	22645
841.29	22843
841.427	22793
841.564	22786
841.701	22694
841.838	22641
841.975	22504
842.112	22622
842.249	22512
842.385	22386
842.522	22672
842.659	22436
842.796	22360
842.933	22413
843.069	22322
843.206	22379
843.343	22409
843.479	22379
843.616	22394
843.752	22249
843.889	22303
844.025	22169
844.162	22135
844.298	22242
844.435	22166
844.571	22021
844.708	22139
844.844	22299
844.98	22284
845.117	22211
845.253	22101
845.389	21968
845.525	22051
845.661	21968
845.798	21895
845.934	21918
846.07	21808
846.206	21930
846.342	22055
846.478	21895
846.614	21660
846.75	21625
846.886	21561
847.022	21739
847.158	21728
847.294	21530
847.429	21698
847.565	21553
847.701	21812
847.837	21431
847.972	21313
848.108	21401
848.244	21378
848.379	21188
848.515	21096
848.65	21138
848.786	21089
848.921	21089
849.057	21169
849.192	21310
849.328	21173
849.463	21135
849.598	21112
849.734	20998
849.869	20986
850.004	20986
850.14	20906
850.275	20845
850.41	20758
850.545	20868
850.68	20834
850.815	20887
850.95	20804
851.085	21020
851.22	21001
851.355	20823
851.49	20788
851.625	20758
851.76	20804
851.895	20724
852.03	20735
852.165	20868
852.299	20994
852.434	20891
852.569	20819
852.703	20826
852.838	21005
852.973	20967
853.107	20956
853.242	20724
853.376	20712
853.511	20552
853.645	20667
853.78	20727
853.914	20629
854.048	20617
854.183	20663
854.317	20606
854.451	20925
854.585	20674
854.72	20625
854.854	20716
854.988	20678
855.122	20651
855.256	20507
855.39	20663
855.524	20731
855.658	20708
855.792	20651
855.926	20575
856.06	20693
856.194	20701
856.327	20724
856.461	20724
856.595	20655
856.729	20594
856.862	20648
856.996	20697
857.13	20701
857.263	20834
857.397	20720
857.53	20621
857.664	20613
857.797	20594
857.931	20644
858.064	20807
858.197	20750
858.331	20533
858.464	20568
858.597	20400
858.731	20594
858.864	20492
858.997	20587
859.13	20682
859.263	20629
859.396	20655
859.529	20629
859.662	20651
859.795	20503
859.928	20568
860.061	20845
860.194	20765
860.327	20594
860.46	20556
860.592	20724
860.725	20590
860.858	20575
860.99	20568
861.123	20495
861.256	20507
861.388	20549
861.521	21211
861.653	20450
861.786	20358
861.918	20400
862.05	20530
862.183	20670
862.315	20613
862.447	20644
862.58	20621
862.712	20324
862.844	20256
862.976	20347
863.108	20370
863.24	20762
863.372	20164
863.504	20256
863.636	20290
863.768	20267
863.9	20214
864.032	20210
864.164	20187
864.296	20324
864.428	20431
864.559	20343
864.691	20320
864.823	20332
864.954	20263
865.086	20366
865.217	20187
865.349	20065
865.48	20149
865.612	20187
865.743	20218
865.875	20092
866.006	20020
866.137	20096
866.269	20130
866.4	20161
866.531	20191
866.662	20191
866.793	20145
866.924	20195
867.055	20073
867.186	20122
867.317	19978
867.448	19940
867.579	20046
867.71	20221
867.841	20069
867.972	20031
868.103	20027
868.233	20134
868.364	20054
868.495	20161
868.625	20393
868.756	20332
868.886	20309
869.017	20343
869.147	20431
869.278	20374
869.408	20317
869.539	20366
869.669	20309
869.799	20400
869.929	20461
870.06	20377
870.19	20629
870.32	20644
870.45	20670
870.58	20773
870.71	20777
870.84	20876
870.97	20781
871.1	20708
871.23	20857
871.36	20849
871.489	20758
871.619	20906
871.749	20937
871.879	20868
872.008	21001
872.138	20925
872.267	20979
872.397	20781
872.526	20651
872.656	20788
872.785	20735
872.915	20933
873.044	20998
873.173	20792
873.303	20986
873.432	20952
873.561	21032
873.69	20941
873.819	20944
873.948	21009
874.077	20910
874.206	20826
874.335	20823
874.464	20975
874.593	21089
874.722	21150
874.851	21256
874.979	21104
875.108	21138
875.237	21070
875.365	21039
875.494	21169
875.623	21294
875.751	21214
875.88	21116
876.008	21382
876.136	21351
876.265	21599
876.393	21701
876.521	21572
876.65	21435
876.778	21526
876.906	21606
877.034	21389
877.162	21534
877.29	21515
877.418	21447
877.546	21568
877.674	21435
877.802	21454
877.93	21386
878.058	21439
878.185	21420
878.313	21545
878.441	21496
878.568	21443
878.696	21412
878.824	21580
878.951	21606
879.079	21667
879.206	21808
879.333	21648
879.461	21561
879.588	21572
879.715	21823
879.842	21804
879.97	21545
880.097	21294
880.224	21344
880.351	21378
880.478	21287
880.605	21348
880.732	21332
880.859	21576
880.986	21329
881.112	21412
881.239	21256
881.366	21119
881.493	20994
881.619	20891
881.746	20914
881.872	20941
881.999	20895
882.125	20902
882.252	21005
882.378	20842
882.505	21116
882.631	20853
882.757	20788
882.883	20708
883.01	20743
883.136	20712
883.262	20541
883.388	20488
883.514	20609
883.64	20727
883.766	20640
883.892	20450
884.018	20579
884.143	20678
884.269	20617
884.395	20480
884.52	20370
884.646	20286
884.772	20267
884.897	20301
885.023	20278
885.148	20381
885.274	20473
885.399	20454
885.524	20393
885.65	20290
885.775	20450
885.9	20206
886.025	20389
886.15	20419
886.275	20202
886.4	20176
886.525	20358
886.65	20172
886.775	20244
886.9	20423
887.025	20499
887.149	20248
887.274	20134
887.399	20187
887.523	19993
887.648	20062
887.773	20031
887.897	20134
888.021	20065
888.146	20012
888.27	20202
888.395	20202
888.519	20126
888.643	20031
888.767	20172
888.891	19993
889.015	19852
889.139	19803
889.263	19757
889.387	19921
889.511	20115
889.635	19944
889.759	19814
889.883	19849
890.006	19830
890.13	19906
890.254	19704
890.377	19780
890.501	19582
890.624	19537
890.748	19696
890.871	19559
890.995	19396
891.118	19369
891.241	19422
891.364	19445
891.488	19597
891.611	19491
891.734	19430
891.857	19415
891.98	19434
892.103	19438
892.226	19396
892.349	19495
892.471	19107
892.594	19339
892.717	19358
892.839	19388
892.962	19354
893.085	19430
893.207	19259
893.33	19270
893.452	19270
893.575	19407
893.697	19293
893.819	19544
893.941	19468
894.064	19518
894.186	19255
894.308	19244
894.43	19339
894.552	19556
894.674	19441
894.796	19282
894.918	19400
895.04	19343
895.161	19449
895.283	19335
895.405	19187
895.526	19373
895.648	19304
895.769	19339
895.891	19403
896.012	19434
896.134	19426
896.255	19430
896.376	19453
896.498	19422
896.619	19468
896.74	19384
896.861	19609
896.982	19799
897.103	19814
897.224	19734
897.345	19616
897.466	19651
897.587	19632
897.708	19742
897.828	19719
897.949	19544
898.07	19350
898.19	19544
898.311	19727
898.431	19578
898.552	19575
898.672	19696
898.792	19476
898.913	19647
899.033	19438
899.153	19407
899.273	19183
899.393	19354
899.513	19377
899.633	19304
899.753	19312
899.873	19388
899.993	19392
900.113	19232
900.232	19312
900.352	19168
900.472	19107
900.591	18981
900.711	19156
900.83	19129
900.95	19168
901.069	19274
901.189	19023
901.308	18840
901.427	18688
901.546	18734
901.665	18768
901.784	18703
901.904	18498
902.023	18502
902.141	18270
902.26	18186
902.379	18281
902.498	18216
902.617	18209
902.735	18140
902.854	18041
902.973	18072
903.091	17843
903.21	17973
903.328	17916
903.446	17718
903.565	17649
903.683	17714
903.801	17638
903.919	17638
904.038	17600
904.156	17547
904.274	17539
904.392	17376
904.51	17421
904.627	17391
904.745	17429
904.863	17490
904.981	17242
905.098	17109
905.216	17086
905.334	17162
905.451	17212
905.569	17090
905.686	17155
905.803	17121
905.921	16965
906.038	17003
906.155	16995
906.272	16778
906.389	16816
906.506	16660
906.623	16679
906.74	16683
906.857	16577
906.974	16584
907.091	16698
907.208	16869
907.324	16615
907.441	16622
907.557	16352
907.674	16287
907.79	16265
907.907	16344
908.023	16211
908.139	16280
908.256	16329
908.372	16230
908.488	16188
908.604	16109
908.72	16059
908.836	16002
908.952	15972
909.068	16063
909.184	16002
909.3	16036
909.415	16036
909.531	15937
909.647	15835
909.762	15679
909.878	15622
909.993	15781
910.108	15686
910.224	15690
910.339	15736
910.454	15580
910.57	15500
910.685	15564
910.8	15739
910.915	15720
911.03	15504
911.145	15393
911.259	15412
911.374	15389
911.489	15275
911.604	15264
911.718	15036
911.833	15055
911.947	15013
912.062	14876
912.176	15058
912.291	15062
912.405	15051
912.519	15329
912.633	15252
912.748	15047
912.862	15146
912.976	14921
913.09	14849
913.204	14796
913.318	14857
913.431	14963
913.545	14910
913.659	15036
913.772	14861
913.886	14674
914	14693
914.113	14804
914.226	14891
914.34	14739
914.453	14541
914.566	14727
914.68	14651
914.793	14518
914.906	14419
915.019	14343
915.132	14248
915.245	14362
915.358	14450
915.47	14412
915.583	14415
915.696	14320
915.809	14492
915.921	14469
916.034	14240
916.146	14134
916.259	14199
916.371	14408
916.483	14286
916.595	14145
916.708	14153
916.82	14210
916.932	14149
917.044	14176
917.156	14164
917.268	13906
917.38	13936
917.491	14065
917.603	13974
917.715	14073
917.826	14088
917.938	14001
918.049	13780
918.161	13932
918.272	14191
918.384	14100
918.495	13944
918.606	13883
918.717	13666
918.828	13898
918.939	13856
919.05	13620
919.161	13761
919.272	13620
919.383	13586
919.494	13826
919.604	13898
919.715	13788
919.826	13689
919.936	13746
920.047	13685
920.157	13757
920.267	13909
920.378	13799
920.488	13727
920.598	13852
920.708	13978
920.818	13879
920.928	13921
921.038	13982
921.148	13970
921.258	13708
921.368	13556
921.477	13514
921.587	13407
921.697	13411
921.806	13510
921.916	13278
922.025	13179
922.134	13099
922.244	13053
922.353	13240
922.462	13053
922.571	12962
922.68	12837
922.789	12684
922.898	12711
923.007	12673
923.116	12814
923.224	12745
923.333	12684
923.442	12612
923.55	12574
923.659	12502
923.767	12608
923.876	12498
923.984	12646
924.092	12471
924.201	12551
924.309	12498
924.417	12566
924.525	12513
924.633	12456
924.741	13160
924.849	12182
924.956	12372
925.064	12228
925.172	12129
925.279	12175
925.387	12163
925.494	12239
925.602	12334
925.709	12323
925.816	12106
925.924	12152
926.031	12300
926.138	12224
926.245	12216
926.352	12049
926.459	12140
926.566	12308
926.673	12121
926.779	11942
926.886	11969
926.993	11874
927.099	11775
927.206	11771
927.312	11809
927.419	11878
927.525	11828
927.631	11889
927.737	11646
927.843	11623
927.95	11592
928.056	11638
928.162	11668
928.267	11668
928.373	12308
928.479	11703
928.585	11459
928.69	11573
928.796	11608
928.901	11467
929.007	11337
929.112	11501
929.218	11376
929.323	11395
929.428	11353
929.533	11463
929.638	11258
929.743	11330
929.848	11402
929.953	11368
930.058	11242
930.163	11029
930.267	11048
930.372	11223
930.477	11071
930.581	11341
930.685	11128
930.79	10984
930.894	11003
930.998	11006
931.103	11109
931.207	10706
931.311	10645
931.415	10535
931.519	10402
931.623	10402
