Data from test_V78500241_1712.txt Node
Date: Fri Mar 25 15:21:46 CST 2022
User: usil
Spectrometer: V785-0024
Trigger mode: 0
Integration Time (sec): 4.000000E-1
Scans to average: 1
Nonlinearity correction enabled: false
Boxcar width: 0
Storing dark spectrum: false
XAxis mode: Wavelengths
Number of Pixels in Spectrum: 1024
>>>>>Begin Spectral Data<<<<<
801.071	27888
801.214	27743
801.356	27488
801.499	27477
801.641	27427
801.783	27321
801.926	27363
802.068	27344
802.211	27226
802.353	27184
802.496	26952
802.638	27024
802.78	26990
802.923	26929
803.065	26899
803.208	26834
803.35	26990
803.492	27032
803.635	27150
803.777	27081
803.919	27081
804.061	27367
804.204	27112
804.346	27157
804.488	27013
804.63	27275
804.773	26990
804.915	27093
805.057	27093
805.199	27047
805.341	27161
805.483	27306
805.626	27287
805.768	27192
805.91	27195
806.052	27313
806.194	27127
806.336	27466
806.478	27249
806.62	27260
806.762	27260
806.904	27504
807.046	27778
807.188	27595
807.33	27709
807.472	27728
807.614	27462
807.756	27652
807.898	27500
808.04	27420
808.182	27530
808.324	27538
808.465	27633
808.607	27728
808.749	27903
808.891	27987
809.033	28109
809.174	27953
809.316	27717
809.458	27918
809.6	27861
809.741	27876
809.883	27926
810.025	28253
810.166	28242
810.308	28215
810.45	27998
810.591	28173
810.733	27880
810.875	27892
811.016	27778
811.158	27618
811.299	27846
811.441	27835
811.582	28147
811.724	27895
811.865	27781
812.007	27964
812.148	27857
812.29	27812
812.431	28211
812.573	28272
812.714	28322
812.855	28459
812.997	28386
813.138	28618
813.279	28493
813.421	28462
813.562	28299
813.703	28249
813.845	28036
813.986	27819
814.127	27545
814.268	27511
814.41	27641
814.551	27545
814.692	27587
814.833	27530
814.974	27427
815.115	27591
815.256	27462
815.397	27435
815.539	27405
815.68	27329
815.821	27313
815.962	27344
816.103	27382
816.244	27302
816.385	27150
816.526	27112
816.666	27013
816.807	26838
816.948	26853
817.089	26895
817.23	26864
817.371	26769
817.512	26689
817.653	26937
817.793	26819
817.934	26864
818.075	26796
818.216	26971
818.356	26819
818.497	26705
818.638	26564
818.778	26648
818.919	26697
819.06	26705
819.2	26689
819.341	26876
819.481	26773
819.622	27077
819.762	27154
819.903	27047
820.043	26982
820.184	26906
820.324	26872
820.465	27066
820.605	26925
820.746	26933
820.886	26872
821.026	26906
821.167	26990
821.307	27051
821.447	26921
821.588	26788
821.728	26781
821.868	26587
822.008	26244
822.149	26202
822.289	26339
822.429	25986
822.569	25997
822.709	26005
822.849	25864
822.99	25928
823.13	25750
823.27	25761
823.41	25632
823.55	25533
823.69	25704
823.83	25540
823.97	25563
824.11	25518
824.25	25499
824.389	25460
824.529	25438
824.669	25499
824.809	25677
824.949	25502
825.089	25540
825.228	25578
825.368	25434
825.508	25464
825.648	25457
825.787	25403
825.927	25392
826.067	25339
826.206	25377
826.346	25460
826.485	25316
826.625	25415
826.765	25396
826.904	25411
827.044	25179
827.183	25228
827.323	25091
827.462	25095
827.601	25012
827.741	25057
827.88	25095
828.02	24894
828.159	25126
828.298	25099
828.437	25091
828.577	24943
828.716	25168
828.855	24973
828.994	24707
829.134	24852
829.273	24867
829.412	24852
829.551	24650
829.69	24719
829.829	24730
829.968	24878
830.107	24886
830.246	24703
830.385	24722
830.524	24646
830.663	24502
830.802	24551
830.941	24300
831.08	24391
831.219	24513
831.357	24410
831.496	24620
831.635	24494
831.774	24220
831.913	24292
832.051	24064
832.19	24098
832.329	24213
832.467	24053
832.606	23992
832.744	24076
832.883	24102
833.022	24057
833.16	24003
833.299	24064
833.437	24011
833.576	24209
833.714	24182
833.852	24144
833.991	24239
834.129	24163
834.267	24281
834.406	24041
834.544	24106
834.682	24114
834.821	24003
834.959	24247
835.097	24072
835.235	24201
835.373	24072
835.511	24171
835.65	23988
835.788	24087
835.926	23726
836.064	23764
836.202	23775
836.34	24072
836.478	24026
836.615	23912
836.753	23958
836.891	23996
837.029	23931
837.167	23840
837.305	23855
837.443	23878
837.58	23767
837.718	23832
837.856	23748
837.993	23748
838.131	23714
838.269	23703
838.406	23665
838.544	23619
838.681	23474
838.819	23474
838.956	23231
839.094	23227
839.231	23341
839.369	23341
839.506	23608
839.643	23414
839.781	23284
839.918	23178
840.055	23231
840.193	23124
840.33	23261
840.467	23200
840.604	23246
840.742	23478
840.879	23010
841.016	23044
841.153	23242
841.29	23170
841.427	23204
841.564	23208
841.701	23200
841.838	23147
841.975	23052
842.112	23155
842.249	23006
842.385	23029
842.522	23159
842.659	22938
842.796	23006
842.933	22923
843.069	22828
843.206	22820
843.343	22946
843.479	23048
843.616	22858
843.752	22763
843.889	22759
844.025	22866
844.162	22702
844.298	22866
844.435	22668
844.571	22683
844.708	22805
844.844	22904
844.98	22744
845.117	22839
845.253	22599
845.389	22634
845.525	22637
845.661	22584
845.798	22382
845.934	22519
846.07	22447
846.206	22554
846.342	22504
846.478	22470
846.614	22162
846.75	22059
846.886	22128
847.022	22284
847.158	22261
847.294	22181
847.429	22257
847.565	22074
847.701	22390
847.837	21873
847.972	21926
848.108	22044
848.244	21934
848.379	21800
848.515	21808
848.65	21766
848.786	21751
848.921	21778
849.057	21945
849.192	21869
849.328	21930
849.463	21686
849.598	21732
849.734	21652
849.869	21656
850.004	21500
850.14	21625
850.275	21572
850.41	21370
850.545	21568
850.68	21496
850.815	21576
850.95	21450
851.085	21679
851.22	21644
851.355	21515
851.49	21526
851.625	21435
851.76	21507
851.895	21260
852.03	21511
852.165	21515
852.299	21530
852.434	21603
852.569	21568
852.703	21496
852.838	21485
852.973	21656
853.107	21705
853.242	21477
853.376	21363
853.511	21192
853.645	21306
853.78	21412
853.914	21439
854.048	21249
854.183	21397
854.317	21466
854.451	21504
854.585	21397
854.72	21340
854.854	21435
854.988	21294
855.122	21408
855.256	21325
855.39	21218
855.524	21382
855.658	21329
855.792	21378
855.926	21389
856.06	21428
856.194	21393
856.327	21348
856.461	21313
856.595	21336
856.729	21275
856.862	21492
856.996	21428
857.13	21485
857.263	21492
857.397	21424
857.53	21321
857.664	21329
857.797	21405
857.931	21481
858.064	21310
858.197	21363
858.331	21237
858.464	21294
858.597	21268
858.731	21222
858.864	21348
858.997	21389
859.13	21272
859.263	21367
859.396	21393
859.529	21302
859.662	21340
859.795	21329
859.928	21454
860.061	21401
860.194	21572
860.327	21355
860.46	21355
860.592	21511
860.725	21492
860.858	21378
860.99	21348
861.123	21298
861.256	21329
861.388	21374
861.521	22036
861.653	21256
861.786	21203
861.918	21211
862.05	21188
862.183	21340
862.315	21222
862.447	21329
862.58	21169
862.712	21119
862.844	21001
862.976	21173
863.108	21093
863.24	21526
863.372	20990
863.504	21066
863.636	21062
863.768	21112
863.9	21116
864.032	20990
864.164	21108
864.296	21173
864.428	21192
864.559	21154
864.691	21104
864.823	21005
864.954	21055
865.086	20906
865.217	21020
865.349	20750
865.48	20998
865.612	20963
865.743	21081
865.875	20960
866.006	21043
866.137	20918
866.269	20941
866.4	20910
866.531	20895
866.662	20819
866.793	20826
866.924	20777
867.055	20902
867.186	20952
867.317	20864
867.448	20864
867.579	20834
867.71	20826
867.841	20769
867.972	20868
868.103	20933
868.233	20842
868.364	20857
868.495	21005
868.625	21001
868.756	21161
868.886	21066
869.017	21062
869.147	21260
869.278	21108
869.408	21313
869.539	21150
869.669	21161
869.799	21176
869.929	21275
870.06	21096
870.19	21481
870.32	21382
870.45	21412
870.58	21526
870.71	21572
870.84	21618
870.97	21504
871.1	21488
871.23	21644
871.36	21762
871.489	21648
871.619	21766
871.749	21671
871.879	21739
872.008	21869
872.138	21835
872.267	21728
872.397	21618
872.526	21667
872.656	21625
872.785	21534
872.915	21717
873.044	21816
873.173	21774
873.303	21785
873.432	21785
873.561	21778
873.69	21743
873.819	21797
873.948	21869
874.077	21762
874.206	21622
874.335	21705
874.464	21850
874.593	21797
874.722	21922
874.851	21873
874.979	22013
875.108	22051
875.237	21857
875.365	21918
875.494	22017
875.623	22002
875.751	21949
875.88	21972
876.008	22112
876.136	22139
876.265	22402
876.393	22432
876.521	22402
876.65	22436
876.778	22284
876.906	22409
877.034	22325
877.162	22379
877.29	22268
877.418	22363
877.546	22348
877.674	22375
877.802	22261
877.93	22337
878.058	22303
878.185	22147
878.313	22272
878.441	22116
878.568	22139
878.696	22352
878.824	22386
878.951	22390
879.079	22474
879.206	22630
879.333	22516
879.461	22470
879.588	22462
879.715	22554
879.842	22596
879.97	22455
880.097	22074
880.224	22192
880.351	22211
880.478	22242
880.605	22029
880.732	22124
880.859	22466
880.986	22173
881.112	21987
881.239	22029
881.366	21937
881.493	21804
881.619	21656
881.746	21880
881.872	21732
881.999	21561
882.125	21633
882.252	21728
882.378	21675
882.505	21861
882.631	21648
882.757	21428
882.883	21488
883.01	21393
883.136	21370
883.262	21264
883.388	21260
883.514	21431
883.64	21507
883.766	21241
883.892	21176
884.018	21161
884.143	21519
884.269	21363
884.395	21192
884.52	20975
884.646	21036
884.772	21096
884.897	20933
885.023	21131
885.148	21062
885.274	21096
885.399	21043
885.524	21032
885.65	21070
885.775	21062
885.9	21161
886.025	21157
886.15	21188
886.275	20956
886.4	21032
886.525	21009
886.65	20929
886.775	21074
886.9	21192
887.025	21230
887.149	21020
887.274	20937
887.399	20868
887.523	20765
887.648	20777
887.773	20625
887.897	20796
888.021	20864
888.146	20765
888.27	20921
888.395	20899
888.519	20971
888.643	20788
888.767	20891
888.891	20758
889.015	20720
889.139	20720
889.263	20587
889.387	20720
889.511	20792
889.635	20788
889.759	20655
889.883	20602
890.006	20697
890.13	20750
890.254	20518
890.377	20511
890.501	20434
890.624	20446
890.748	20488
890.871	20355
890.995	20202
891.118	20092
891.241	20172
891.364	20206
891.488	20206
891.611	20210
891.734	20221
891.857	20237
891.98	20233
892.103	20263
892.226	20084
892.349	20164
892.471	20012
892.594	20107
892.717	20225
892.839	20081
892.962	20077
893.085	20138
893.207	20027
893.33	20027
893.452	20008
893.575	20103
893.697	20088
893.819	20214
893.941	20328
894.064	20126
894.186	20191
894.308	20050
894.43	20130
894.552	20225
894.674	20221
894.796	19997
894.918	20069
895.04	20031
895.161	20180
895.283	20149
895.405	19967
895.526	20092
895.648	20031
895.769	20054
895.891	20229
896.012	20172
896.134	20073
896.255	20092
896.376	20111
896.498	20046
896.619	20077
896.74	20043
896.861	20157
896.982	20347
897.103	20537
897.224	20377
897.345	20419
897.466	20320
897.587	20412
897.708	20434
897.828	20199
897.949	20259
898.07	20126
898.19	20237
898.311	20374
898.431	20164
898.552	20180
898.672	20396
898.792	20362
898.913	20461
899.033	20259
899.153	20058
899.273	20001
899.393	19989
899.513	20073
899.633	20122
899.753	20058
899.873	20012
899.993	20157
900.113	20058
900.232	19963
900.352	19833
900.472	19944
900.591	19799
900.711	19902
900.83	19784
900.95	19947
901.069	19925
901.189	19708
901.308	19407
901.427	19510
901.546	19335
901.665	19377
901.784	19407
901.904	19240
902.023	19213
902.141	18924
902.26	18856
902.379	18897
902.498	18882
902.617	18871
902.735	18973
902.854	18966
902.973	18920
903.091	18551
903.21	18582
903.328	18563
903.446	18460
903.565	18330
903.683	18536
903.801	18270
903.919	18342
904.038	18391
904.156	18232
904.274	18270
904.392	18133
904.51	18148
904.627	18140
904.745	18178
904.863	18114
904.981	17988
905.098	17904
905.216	17813
905.334	17813
905.451	17897
905.569	17866
905.686	17863
905.803	17790
905.921	17756
906.038	17676
906.155	17638
906.272	17497
906.389	17630
906.506	17421
906.623	17421
906.74	17379
906.857	17178
906.974	17265
907.091	17421
907.208	17512
907.324	17436
907.441	17353
907.557	17128
907.674	17079
907.79	17170
907.907	17136
908.023	17079
908.139	17117
908.256	17090
908.372	17041
908.488	17018
908.604	16904
908.72	16755
908.836	16896
908.952	16744
909.068	16831
909.184	16911
909.3	16900
909.415	16904
909.531	16801
909.647	16535
909.762	16546
909.878	16447
909.993	16428
910.108	16523
910.224	16489
910.339	16519
910.454	16413
910.57	16284
910.685	16280
910.8	16554
910.915	16455
911.03	16303
911.145	16150
911.259	16082
911.374	16150
911.489	16029
911.604	16044
911.718	15823
911.833	15785
911.947	15759
912.062	15675
912.176	15808
912.291	15819
912.405	15937
912.519	16093
912.633	16051
912.748	15983
912.862	15850
912.976	15831
913.09	15576
913.204	15564
913.318	15660
913.431	15819
913.545	15827
913.659	15816
913.772	15610
913.886	15473
914	15450
914.113	15618
914.226	15690
914.34	15701
914.453	15310
914.566	15507
914.68	15298
914.793	15363
914.906	15116
915.019	15093
915.132	15070
915.245	15169
915.358	15058
915.47	15085
915.583	15058
915.696	15066
915.809	15256
915.921	15211
916.034	14944
916.146	14963
916.259	14979
916.371	15013
916.483	14986
916.595	15024
916.708	14975
916.82	14853
916.932	14887
917.044	14948
917.156	14918
917.268	14807
917.38	14716
917.491	14739
917.603	14815
917.715	14731
917.826	14781
917.938	14606
918.049	14587
918.161	14758
918.272	14762
918.384	14743
918.495	14727
918.606	14545
918.717	14347
918.828	14575
918.939	14610
919.05	14454
919.161	14427
919.272	14294
919.383	14324
919.494	14598
919.604	14708
919.715	14415
919.826	14396
919.936	14434
920.047	14537
920.157	14530
920.267	14663
920.378	14495
920.488	14412
920.598	14613
920.708	14788
920.818	14560
920.928	14610
921.038	14735
921.148	14739
921.258	14507
921.368	14332
921.477	14161
921.587	14153
921.697	14157
921.806	14123
921.916	14119
922.025	13963
922.134	13818
922.244	13803
922.353	13822
922.462	13651
922.571	13689
922.68	13567
922.789	13430
922.898	13601
923.007	13369
923.116	13491
923.224	13495
923.333	13438
923.442	13460
923.55	13320
923.659	13358
923.767	13438
923.876	13285
923.984	13331
924.092	13251
924.201	13247
924.309	13228
924.417	13266
924.525	13103
924.633	13149
924.741	13997
924.849	12943
924.956	13122
925.064	13038
925.172	12890
925.279	12890
925.387	12985
925.494	12947
925.602	13019
925.709	12939
925.816	12825
925.924	12871
926.031	13061
926.138	12779
926.245	12890
926.352	12798
926.459	12825
926.566	12981
926.673	12760
926.779	12616
926.886	12662
926.993	12506
927.099	12509
927.206	12460
927.312	12410
927.419	12486
927.525	12471
927.631	12456
927.737	12391
927.843	12330
927.95	12247
928.056	12296
928.162	12319
928.267	12289
928.373	12920
928.479	12464
928.585	12213
928.69	12239
928.796	12308
928.901	12152
929.007	11973
929.112	12148
929.218	12178
929.323	12022
929.428	11958
929.533	12106
929.638	12026
929.743	11946
929.848	12026
929.953	11893
930.058	11847
930.163	11703
930.267	11752
930.372	11817
930.477	11710
930.581	11832
930.685	11699
930.79	11581
930.894	11623
930.998	11570
931.103	11726
931.207	11341
931.311	11181
931.415	11170
931.519	11064
931.623	10927
