Data from test_V78500241_3134.txt Node
Date: Fri Mar 25 15:31:41 CST 2022
User: usil
Spectrometer: V785-0024
Trigger mode: 0
Integration Time (sec): 4.000000E-1
Scans to average: 1
Nonlinearity correction enabled: false
Boxcar width: 0
Storing dark spectrum: false
XAxis mode: Wavelengths
Number of Pixels in Spectrum: 1024
>>>>>Begin Spectral Data<<<<<
801.071	27119
801.214	27062
801.356	26845
801.499	26769
801.641	26556
801.783	26617
801.926	26659
802.068	26507
802.211	26644
802.353	26492
802.496	26336
802.638	26187
802.78	26305
802.923	26031
803.065	26115
803.208	26138
803.35	26168
803.492	26195
803.635	26317
803.777	26317
803.919	26301
804.061	26689
804.204	26336
804.346	26244
804.488	26278
804.63	26328
804.773	26355
804.915	26221
805.057	26400
805.199	26301
805.341	26453
805.483	26511
805.626	26434
805.768	26351
805.91	26438
806.052	26438
806.194	26579
806.336	26514
806.478	26389
806.62	26336
806.762	26526
806.904	26731
807.046	26845
807.188	26838
807.33	26891
807.472	26906
807.614	26868
807.756	26800
807.898	26765
808.04	26530
808.182	26773
808.324	26750
808.465	26826
808.607	26872
808.749	27062
808.891	27077
809.033	27268
809.174	27184
809.316	27089
809.458	26960
809.6	27108
809.741	27062
809.883	27214
810.025	27268
810.166	27256
810.308	27325
810.45	27287
810.591	27260
810.733	27131
810.875	27116
811.016	27001
811.158	27001
811.299	27214
811.441	27245
811.582	27104
811.724	27055
811.865	26990
812.007	26883
812.148	26845
812.29	26960
812.431	27195
812.573	27279
812.714	27466
812.855	27671
812.997	27660
813.138	27800
813.279	27542
813.421	27633
813.562	27454
813.703	27351
813.845	27195
813.986	26929
814.127	26781
814.268	26670
814.41	26781
814.551	26674
814.692	26731
814.833	26571
814.974	26712
815.115	26705
815.256	26613
815.397	26621
815.539	26590
815.68	26568
815.821	26442
815.962	26366
816.103	26442
816.244	26320
816.385	26324
816.526	26199
816.666	26035
816.807	26054
816.948	25909
817.089	26065
817.23	25928
817.371	25906
817.512	25947
817.653	25856
817.793	25887
817.934	26024
818.075	26084
818.216	25997
818.356	25928
818.497	25761
818.638	25795
818.778	25635
818.919	25693
819.06	25864
819.2	25868
819.341	25925
819.481	25940
819.622	26046
819.762	26351
819.903	26176
820.043	26100
820.184	26005
820.324	26103
820.465	26134
820.605	26046
820.746	26046
820.886	26027
821.026	25997
821.167	25887
821.307	26157
821.447	25913
821.588	25795
821.728	25826
821.868	25552
822.008	25415
822.149	25388
822.289	25377
822.429	25137
822.569	25190
822.709	25190
822.849	24962
822.99	24947
823.13	24913
823.27	24886
823.41	24760
823.55	24722
823.69	24711
823.83	24741
823.97	24696
824.11	24471
824.25	24509
824.389	24433
824.529	24715
824.669	24498
824.809	24665
824.949	24612
825.089	24623
825.228	24620
825.368	24330
825.508	24448
825.648	24467
825.787	24429
825.927	24452
826.067	24330
826.206	24437
826.346	24395
826.485	24456
826.625	24422
826.765	24658
826.904	24407
827.044	24205
827.183	24136
827.323	24163
827.462	24247
827.601	24186
827.741	24155
827.88	24114
828.02	23950
828.159	24041
828.298	24178
828.437	24197
828.577	24064
828.716	24174
828.855	23996
828.994	23840
829.134	23851
829.273	23878
829.412	23817
829.551	23786
829.69	23878
829.829	23927
829.968	23805
830.107	23901
830.246	23764
830.385	23859
830.524	23767
830.663	23627
830.802	23509
830.941	23493
831.08	23402
831.219	23558
831.357	23516
831.496	23703
831.635	23531
831.774	23414
831.913	23280
832.051	23083
832.19	23269
832.329	23212
832.467	23018
832.606	23052
832.744	23029
832.883	23071
833.022	23258
833.16	23151
833.299	23132
833.437	23121
833.576	23227
833.714	23193
833.852	23162
833.991	23193
834.129	23242
834.267	23239
834.406	23197
834.544	23231
834.682	23124
834.821	23208
834.959	23425
835.097	23121
835.235	23246
835.373	23269
835.511	23098
835.65	23014
835.788	23022
835.926	22839
836.064	22847
836.202	22843
836.34	23037
836.478	22999
836.615	23105
836.753	22995
836.891	23124
837.029	23041
837.167	22984
837.305	23022
837.443	22885
837.58	22889
837.718	23029
837.856	23006
837.993	22850
838.131	22805
838.269	22824
838.406	22778
838.544	22713
838.681	22664
838.819	22417
838.956	22443
839.094	22382
839.231	22554
839.369	22493
839.506	22733
839.643	22596
839.781	22386
839.918	22436
840.055	22360
840.193	22299
840.33	22265
840.467	22344
840.604	22344
840.742	22523
840.879	22120
841.016	22295
841.153	22291
841.29	22329
841.427	22363
841.564	22333
841.701	22207
841.838	22246
841.975	22124
842.112	22226
842.249	22230
842.385	22090
842.522	22215
842.659	22230
842.796	22055
842.933	22044
843.069	22059
843.206	22040
843.343	22078
843.479	22017
843.616	22025
843.752	21774
843.889	21732
844.025	22078
844.162	21785
844.298	21922
844.435	21797
844.571	21812
844.708	21804
844.844	21983
844.98	22067
845.117	21994
845.253	21823
845.389	21865
845.525	21774
845.661	21667
845.798	21660
845.934	21671
846.07	21523
846.206	21686
846.342	21542
846.478	21485
846.614	21443
846.75	21378
846.886	21348
847.022	21389
847.158	21291
847.294	21458
847.429	21389
847.565	21355
847.701	21576
847.837	21093
847.972	20937
848.108	21157
848.244	21009
848.379	20899
848.515	21047
848.65	20819
848.786	20899
848.921	20823
849.057	21047
849.192	20963
849.328	20921
849.463	20979
849.598	20887
849.734	20853
849.869	20716
850.004	20579
850.14	20735
850.275	20670
850.41	20545
850.545	20632
850.68	20587
850.815	20648
850.95	20663
851.085	20872
851.22	20720
851.355	20796
851.49	20743
851.625	20648
851.76	20541
851.895	20568
852.03	20568
852.165	20689
852.299	20655
852.434	20788
852.569	20571
852.703	20693
852.838	20762
852.973	20845
853.107	20765
853.242	20560
853.376	20507
853.511	20313
853.645	20389
853.78	20613
853.914	20606
854.048	20423
854.183	20541
854.317	20522
854.451	20640
854.585	20583
854.72	20343
854.854	20609
854.988	20438
855.122	20423
855.256	20366
855.39	20381
855.524	20552
855.658	20492
855.792	20549
855.926	20549
856.06	20533
856.194	20602
856.327	20469
856.461	20465
856.595	20389
856.729	20579
856.862	20659
856.996	20514
857.13	20606
857.263	20640
857.397	20522
857.53	20355
857.664	20484
857.797	20560
857.931	20613
858.064	20514
858.197	20530
858.331	20583
858.464	20336
858.597	20358
858.731	20518
858.864	20415
858.997	20389
859.13	20492
859.263	20575
859.396	20583
859.529	20511
859.662	20469
859.795	20461
859.928	20404
860.061	20644
860.194	20712
860.327	20442
860.46	20484
860.592	20648
860.725	20602
860.858	20686
860.99	20450
861.123	20522
861.256	20374
861.388	20427
861.521	21108
861.653	20358
861.786	20172
861.918	20301
862.05	20404
862.183	20374
862.315	20385
862.447	20438
862.58	20568
862.712	20180
862.844	20248
862.976	20282
863.108	20199
863.24	20590
863.372	20107
863.504	20305
863.636	20237
863.768	20244
863.9	20084
864.032	20149
864.164	20142
864.296	20202
864.428	20343
864.559	20286
864.691	20301
864.823	20229
864.954	20149
865.086	20271
865.217	20119
865.349	20031
865.48	20142
865.612	20157
865.743	20225
865.875	20084
866.006	20119
866.137	20210
866.269	20142
866.4	20153
866.531	19997
866.662	19917
866.793	20100
866.924	20145
867.055	20103
867.186	19997
867.317	20031
867.448	19997
867.579	20107
867.71	19982
867.841	20008
867.972	20031
868.103	20077
868.233	20103
868.364	20020
868.495	20221
868.625	20221
868.756	20507
868.886	20271
869.017	20301
869.147	20339
869.278	20461
869.408	20355
869.539	20305
869.669	20438
869.799	20320
869.929	20408
870.06	20473
870.19	20636
870.32	20606
870.45	20575
870.58	20594
870.71	20785
870.84	20754
870.97	20746
871.1	20800
871.23	20762
871.36	20800
871.489	20826
871.619	20941
871.749	20925
871.879	20979
872.008	21017
872.138	20880
872.267	20918
872.397	20800
872.526	20731
872.656	20735
872.785	20644
872.915	20872
873.044	20971
873.173	20967
873.303	20921
873.432	20986
873.561	20982
873.69	21020
873.819	20872
873.948	21024
874.077	20842
874.206	20887
874.335	21051
874.464	21043
874.593	21184
874.722	21047
874.851	21184
874.979	21279
875.108	21245
875.237	21112
875.365	21116
875.494	21154
875.623	21249
875.751	21108
875.88	21237
876.008	21249
876.136	21439
876.265	21599
876.393	21762
876.521	21641
876.65	21717
876.778	21732
876.906	21370
877.034	21439
877.162	21591
877.29	21477
877.418	21523
877.546	21568
877.674	21568
877.802	21534
877.93	21507
878.058	21454
878.185	21321
878.313	21466
878.441	21557
878.568	21306
878.696	21458
878.824	21660
878.951	21606
879.079	21785
879.206	21743
879.333	21671
879.461	21564
879.588	21675
879.715	21751
879.842	21838
879.97	21637
880.097	21382
880.224	21416
880.351	21306
880.478	21332
880.605	21310
880.732	21389
880.859	21542
880.986	21332
881.112	21515
881.239	21275
881.366	21188
881.493	21020
881.619	21062
881.746	20998
881.872	20921
881.999	20944
882.125	20921
882.252	20963
882.378	20914
882.505	21127
882.631	20769
882.757	20705
882.883	20891
883.01	20644
883.136	20602
883.262	20583
883.388	20469
883.514	20686
883.64	20765
883.766	20564
883.892	20454
884.018	20442
884.143	20644
884.269	20651
884.395	20480
884.52	20206
884.646	20389
884.772	20278
884.897	20172
885.023	20290
885.148	20393
885.274	20465
885.399	20480
885.524	20377
885.65	20259
885.775	20336
885.9	20419
886.025	20305
886.15	20415
886.275	20233
886.4	20142
886.525	20267
886.65	20157
886.775	20130
886.9	20347
887.025	20522
887.149	20355
887.274	20126
887.399	20050
887.523	20134
887.648	20039
887.773	19959
887.897	20221
888.021	20100
888.146	20088
888.27	20073
888.395	20183
888.519	20065
888.643	20161
888.767	20119
888.891	20035
889.015	19826
889.139	20001
889.263	19887
889.387	20065
889.511	20161
889.635	19989
889.759	19894
889.883	19784
890.006	19925
890.13	19963
890.254	19811
890.377	19947
890.501	19635
890.624	19605
890.748	19704
890.871	19525
890.995	19434
891.118	19320
891.241	19460
891.364	19483
891.488	19571
891.611	19441
891.734	19502
891.857	19502
891.98	19491
892.103	19533
892.226	19502
892.349	19384
892.471	19339
892.594	19434
892.717	19502
892.839	19426
892.962	19339
893.085	19430
893.207	19453
893.33	19365
893.452	19274
893.575	19472
893.697	19381
893.819	19518
893.941	19590
894.064	19548
894.186	19445
894.308	19320
894.43	19396
894.552	19559
894.674	19499
894.796	19308
894.918	19316
895.04	19464
895.161	19487
895.283	19331
895.405	19430
895.526	19320
895.648	19266
895.769	19540
895.891	19312
896.012	19548
896.134	19369
896.255	19388
896.376	19430
896.498	19403
896.619	19400
896.74	19453
896.861	19392
896.982	19723
897.103	19860
897.224	19677
897.345	19624
897.466	19464
897.587	19575
897.708	19677
897.828	19803
897.949	19590
898.07	19575
898.19	19609
898.311	19769
898.431	19635
898.552	19643
898.672	19635
898.792	19807
898.913	19674
899.033	19480
899.153	19559
899.273	19289
899.393	19407
899.513	19384
899.633	19346
899.753	19502
899.873	19327
899.993	19449
900.113	19304
900.232	19441
900.352	19232
900.472	19137
900.591	19152
900.711	19122
900.83	19179
900.95	19388
901.069	19263
901.189	19046
901.308	18875
901.427	18757
901.546	18722
901.665	18875
901.784	18817
901.904	18585
902.023	18593
902.141	18395
902.26	18277
902.379	18399
902.498	18239
902.617	18155
902.735	18350
902.854	18251
902.973	18292
903.091	18015
903.21	18053
903.328	17984
903.446	17931
903.565	17855
903.683	17699
903.801	17767
903.919	17752
904.038	17718
904.156	17509
904.274	17592
904.392	17573
904.51	17516
904.627	17554
904.745	17551
904.863	17630
904.981	17356
905.098	17303
905.216	17170
905.334	17261
905.451	17284
905.569	17235
905.686	17307
905.803	17254
905.921	17045
906.038	17166
906.155	17018
906.272	16965
906.389	16866
906.506	16831
906.623	16820
906.74	16847
906.857	16634
906.974	16577
907.091	16755
907.208	16965
907.324	16797
907.441	16679
907.557	16523
907.674	16470
907.79	16386
907.907	16462
908.023	16569
908.139	16508
908.256	16504
908.372	16398
908.488	16417
908.604	16287
908.72	16135
908.836	16169
908.952	16166
909.068	16196
909.184	16360
909.3	16310
909.415	16310
909.531	16238
909.647	15968
909.762	16051
909.878	15892
909.993	15956
910.108	15926
910.224	15987
910.339	15892
910.454	15819
910.57	15724
910.685	15656
910.8	16067
910.915	15915
911.03	15720
911.145	15542
911.259	15614
911.374	15488
911.489	15454
911.604	15462
911.718	15355
911.833	15291
911.947	15169
912.062	15127
912.176	15321
912.291	15332
912.405	15279
912.519	15473
912.633	15553
912.748	15287
912.862	15363
912.976	15100
913.09	15100
913.204	14967
913.318	15146
913.431	15214
913.545	15135
913.659	15169
913.772	15074
913.886	14929
914	14952
914.113	14986
914.226	15097
914.34	14998
914.453	14754
914.566	14998
914.68	14864
914.793	14781
914.906	14670
915.019	14606
915.132	14518
915.245	14511
915.358	14575
915.47	14568
915.583	14522
915.696	14522
915.809	14667
915.921	14667
916.034	14579
916.146	14533
916.259	14358
916.371	14495
916.483	14552
916.595	14412
916.708	14450
916.82	14404
916.932	14412
917.044	14385
917.156	14298
917.268	14172
917.38	14305
917.491	14157
917.603	14191
917.715	14252
917.826	14412
917.938	14096
918.049	14062
918.161	14153
918.272	14305
918.384	14370
918.495	14138
918.606	14062
918.717	13936
918.828	14081
918.939	14039
919.05	13909
919.161	14001
919.272	13753
919.383	13860
919.494	13944
919.604	14237
919.715	14035
919.826	13822
919.936	13883
920.047	13963
920.157	13974
920.267	14111
920.378	14008
920.488	13921
920.598	14115
920.708	14286
920.818	14081
920.928	14134
921.038	14206
921.148	14240
921.258	13967
921.368	13795
921.477	13757
921.587	13685
921.697	13594
921.806	13712
921.916	13548
922.025	13403
922.134	13384
922.244	13346
922.353	13400
922.462	13320
922.571	13141
922.68	12977
922.789	13141
922.898	13038
923.007	13004
923.116	13031
923.224	12905
923.333	12928
923.442	12935
923.55	12760
923.659	12875
923.767	13008
923.876	12829
923.984	12932
924.092	12802
924.201	12848
924.309	12772
924.417	12852
924.525	12722
924.633	12726
924.741	13685
924.849	12456
924.956	12700
925.064	12563
925.172	12422
925.279	12471
925.387	12464
925.494	12506
925.602	12589
925.709	12483
925.816	12441
925.924	12464
926.031	12566
926.138	12494
926.245	12441
926.352	12422
926.459	12475
926.566	12437
926.673	12342
926.779	12209
926.886	12232
926.993	12133
927.099	12098
927.206	11958
927.312	12053
927.419	12095
927.525	12053
927.631	12045
927.737	11961
927.843	11840
927.95	11733
928.056	11809
928.162	11950
928.267	11946
928.373	12517
928.479	11999
928.585	11691
928.69	11904
928.796	11821
928.901	11722
929.007	11596
929.112	11726
929.218	11783
929.323	11668
929.428	11547
929.533	11752
929.638	11505
929.743	11436
929.848	11592
929.953	11463
930.058	11414
930.163	11341
930.267	11330
930.372	11448
930.477	11254
930.581	11566
930.685	11296
930.79	11265
930.894	11235
930.998	11166
931.103	11269
931.207	11006
931.311	10873
931.415	10831
931.519	10626
931.623	10603
