Data from test_V78500241_689.txt Node
Date: Fri Mar 25 15:14:39 CST 2022
User: usil
Spectrometer: V785-0024
Trigger mode: 0
Integration Time (sec): 4.000000E-1
Scans to average: 1
Nonlinearity correction enabled: false
Boxcar width: 0
Storing dark spectrum: false
XAxis mode: Wavelengths
Number of Pixels in Spectrum: 1024
>>>>>Begin Spectral Data<<<<<
801.071	28154
801.214	27964
801.356	27869
801.499	27781
801.641	27789
801.783	27720
801.926	27751
802.068	27800
802.211	27568
802.353	27481
802.496	27275
802.638	27302
802.78	27382
802.923	27401
803.065	27298
803.208	27306
803.35	27481
803.492	27462
803.635	27538
803.777	27378
803.919	27466
804.061	27728
804.204	27504
804.346	27466
804.488	27435
804.63	27553
804.773	27405
804.915	27523
805.057	27599
805.199	27481
805.341	27591
805.483	27633
805.626	27648
805.768	27473
805.91	27549
806.052	27648
806.194	27599
806.336	27926
806.478	27789
806.62	27675
806.762	27762
806.904	27903
807.046	28242
807.188	28101
807.33	28181
807.472	28162
807.614	28188
807.756	28082
807.898	27937
808.04	27994
808.182	28025
808.324	27979
808.465	28013
808.607	28261
808.749	28303
808.891	28352
809.033	28527
809.174	28459
809.316	28329
809.458	28352
809.6	28325
809.741	28421
809.883	28592
810.025	28603
810.166	28546
810.308	28615
810.45	28603
810.591	28641
810.733	28432
810.875	28242
811.016	28219
811.158	28192
811.299	28394
811.441	28577
811.582	28538
811.724	28314
811.865	28253
812.007	28276
812.148	28268
812.29	28398
812.431	28557
812.573	28786
812.714	28793
812.855	29052
812.997	29048
813.138	29216
813.279	28999
813.421	28968
813.562	28767
813.703	28778
813.845	28538
813.986	28253
814.127	28219
814.268	27922
814.41	28036
814.551	28120
814.692	28166
814.833	28116
814.974	27953
815.115	28112
815.256	27953
815.397	27884
815.539	27987
815.68	27918
815.821	27789
815.962	28059
816.103	27907
816.244	27800
816.385	27747
816.526	27720
816.666	27378
816.807	27405
816.948	27500
817.089	27595
817.23	27363
817.371	27340
817.512	27561
817.653	27405
817.793	27374
817.934	27355
818.075	27317
818.216	27462
818.356	27256
818.497	27363
818.638	27188
818.778	27081
818.919	27119
819.06	27123
819.2	27233
819.341	27424
819.481	27249
819.622	27633
819.762	27629
819.903	27561
820.043	27618
820.184	27481
820.324	27473
820.465	27447
820.605	27564
820.746	27466
820.886	27199
821.026	27485
821.167	27412
821.307	27485
821.447	27370
821.588	27302
821.728	27001
821.868	26929
822.008	26883
822.149	26880
822.289	26785
822.429	26629
822.569	26511
822.709	26613
822.849	26503
822.99	26282
823.13	26248
823.27	26294
823.41	26263
823.55	26005
823.69	26218
823.83	26050
823.97	26134
824.11	25906
824.25	25906
824.389	26020
824.529	26191
824.669	26100
824.809	26103
824.949	26065
825.089	26065
825.228	26107
825.368	25871
825.508	25826
825.648	25849
825.787	25849
825.927	25875
826.067	25864
826.206	25818
826.346	25864
826.485	25898
826.625	25746
826.765	26039
826.904	25830
827.044	25696
827.183	25620
827.323	25457
827.462	25548
827.601	25586
827.741	25491
827.88	25632
828.02	25373
828.159	25552
828.298	25533
828.437	25601
828.577	25525
828.716	25616
828.855	25449
828.994	25453
829.134	25278
829.273	25244
829.412	25396
829.551	25217
829.69	25274
829.829	25221
829.968	25377
830.107	25308
830.246	25209
830.385	25221
830.524	25232
830.663	25107
830.802	25000
830.941	24920
831.08	24749
831.219	24901
831.357	24913
831.496	25061
831.635	24810
831.774	24852
831.913	24764
832.051	24536
832.19	24639
832.329	24806
832.467	24563
832.606	24414
832.744	24467
832.883	24578
833.022	24608
833.16	24547
833.299	24700
833.437	24604
833.576	24700
833.714	24585
833.852	24570
833.991	24688
834.129	24650
834.267	24715
834.406	24532
834.544	24642
834.682	24612
834.821	24563
834.959	24715
835.097	24494
835.235	24665
835.373	24642
835.511	24494
835.65	24601
835.788	24467
835.926	24422
836.064	24304
836.202	24296
836.34	24479
836.478	24578
836.615	24509
836.753	24403
836.891	24448
837.029	24452
837.167	24452
837.305	24361
837.443	24285
837.58	24338
837.718	24353
837.856	24327
837.993	24152
838.131	24338
838.269	24289
838.406	24254
838.544	23984
838.681	23931
838.819	23889
838.956	23764
839.094	23737
839.231	23809
839.369	23927
839.506	24098
839.643	24079
839.781	23771
839.918	23733
840.055	23684
840.193	23790
840.33	23718
840.467	23661
840.604	23767
840.742	23889
840.879	23497
841.016	23562
841.153	23566
841.29	23748
841.427	23714
841.564	23764
841.701	23642
841.838	23539
841.975	23505
842.112	23467
842.249	23459
842.385	23482
842.522	23554
842.659	23478
842.796	23322
842.933	23337
843.069	23322
843.206	23398
843.343	23459
843.479	23448
843.616	23478
843.752	23227
843.889	23261
844.025	23277
844.162	23086
844.298	23277
844.435	23269
844.571	23090
844.708	23208
844.844	23387
844.98	23223
845.117	23269
845.253	23083
845.389	23083
845.525	23056
845.661	23056
845.798	22835
845.934	23006
846.07	22949
846.206	22934
846.342	23094
846.478	22911
846.614	22790
846.75	22668
846.886	22611
847.022	22755
847.158	22683
847.294	22713
847.429	22717
847.565	22668
847.701	22911
847.837	22455
847.972	22356
848.108	22565
848.244	22611
848.379	22185
848.515	22223
848.65	22246
848.786	22280
848.921	22246
849.057	22360
849.192	22405
849.328	22295
849.463	22226
849.598	22253
849.734	22131
849.869	22154
850.004	22029
850.14	22074
850.275	22002
850.41	21941
850.545	22021
850.68	21953
850.815	22086
850.95	21991
851.085	22029
851.22	22120
851.355	22044
851.49	22021
851.625	22059
851.76	21949
851.895	21953
852.03	21915
852.165	22055
852.299	22032
852.434	22226
852.569	21991
852.703	22109
852.838	22101
852.973	22181
853.107	22074
853.242	21956
853.376	21861
853.511	21553
853.645	21797
853.78	21975
853.914	21831
854.048	21838
854.183	21812
854.317	21861
854.451	22029
854.585	21842
854.72	21743
854.854	21838
854.988	21842
855.122	21876
855.256	21793
855.39	21880
855.524	21892
855.658	21960
855.792	21873
855.926	21789
856.06	21842
856.194	21949
856.327	21827
856.461	21876
856.595	21930
856.729	21789
856.862	21911
856.996	21800
857.13	21956
857.263	22032
857.397	21934
857.53	21804
857.664	21854
857.797	21842
857.931	21937
858.064	21835
858.197	21854
858.331	21755
858.464	21808
858.597	21759
858.731	21705
858.864	21778
858.997	21739
859.13	21857
859.263	21861
859.396	21953
859.529	21736
859.662	21694
859.795	21797
859.928	21861
860.061	21983
860.194	22036
860.327	21812
860.46	21736
860.592	21994
860.725	22017
860.858	21915
860.99	21812
861.123	21793
861.256	21865
861.388	21857
861.521	22725
861.653	21705
861.786	21641
861.918	21663
862.05	21667
862.183	21736
862.315	21736
862.447	21873
862.58	21641
862.712	21618
862.844	21542
862.976	21591
863.108	21576
863.24	21915
863.372	21367
863.504	21538
863.636	21568
863.768	21450
863.9	21641
864.032	21336
864.164	21408
864.296	21641
864.428	21667
864.559	21595
864.691	21694
864.823	21553
864.954	21412
865.086	21485
865.217	21458
865.349	21386
865.48	21408
865.612	21443
865.743	21557
865.875	21389
866.006	21374
866.137	21454
866.269	21336
866.4	21321
866.531	21458
866.662	21180
866.793	21321
866.924	21272
867.055	21477
867.186	21443
867.317	21462
867.448	21283
867.579	21374
867.71	21332
867.841	21348
867.972	21325
868.103	21428
868.233	21344
868.364	21283
868.495	21447
868.625	21523
868.756	21766
868.886	21523
869.017	21591
869.147	21759
869.278	21690
869.408	21553
869.539	21462
869.669	21641
869.799	21755
869.929	21743
870.06	21564
870.19	21964
870.32	21926
870.45	21949
870.58	21907
870.71	22082
870.84	22101
870.97	21960
871.1	21975
871.23	22211
871.36	22105
871.489	22097
871.619	22036
871.749	22109
871.879	22128
872.008	22409
872.138	22200
872.267	22162
872.397	22139
872.526	22051
872.656	22002
872.785	22029
872.915	22238
873.044	22249
873.173	22268
873.303	22169
873.432	22253
873.561	22287
873.69	22382
873.819	22246
873.948	22318
874.077	22200
874.206	22040
874.335	22211
874.464	22394
874.593	22417
874.722	22531
874.851	22402
874.979	22367
875.108	22481
875.237	22436
875.365	22390
875.494	22390
875.623	22455
875.751	22303
875.88	22402
876.008	22516
876.136	22637
876.265	22889
876.393	23048
876.521	22862
876.65	22786
876.778	22721
876.906	22778
877.034	22702
877.162	22675
877.29	22599
877.418	22744
877.546	22702
877.674	22599
877.802	22786
877.93	22771
878.058	22736
878.185	22630
878.313	22752
878.441	22679
878.568	22565
878.696	22679
878.824	22828
878.951	22664
879.079	22839
879.206	23048
879.333	22900
879.461	22828
879.588	22866
879.715	22923
879.842	22972
879.97	22767
880.097	22645
880.224	22569
880.351	22653
880.478	22573
880.605	22554
880.732	22478
880.859	22767
880.986	22519
881.112	22561
881.239	22402
881.366	22344
881.493	22207
881.619	22040
881.746	22295
881.872	22204
881.999	22090
882.125	22010
882.252	22154
882.378	22044
882.505	22204
882.631	21956
882.757	21937
882.883	21876
883.01	21899
883.136	21736
883.262	21625
883.388	21507
883.514	21774
883.64	21884
883.766	21759
883.892	21641
884.018	21633
884.143	21812
884.269	21835
884.395	21488
884.52	21447
884.646	21545
884.772	21275
884.897	21363
885.023	21466
885.148	21637
885.274	21549
885.399	21492
885.524	21428
885.65	21580
885.775	21439
885.9	21435
886.025	21462
886.15	21542
886.275	21397
886.4	21435
886.525	21519
886.65	21332
886.775	21382
886.9	21694
887.025	21667
887.149	21348
887.274	21306
887.399	21161
887.523	21241
887.648	21150
887.773	21127
887.897	21207
888.021	21241
888.146	21070
888.27	21272
888.395	21344
888.519	21211
888.643	21245
888.767	21256
888.891	21116
889.015	21093
889.139	21135
889.263	20971
889.387	21028
889.511	21287
889.635	21169
889.759	20948
889.883	21066
890.006	21017
890.13	21100
890.254	20826
890.377	21009
890.501	20830
890.624	20727
890.748	20785
890.871	20697
890.995	20598
891.118	20575
891.241	20602
891.364	20632
891.488	20606
891.611	20651
891.734	20682
891.857	20667
891.98	20621
892.103	20587
892.226	20526
892.349	20552
892.471	20317
892.594	20488
892.717	20602
892.839	20632
892.962	20511
893.085	20560
893.207	20537
893.33	20389
893.452	20404
893.575	20587
893.697	20545
893.819	20651
893.941	20609
894.064	20518
894.186	20492
894.308	20404
894.43	20629
894.552	20625
894.674	20530
894.796	20438
894.918	20442
895.04	20499
895.161	20590
895.283	20541
895.405	20309
895.526	20457
895.648	20480
895.769	20541
895.891	20488
896.012	20396
896.134	20461
896.255	20484
896.376	20431
896.498	20488
896.619	20476
896.74	20492
896.861	20590
896.982	20762
897.103	20872
897.224	20819
897.345	20754
897.466	20625
897.587	20762
897.708	20788
897.828	20632
897.949	20590
898.07	20495
898.19	20545
898.311	20705
898.431	20598
898.552	20758
898.672	20819
898.792	20796
898.913	20621
899.033	20590
899.153	20332
899.273	20374
899.393	20541
899.513	20514
899.633	20473
899.753	20492
899.873	20309
899.993	20522
900.113	20396
900.232	20374
900.352	20309
900.472	20301
900.591	20195
900.711	20229
900.83	20214
900.95	20233
901.069	20286
901.189	20043
901.308	19955
901.427	19803
901.546	19822
901.665	19822
901.784	19788
901.904	19719
902.023	19537
902.141	19343
902.26	19293
902.379	19396
902.498	19312
902.617	19244
902.735	19491
902.854	19285
902.973	19221
903.091	19133
903.21	18932
903.328	18947
903.446	18901
903.565	18924
903.683	18768
903.801	18711
903.919	18692
904.038	18749
904.156	18589
904.274	18658
904.392	18521
904.51	18528
904.627	18369
904.745	18494
904.863	18623
904.981	18388
905.098	18224
905.216	18228
905.334	18224
905.451	18254
905.569	18243
905.686	18224
905.803	18308
905.921	17999
906.038	18106
906.155	18019
906.272	17973
906.389	17931
906.506	17866
906.623	17779
906.74	17790
906.857	17722
906.974	17611
907.091	17904
907.208	17923
907.324	17741
907.441	17604
907.557	17486
907.674	17436
907.79	17337
907.907	17436
908.023	17516
908.139	17486
908.256	17463
908.372	17330
908.488	17330
908.604	17185
908.72	17102
908.836	17181
908.952	17147
909.068	17273
909.184	17372
909.3	17166
909.415	17299
909.531	17197
909.647	16858
909.762	16915
909.878	16782
909.993	16934
910.108	16831
910.224	16831
910.339	16858
910.454	16831
910.57	16725
910.685	16542
910.8	16961
910.915	16881
911.03	16744
911.145	16542
911.259	16459
911.374	16436
911.489	16356
911.604	16360
911.718	16211
911.833	16291
911.947	16143
912.062	16051
912.176	16249
912.291	16200
912.405	16185
912.519	16424
912.633	16413
912.748	16200
912.862	16265
912.976	16002
913.09	15960
913.204	15960
913.318	16055
913.431	16090
913.545	15964
913.659	16135
913.772	16010
913.886	15861
914	15922
914.113	15975
914.226	15987
914.34	15941
914.453	15701
914.566	15812
914.68	15747
914.793	15625
914.906	15488
915.019	15477
915.132	15424
915.245	15496
915.358	15397
915.47	15507
915.583	15435
915.696	15428
915.809	15572
915.921	15466
916.034	15336
916.146	15325
916.259	15351
916.371	15393
916.483	15393
916.595	15317
916.708	15199
916.82	15260
916.932	15226
917.044	15260
917.156	15173
917.268	15077
917.38	15093
917.491	15066
917.603	15089
917.715	15070
917.826	15188
917.938	14998
918.049	14937
918.161	15017
918.272	15180
918.384	15100
918.495	14975
918.606	14849
918.717	14853
918.828	14781
918.939	14838
919.05	14765
919.161	14769
919.272	14564
919.383	14746
919.494	14895
919.604	14975
919.715	14819
919.826	14648
919.936	14758
920.047	14838
920.157	14845
920.267	14963
920.378	14804
920.488	14769
920.598	14941
920.708	15070
920.818	14899
920.928	14857
921.038	15108
921.148	15085
921.258	14708
921.368	14629
921.477	14560
921.587	14522
921.697	14400
921.806	14541
921.916	14336
922.025	14134
922.134	14161
922.244	14202
922.353	14161
922.462	13967
922.571	13883
922.68	13807
922.789	13830
922.898	13845
923.007	13723
923.116	13746
923.224	13757
923.333	13727
923.442	13636
923.55	13655
923.659	13662
923.767	13731
923.876	13544
923.984	13632
924.092	13453
924.201	13632
924.309	13502
924.417	13525
924.525	13403
924.633	13411
924.741	14164
924.849	13240
924.956	13362
925.064	13331
925.172	13175
925.279	13236
925.387	13190
925.494	13129
925.602	13266
925.709	13149
925.816	13107
925.924	13031
926.031	13217
926.138	13141
926.245	13217
926.352	13023
926.459	13209
926.566	13240
926.673	13050
926.779	12958
926.886	12909
926.993	12802
927.099	12745
927.206	12814
927.312	12760
927.419	12616
927.525	12840
927.631	12722
927.737	12696
927.843	12547
927.95	12506
928.056	12620
928.162	12650
928.267	12635
928.373	13221
928.479	12646
928.585	12426
928.69	12376
928.796	12498
928.901	12407
929.007	12270
929.112	12460
929.218	12403
929.323	12391
929.428	12281
929.533	12407
929.638	12266
929.743	12194
929.848	12254
929.953	12178
930.058	12083
930.163	12026
930.267	11969
930.372	12079
930.477	11969
930.581	12095
930.685	12083
930.79	11859
930.894	11897
930.998	11897
931.103	11923
931.207	11592
931.311	11535
931.415	11467
931.519	11242
931.623	11242
