Data from test_V78500241_1372.txt Node
Date: Fri Mar 25 15:19:24 CST 2022
User: usil
Spectrometer: V785-0024
Trigger mode: 0
Integration Time (sec): 4.000000E-1
Scans to average: 1
Nonlinearity correction enabled: false
Boxcar width: 0
Storing dark spectrum: false
XAxis mode: Wavelengths
Number of Pixels in Spectrum: 1024
>>>>>Begin Spectral Data<<<<<
801.071	28200
801.214	28139
801.356	27854
801.499	27701
801.641	27610
801.783	27709
801.926	27778
802.068	27720
802.211	27641
802.353	27698
802.496	27386
802.638	27416
802.78	27306
802.923	27188
803.065	27230
803.208	27249
803.35	27408
803.492	27450
803.635	27477
803.777	27408
803.919	27606
804.061	27953
804.204	27625
804.346	27355
804.488	27439
804.63	27511
804.773	27408
804.915	27542
805.057	27713
805.199	27526
805.341	27751
805.483	27671
805.626	27724
805.768	27595
805.91	27686
806.052	27720
806.194	27485
806.336	27926
806.478	27652
806.62	27739
806.762	27762
806.904	28051
807.046	28154
807.188	28090
807.33	28230
807.472	28322
807.614	28074
807.756	28048
807.898	28040
808.04	27930
808.182	27945
808.324	27903
808.465	27956
808.607	28181
808.749	28367
808.891	28401
809.033	28622
809.174	28409
809.316	28367
809.458	28314
809.6	28306
809.741	28436
809.883	28626
810.025	28622
810.166	28443
810.308	28649
810.45	28573
810.591	28459
810.733	28409
810.875	28204
811.016	28284
811.158	28265
811.299	28428
811.441	28428
811.582	28546
811.724	28363
811.865	28352
812.007	28325
812.148	28352
812.29	28481
812.431	28466
812.573	28641
812.714	28717
812.855	28835
812.997	28908
813.138	29071
813.279	29018
813.421	29018
813.562	28877
813.703	28733
813.845	28729
813.986	28295
814.127	28386
814.268	28112
814.41	28188
814.551	28162
814.692	28173
814.833	28002
814.974	27888
815.115	28025
815.256	28013
815.397	28059
815.539	27953
815.68	27949
815.821	27778
815.962	28010
816.103	27888
816.244	27671
816.385	27572
816.526	27713
816.666	27466
816.807	27363
816.948	27545
817.089	27363
817.23	27458
817.371	27386
817.512	27370
817.653	27287
817.793	27389
817.934	27233
818.075	27469
818.216	27348
818.356	27291
818.497	27256
818.638	26979
818.778	27150
818.919	27127
819.06	27176
819.2	27218
819.341	27268
819.481	27260
819.622	27679
819.762	27633
819.903	27644
820.043	27545
820.184	27466
820.324	27481
820.465	27622
820.605	27344
820.746	27393
820.886	27534
821.026	27397
821.167	27504
821.307	27405
821.447	27329
821.588	27165
821.728	27237
821.868	26971
822.008	26887
822.149	26720
822.289	26834
822.429	26670
822.569	26613
822.709	26514
822.849	26336
822.99	26282
823.13	26415
823.27	26377
823.41	26149
823.55	26096
823.69	26210
823.83	26187
823.97	26119
824.11	25974
824.25	25898
824.389	26005
824.529	26183
824.669	26005
824.809	26119
824.949	26062
825.089	26073
825.228	26050
825.368	25826
825.508	25830
825.648	25795
825.787	25940
825.927	25947
826.067	25799
826.206	25776
826.346	25833
826.485	25940
826.625	25822
826.765	26031
826.904	25951
827.044	25609
827.183	25563
827.323	25582
827.462	25518
827.601	25537
827.741	25552
827.88	25609
828.02	25556
828.159	25643
828.298	25533
828.437	25514
828.577	25537
828.716	25662
828.855	25464
828.994	25236
829.134	25247
829.273	25403
829.412	25251
829.551	25274
829.69	25339
829.829	25381
829.968	25228
830.107	25343
830.246	25266
830.385	25304
830.524	25190
830.663	24920
830.802	24939
830.941	24772
831.08	24894
831.219	24939
831.357	25034
831.496	25190
831.635	24821
831.774	24882
831.913	24783
832.051	24715
832.19	24593
832.329	24677
832.467	24555
832.606	24551
832.744	24448
832.883	24620
833.022	24528
833.16	24597
833.299	24574
833.437	24669
833.576	24620
833.714	24597
833.852	24696
833.991	24559
834.129	24646
834.267	24715
834.406	24707
834.544	24551
834.682	24677
834.821	24601
834.959	24768
835.097	24540
835.235	24612
835.373	24593
835.511	24616
835.65	24460
835.788	24589
835.926	24319
836.064	24201
836.202	24258
836.34	24475
836.478	24559
836.615	24399
836.753	24426
836.891	24479
837.029	24429
837.167	24391
837.305	24315
837.443	24467
837.58	24319
837.718	24426
837.856	24216
837.993	24152
838.131	24247
838.269	24091
838.406	24155
838.544	23973
838.681	23988
838.819	23817
838.956	23893
839.094	23729
839.231	23676
839.369	23855
839.506	24087
839.643	23904
839.781	23813
839.918	23733
840.055	23786
840.193	23668
840.33	23665
840.467	23630
840.604	23668
840.742	23866
840.879	23703
841.016	23611
841.153	23638
841.29	23737
841.427	23577
841.564	23676
841.701	23592
841.838	23756
841.975	23604
842.112	23455
842.249	23486
842.385	23379
842.522	23604
842.659	23497
842.796	23337
842.933	23410
843.069	23353
843.206	23452
843.343	23543
843.479	23364
843.616	23490
843.752	23170
843.889	23315
844.025	23429
844.162	23208
844.298	23277
844.435	23227
844.571	23284
844.708	23197
844.844	23284
844.98	23410
845.117	23223
845.253	23208
845.389	23075
845.525	23121
845.661	22961
845.798	22980
845.934	22987
846.07	22892
846.206	22972
846.342	22961
846.478	22957
846.614	22790
846.75	22569
846.886	22656
847.022	22607
847.158	22622
847.294	22759
847.429	22717
847.565	22626
847.701	22869
847.837	22394
847.972	22493
848.108	22592
848.244	22455
848.379	22379
848.515	22265
848.65	22284
848.786	22211
848.921	22226
849.057	22261
849.192	22261
849.328	22379
849.463	22147
849.598	22135
849.734	22150
849.869	22116
850.004	22044
850.14	22025
850.275	21998
850.41	22074
850.545	21903
850.68	21964
850.815	21998
850.95	21911
851.085	22246
851.22	22128
851.355	21964
851.49	21991
851.625	21861
851.76	21964
851.895	21895
852.03	21835
852.165	21937
852.299	21930
852.434	22048
852.569	21987
852.703	21998
852.838	22147
852.973	22181
853.107	22101
853.242	22051
853.376	21869
853.511	21816
853.645	21732
853.78	21812
853.914	21865
854.048	21747
854.183	21827
854.317	21854
854.451	21941
854.585	21800
854.72	21838
854.854	21949
854.988	21694
855.122	21846
855.256	21599
855.39	21865
855.524	21861
855.658	21819
855.792	21869
855.926	21915
856.06	21838
856.194	21884
856.327	21819
856.461	21713
856.595	21633
856.729	21759
856.862	21949
856.996	21835
857.13	21869
857.263	22006
857.397	21903
857.53	21747
857.664	21937
857.797	21876
857.931	21831
858.064	21831
858.197	21960
858.331	21804
858.464	21800
858.597	21774
858.731	21679
858.864	21751
858.997	21819
859.13	21816
859.263	21892
859.396	21804
859.529	21606
859.662	21808
859.795	21797
859.928	21770
860.061	21975
860.194	21972
860.327	21857
860.46	21816
860.592	21888
860.725	21972
860.858	21941
860.99	21861
861.123	21701
861.256	21793
861.388	21774
861.521	22382
861.653	21827
861.786	21724
861.918	21671
862.05	21739
862.183	21759
862.315	21671
862.447	21781
862.58	21720
862.712	21641
862.844	21576
862.976	21644
863.108	21606
863.24	21949
863.372	21583
863.504	21507
863.636	21424
863.768	21553
863.9	21515
864.032	21317
864.164	21542
864.296	21454
864.428	21625
864.559	21633
864.691	21564
864.823	21511
864.954	21530
865.086	21507
865.217	21370
865.349	21443
865.48	21298
865.612	21363
865.743	21477
865.875	21332
866.006	21367
866.137	21374
866.269	21351
866.4	21370
866.531	21462
866.662	21249
866.793	21214
866.924	21336
867.055	21241
867.186	21397
867.317	21355
867.448	21214
867.579	21325
867.71	21207
867.841	21268
867.972	21294
868.103	21245
868.233	21291
868.364	21302
868.495	21488
868.625	21416
868.756	21705
868.886	21526
869.017	21507
869.147	21625
869.278	21701
869.408	21675
869.539	21644
869.669	21694
869.799	21549
869.929	21614
870.06	21644
870.19	21972
870.32	21873
870.45	21895
870.58	22017
870.71	22078
870.84	22086
870.97	21930
871.1	21888
871.23	22078
871.36	21991
871.489	22101
871.619	22135
871.749	22040
871.879	22276
872.008	22207
872.138	22162
872.267	22143
872.397	22105
872.526	21998
872.656	22048
872.785	22010
872.915	22261
873.044	22257
873.173	22291
873.303	22223
873.432	22276
873.561	22238
873.69	22124
873.819	22211
873.948	22276
874.077	22207
874.206	22131
874.335	22112
874.464	22337
874.593	22428
874.722	22341
874.851	22363
874.979	22371
875.108	22409
875.237	22310
875.365	22367
875.494	22322
875.623	22512
875.751	22478
875.88	22424
876.008	22516
876.136	22584
876.265	22793
876.393	22991
876.521	22641
876.65	22771
876.778	22805
876.906	22748
877.034	22759
877.162	22698
877.29	22740
877.418	22729
877.546	22771
877.674	22733
877.802	22706
877.93	22660
878.058	22702
878.185	22656
878.313	22630
878.441	22828
878.568	22672
878.696	22710
878.824	22691
878.951	22782
879.079	22862
879.206	22885
879.333	22843
879.461	22694
879.588	22790
879.715	23003
879.842	22938
879.97	22736
880.097	22588
880.224	22481
880.351	22702
880.478	22618
880.605	22508
880.732	22588
880.859	22683
880.986	22607
881.112	22550
881.239	22527
881.366	22421
881.493	22230
881.619	22253
881.746	22154
881.872	22154
881.999	22150
882.125	22063
882.252	22196
882.378	22074
882.505	22196
882.631	21918
882.757	21880
882.883	22040
883.01	21915
883.136	21781
883.262	21724
883.388	21781
883.514	21876
883.64	21835
883.766	21694
883.892	21564
884.018	21679
884.143	21876
884.269	21873
884.395	21492
884.52	21492
884.646	21462
884.772	21405
884.897	21378
885.023	21473
885.148	21485
885.274	21656
885.399	21568
885.524	21473
885.65	21435
885.775	21450
885.9	21435
886.025	21538
886.15	21526
886.275	21313
886.4	21370
886.525	21450
886.65	21450
886.775	21363
886.9	21603
887.025	21656
887.149	21492
887.274	21313
887.399	21249
887.523	21279
887.648	21272
887.773	21127
887.897	21298
888.021	21302
888.146	21001
888.27	21233
888.395	21195
888.519	21222
888.643	21283
888.767	21249
888.891	21127
889.015	20967
889.139	20986
889.263	20975
889.387	21184
889.511	21291
889.635	21180
889.759	20944
889.883	20823
890.006	21001
890.13	21180
890.254	20918
890.377	20880
890.501	20750
890.624	20697
890.748	20731
890.871	20629
890.995	20602
891.118	20522
891.241	20621
891.364	20552
891.488	20708
891.611	20495
891.734	20549
891.857	20606
891.98	20533
892.103	20621
892.226	20571
892.349	20571
892.471	20351
892.594	20438
892.717	20511
892.839	20434
892.962	20503
893.085	20564
893.207	20503
893.33	20309
893.452	20396
893.575	20552
893.697	20336
893.819	20701
893.941	20724
894.064	20716
894.186	20427
894.308	20427
894.43	20499
894.552	20644
894.674	20598
894.796	20412
894.918	20518
895.04	20366
895.161	20590
895.283	20503
895.405	20480
895.526	20427
895.648	20438
895.769	20514
895.891	20575
896.012	20442
896.134	20556
896.255	20609
896.376	20484
896.498	20442
896.619	20552
896.74	20442
896.861	20587
896.982	20849
897.103	20929
897.224	20693
897.345	20727
897.466	20678
897.587	20743
897.708	20720
897.828	20785
897.949	20545
898.07	20549
898.19	20606
898.311	20834
898.431	20629
898.552	20670
898.672	20750
898.792	20686
898.913	20743
899.033	20541
899.153	20385
899.273	20412
899.393	20476
899.513	20514
899.633	20400
899.753	20503
899.873	20457
899.993	20473
900.113	20427
900.232	20282
900.352	20332
900.472	20309
900.591	20107
900.711	20149
900.83	20081
900.95	20294
901.069	20195
901.189	20153
901.308	19864
901.427	19849
901.546	19871
901.665	19761
901.784	19734
901.904	19769
902.023	19765
902.141	19521
902.26	19381
902.379	19396
902.498	19365
902.617	19202
902.735	19358
902.854	19255
902.973	19187
903.091	19065
903.21	19084
903.328	19027
903.446	18791
903.565	18867
903.683	18993
903.801	18669
903.919	18681
904.038	18681
904.156	18521
904.274	18650
904.392	18559
904.51	18631
904.627	18456
904.745	18414
904.863	18635
904.981	18350
905.098	18194
905.216	18209
905.334	18254
905.451	18277
905.569	18121
905.686	18171
905.803	18152
905.921	18053
906.038	18144
906.155	18098
906.272	17813
906.389	17927
906.506	17729
906.623	17836
906.74	17775
906.857	17554
906.974	17726
907.091	17882
907.208	17878
907.324	17764
907.441	17703
907.557	17493
907.674	17501
907.79	17353
907.907	17452
908.023	17452
908.139	17448
908.256	17356
908.372	17417
908.488	17311
908.604	17220
908.72	17151
908.836	17246
908.952	17204
909.068	17216
909.184	17265
909.3	17170
909.415	17174
909.531	17170
909.647	16965
909.762	16790
909.878	16930
909.993	16866
910.108	16801
910.224	16831
910.339	16862
910.454	16653
910.57	16637
910.685	16653
910.8	16854
910.915	16725
911.03	16683
911.145	16508
911.259	16436
911.374	16485
911.489	16409
911.604	16360
911.718	16329
911.833	16200
911.947	16154
912.062	16105
912.176	16101
912.291	16268
912.405	16181
912.519	16360
912.633	16272
912.748	16192
912.862	16154
912.976	16063
913.09	15930
913.204	16010
913.318	16032
913.431	16192
913.545	16086
913.659	16196
913.772	15960
913.886	15888
914	15785
914.113	15842
914.226	15994
914.34	15895
914.453	15724
914.566	15827
914.68	15694
914.793	15584
914.906	15523
915.019	15332
915.132	15378
915.245	15298
915.358	15397
915.47	15412
915.583	15507
915.696	15416
915.809	15420
915.921	15492
916.034	15367
916.146	15279
916.259	15199
916.371	15431
916.483	15279
916.595	15203
916.708	15184
916.82	15199
916.932	15245
917.044	15165
917.156	15142
917.268	15032
917.38	15123
917.491	14921
917.603	15001
917.715	15077
917.826	15123
917.938	14899
918.049	14853
918.161	15009
918.272	15062
918.384	15089
918.495	14944
918.606	14925
918.717	14731
918.828	14769
918.939	14845
919.05	14804
919.161	14788
919.272	14587
919.383	14587
919.494	14804
919.604	14925
919.715	14777
919.826	14644
919.936	14724
920.047	14815
920.157	14769
920.267	15032
920.378	14739
920.488	14804
920.598	14921
920.708	15036
920.818	14963
920.928	14864
921.038	14994
921.148	15058
921.258	14701
921.368	14594
921.477	14503
921.587	14454
921.697	14400
921.806	14530
921.916	14320
922.025	14134
922.134	14145
922.244	14046
922.353	14210
922.462	13959
922.571	13978
922.68	13849
922.789	13780
922.898	13719
923.007	13734
923.116	13795
923.224	13856
923.333	13715
923.442	13624
923.55	13624
923.659	13609
923.767	13658
923.876	13540
923.984	13548
924.092	13548
924.201	13472
924.309	13518
924.417	13533
924.525	13491
924.633	13392
924.741	14332
924.849	13225
924.956	13392
925.064	13156
925.172	13156
925.279	13221
925.387	13198
925.494	13236
925.602	13331
925.709	13183
925.816	13042
925.924	13122
926.031	13209
926.138	13084
926.245	13152
926.352	13076
926.459	13152
926.566	13168
926.673	13107
926.779	13000
926.886	12954
926.993	12745
927.099	12722
927.206	12738
927.312	12681
927.419	12757
927.525	12711
927.631	12734
927.737	12620
927.843	12517
927.95	12414
928.056	12525
928.162	12502
928.267	12639
928.373	13126
928.479	12635
928.585	12429
928.69	12544
928.796	12498
928.901	12365
929.007	12300
929.112	12384
929.218	12365
929.323	12296
929.428	12342
929.533	12433
929.638	12308
929.743	12251
929.848	12319
929.953	12209
930.058	12095
930.163	11912
930.267	11969
930.372	12064
930.477	11927
930.581	12129
930.685	11920
930.79	11760
930.894	11828
930.998	11752
931.103	11977
931.207	11581
931.311	11482
931.415	11429
931.519	11185
931.623	11212
