Data from test_V78500241_1350.txt Node
Date: Fri Mar 25 15:19:15 CST 2022
User: usil
Spectrometer: V785-0024
Trigger mode: 0
Integration Time (sec): 4.000000E-1
Scans to average: 1
Nonlinearity correction enabled: false
Boxcar width: 0
Storing dark spectrum: false
XAxis mode: Wavelengths
Number of Pixels in Spectrum: 1024
>>>>>Begin Spectral Data<<<<<
801.071	28131
801.214	28097
801.356	27835
801.499	27698
801.641	27545
801.783	27557
801.926	27949
802.068	27553
802.211	27462
802.353	27523
802.496	27294
802.638	27321
802.78	27218
802.923	27211
803.065	27180
803.208	27268
803.35	27325
803.492	27454
803.635	27424
803.777	27393
803.919	27568
804.061	27629
804.204	27519
804.346	27466
804.488	27325
804.63	27313
804.773	27466
804.915	27614
805.057	27572
805.199	27545
805.341	27599
805.483	27641
805.626	27576
805.768	27507
805.91	27698
806.052	27606
806.194	27599
806.336	27876
806.478	27751
806.62	27698
806.762	27846
806.904	27819
807.046	28051
807.188	28059
807.33	28154
807.472	28093
807.614	27979
807.756	28093
807.898	27968
808.04	27987
808.182	27937
808.324	27892
808.465	28059
808.607	28032
808.749	28177
808.891	28325
809.033	28462
809.174	28299
809.316	28356
809.458	28192
809.6	28177
809.741	28401
809.883	28447
810.025	28713
810.166	28554
810.308	28656
810.45	28493
810.591	28470
810.733	28341
810.875	28299
811.016	28124
811.158	28181
811.299	28409
811.441	28424
811.582	28432
811.724	28314
811.865	28360
812.007	28303
812.148	28341
812.29	28428
812.431	28421
812.573	28603
812.714	28812
812.855	28839
812.997	28934
813.138	29071
813.279	29037
813.421	28854
813.562	28885
813.703	28622
813.845	28637
813.986	28265
814.127	28070
814.268	27930
814.41	28090
814.551	27956
814.692	27972
814.833	28097
814.974	28078
815.115	28021
815.256	27930
815.397	27850
815.539	27888
815.68	27823
815.821	27633
815.962	27759
816.103	27865
816.244	27701
816.385	27709
816.526	27583
816.666	27454
816.807	27226
816.948	27416
817.089	27401
817.23	27416
817.371	27074
817.512	27233
817.653	27310
817.793	27424
817.934	27408
818.075	27317
818.216	27233
818.356	27382
818.497	27169
818.638	27028
818.778	27135
818.919	26979
819.06	27214
819.2	27214
819.341	27325
819.481	27332
819.622	27389
819.762	27553
819.903	27576
820.043	27488
820.184	27454
820.324	27268
820.465	27408
820.605	27435
820.746	27439
820.886	27393
821.026	27469
821.167	27389
821.307	27367
821.447	27412
821.588	27245
821.728	27127
821.868	27017
822.008	26765
822.149	26720
822.289	26693
822.429	26518
822.569	26594
822.709	26473
822.849	26244
822.99	26248
823.13	26149
823.27	26202
823.41	26062
823.55	25978
823.69	26039
823.83	26092
823.97	26020
824.11	25833
824.25	25875
824.389	25807
824.529	26016
824.669	25932
824.809	26145
824.949	25974
825.089	26043
825.228	26005
825.368	25799
825.508	25947
825.648	25753
825.787	25890
825.927	25864
826.067	25734
826.206	25822
826.346	25868
826.485	25814
826.625	25738
826.765	25742
826.904	25818
827.044	25464
827.183	25628
827.323	25594
827.462	25666
827.601	25514
827.741	25525
827.88	25696
828.02	25388
828.159	25556
828.298	25502
828.437	25510
828.577	25548
828.716	25537
828.855	25468
828.994	25126
829.134	25301
829.273	25278
829.412	25240
829.551	25263
829.69	25076
829.829	25247
829.968	25293
830.107	25324
830.246	25080
830.385	25240
830.524	25072
830.663	25008
830.802	24947
830.941	24760
831.08	24825
831.219	24905
831.357	25000
831.496	25095
831.635	24783
831.774	24753
831.913	24772
832.051	24749
832.19	24639
832.329	24566
832.467	24441
832.606	24494
832.744	24414
832.883	24502
833.022	24585
833.16	24486
833.299	24582
833.437	24445
833.576	24525
833.714	24601
833.852	24464
833.991	24627
834.129	24608
834.267	24616
834.406	24551
834.544	24585
834.682	24483
834.821	24399
834.959	24795
835.097	24513
835.235	24650
835.373	24574
835.511	24467
835.65	24422
835.788	24410
835.926	24292
836.064	24163
836.202	24338
836.34	24350
836.478	24532
836.615	24456
836.753	24486
836.891	24517
837.029	24422
837.167	24338
837.305	24277
837.443	24239
837.58	24209
837.718	24353
837.856	24194
837.993	24106
838.131	24296
838.269	24163
838.406	24163
838.544	23923
838.681	23798
838.819	23920
838.956	23726
839.094	23764
839.231	23737
839.369	23885
839.506	24144
839.643	23954
839.781	23687
839.918	23684
840.055	23512
840.193	23714
840.33	23531
840.467	23619
840.604	23710
840.742	23870
840.879	23372
841.016	23570
841.153	23448
841.29	23615
841.427	23615
841.564	23615
841.701	23490
841.838	23543
841.975	23577
842.112	23452
842.249	23406
842.385	23277
842.522	23459
842.659	23543
842.796	23246
842.933	23349
843.069	23376
843.206	23189
843.343	23273
843.479	23288
843.616	23356
843.752	23044
843.889	23178
844.025	23246
844.162	23159
844.298	23231
844.435	23071
844.571	23254
844.708	23128
844.844	23307
844.98	23189
845.117	23170
845.253	22980
845.389	22904
845.525	23056
845.661	22927
845.798	22930
845.934	23010
846.07	22759
846.206	22843
846.342	22938
846.478	22919
846.614	22634
846.75	22500
846.886	22615
847.022	22588
847.158	22637
847.294	22611
847.429	22573
847.565	22588
847.701	22691
847.837	22280
847.972	22341
848.108	22413
848.244	22417
848.379	22253
848.515	22204
848.65	22109
848.786	22261
848.921	22162
849.057	22409
849.192	22299
849.328	22173
849.463	22090
849.598	22166
849.734	22131
849.869	22036
850.004	21937
850.14	21979
850.275	21873
850.41	21968
850.545	21903
850.68	21846
850.815	21907
850.95	21842
851.085	22139
851.22	22013
851.355	22154
851.49	21953
851.625	21903
851.76	21922
851.895	21876
852.03	21895
852.165	21937
852.299	21934
852.434	22055
852.569	21918
852.703	21930
852.838	21968
852.973	22147
853.107	21975
853.242	21816
853.376	21808
853.511	21610
853.645	21682
853.78	21812
853.914	21835
854.048	21774
854.183	21724
854.317	21880
854.451	21934
854.585	21717
854.72	21667
854.854	21854
854.988	21827
855.122	21876
855.256	21694
855.39	21698
855.524	21827
855.658	21884
855.792	21819
855.926	21789
856.06	21842
856.194	21789
856.327	21637
856.461	21728
856.595	21762
856.729	21747
856.862	21759
856.996	21835
857.13	21728
857.263	21918
857.397	21937
857.53	21781
857.664	21720
857.797	21751
857.931	21888
858.064	21819
858.197	21846
858.331	21743
858.464	21603
858.597	21663
858.731	21705
858.864	21789
858.997	21751
859.13	21736
859.263	21778
859.396	21903
859.529	21682
859.662	21781
859.795	21618
859.928	21629
860.061	21823
860.194	21739
860.327	21789
860.46	21720
860.592	21857
860.725	21895
860.858	21949
860.99	21854
861.123	21778
861.256	21656
861.388	21701
861.521	22303
861.653	21663
861.786	21507
861.918	21595
862.05	21606
862.183	21717
862.315	21663
862.447	21884
862.58	21701
862.712	21420
862.844	21435
862.976	21652
863.108	21466
863.24	21861
863.372	21462
863.504	21492
863.636	21538
863.768	21462
863.9	21454
864.032	21359
864.164	21401
864.296	21450
864.428	21614
864.559	21530
864.691	21500
864.823	21549
864.954	21454
865.086	21408
865.217	21454
865.349	21291
865.48	21241
865.612	21355
865.743	21507
865.875	21317
866.006	21348
866.137	21336
866.269	21359
866.4	21279
866.531	21222
866.662	21241
866.793	21203
866.924	21351
867.055	21256
867.186	21256
867.317	21241
867.448	21180
867.579	21161
867.71	21173
867.841	21146
867.972	21192
868.103	21237
868.233	21272
868.364	21135
868.495	21443
868.625	21549
868.756	21595
868.886	21447
869.017	21542
869.147	21549
869.278	21705
869.408	21576
869.539	21538
869.669	21652
869.799	21675
869.929	21622
870.06	21614
870.19	21812
870.32	21865
870.45	21755
870.58	21937
870.71	21934
870.84	22051
870.97	21869
871.1	21895
871.23	22143
871.36	22070
871.489	21968
871.619	22093
871.749	22078
871.879	22074
872.008	22169
872.138	21979
872.267	22086
872.397	21937
872.526	21865
872.656	21911
872.785	21964
872.915	22291
873.044	22036
873.173	22135
873.303	22173
873.432	22310
873.561	22230
873.69	22226
873.819	22101
873.948	22276
874.077	22101
874.206	21994
874.335	22082
874.464	22188
874.593	22306
874.722	22287
874.851	22443
874.979	22409
875.108	22303
875.237	22272
875.365	22253
875.494	22196
875.623	22280
875.751	22284
875.88	22398
876.008	22462
876.136	22588
876.265	22679
876.393	22984
876.521	22778
876.65	22854
876.778	22702
876.906	22752
877.034	22603
877.162	22717
877.29	22698
877.418	22702
877.546	22733
877.674	22748
877.802	22634
877.93	22664
878.058	22672
878.185	22542
878.313	22634
878.441	22470
878.568	22428
878.696	22592
878.824	22740
878.951	22710
879.079	22938
879.206	22953
879.333	22980
879.461	22580
879.588	22824
879.715	22835
879.842	23025
879.97	22672
880.097	22523
880.224	22538
880.351	22519
880.478	22470
880.605	22382
880.732	22531
880.859	22645
880.986	22447
881.112	22417
881.239	22348
881.366	22291
881.493	22299
881.619	22074
881.746	22166
881.872	22067
881.999	22090
882.125	22025
882.252	22131
882.378	22044
882.505	22131
882.631	21930
882.757	21873
882.883	21880
883.01	21766
883.136	21652
883.262	21606
883.388	21618
883.514	21698
883.64	21625
883.766	21629
883.892	21519
884.018	21557
884.143	21644
884.269	21827
884.395	21473
884.52	21302
884.646	21412
884.772	21245
884.897	21287
885.023	21519
885.148	21420
885.274	21553
885.399	21469
885.524	21332
885.65	21431
885.775	21428
885.9	21355
886.025	21538
886.15	21492
886.275	21283
886.4	21222
886.525	21359
886.65	21294
886.775	21233
886.9	21553
887.025	21614
887.149	21279
887.274	21272
887.399	21161
887.523	21214
887.648	21116
887.773	21131
887.897	21199
888.021	21157
888.146	21074
888.27	21214
888.395	21230
888.519	21100
888.643	21230
888.767	21100
888.891	21093
889.015	20975
889.139	21020
889.263	20872
889.387	21039
889.511	21176
889.635	21096
889.759	20792
889.883	20857
890.006	20937
890.13	21131
890.254	20883
890.377	20921
890.501	20705
890.624	20743
890.748	20762
890.871	20674
890.995	20575
891.118	20503
891.241	20503
891.364	20450
891.488	20670
891.611	20571
891.734	20526
891.857	20571
891.98	20568
892.103	20514
892.226	20415
892.349	20427
892.471	20351
892.594	20381
892.717	20396
892.839	20370
892.962	20434
893.085	20602
893.207	20541
893.33	20237
893.452	20298
893.575	20454
893.697	20328
893.819	20530
893.941	20530
894.064	20499
894.186	20320
894.308	20343
894.43	20469
894.552	20549
894.674	20404
894.796	20225
894.918	20507
895.04	20317
895.161	20393
895.283	20412
895.405	20404
895.526	20404
895.648	20431
895.769	20400
895.891	20423
896.012	20514
896.134	20366
896.255	20560
896.376	20431
896.498	20305
896.619	20457
896.74	20381
896.861	20465
896.982	20804
897.103	20872
897.224	20720
897.345	20697
897.466	20530
897.587	20609
897.708	20590
897.828	20568
897.949	20617
898.07	20492
898.19	20522
898.311	20708
898.431	20629
898.552	20571
898.672	20560
898.792	20701
898.913	20693
899.033	20514
899.153	20431
899.273	20275
899.393	20423
899.513	20427
899.633	20362
899.753	20503
899.873	20351
899.993	20381
900.113	20263
900.232	20415
900.352	20168
900.472	20210
900.591	20145
900.711	20206
900.83	20134
900.95	20301
901.069	20275
901.189	19978
901.308	19780
901.427	19830
901.546	19708
901.665	19715
901.784	19719
901.904	19616
902.023	19567
902.141	19373
902.26	19244
902.379	19354
902.498	19095
902.617	19247
902.735	19240
902.854	19244
902.973	19046
903.091	18966
903.21	18852
903.328	18875
903.446	18897
903.565	18681
903.683	18722
903.801	18604
903.919	18764
904.038	18681
904.156	18490
904.274	18669
904.392	18441
904.51	18486
904.627	18486
904.745	18517
904.863	18521
904.981	18365
905.098	18186
905.216	18110
905.334	18117
905.451	18136
905.569	18007
905.686	18129
905.803	18068
905.921	17935
906.038	18057
906.155	17889
906.272	17851
906.389	17798
906.506	17646
906.623	17733
906.74	17638
906.857	17482
906.974	17501
907.091	17714
907.208	17836
907.324	17729
907.441	17520
907.557	17345
907.674	17406
907.79	17349
907.907	17383
908.023	17353
908.139	17303
908.256	17345
908.372	17178
908.488	17159
908.604	17121
908.72	17079
908.836	17117
908.952	17071
909.068	17147
909.184	17193
909.3	17109
909.415	17041
909.531	17075
909.647	16847
909.762	16797
909.878	16672
909.993	16782
910.108	16767
910.224	16702
910.339	16809
910.454	16809
910.57	16660
910.685	16485
910.8	16869
910.915	16793
911.03	16599
911.145	16375
911.259	16519
911.374	16428
911.489	16341
911.604	16257
911.718	16128
911.833	16135
911.947	16048
912.062	15998
912.176	16097
912.291	16128
912.405	16029
912.519	16344
912.633	16318
912.748	16101
912.862	16010
912.976	15964
913.09	15812
913.204	15949
913.318	15892
913.431	16029
913.545	15987
913.659	16059
913.772	15888
913.886	15766
914	15713
914.113	15701
914.226	15964
914.34	15774
914.453	15595
914.566	15838
914.68	15663
914.793	15606
914.906	15382
915.019	15317
915.132	15325
915.245	15317
915.358	15351
915.47	15359
915.583	15302
915.696	15397
915.809	15488
915.921	15462
916.034	15321
916.146	15298
916.259	15260
916.371	15344
916.483	15264
916.595	15195
916.708	15188
916.82	15081
916.932	15066
917.044	14967
917.156	15085
917.268	15005
917.38	15032
917.491	14971
917.603	14941
917.715	15119
917.826	15085
917.938	14963
918.049	14773
918.161	14864
918.272	15203
918.384	15055
918.495	14933
918.606	14754
918.717	14727
918.828	14826
918.939	14788
919.05	14663
919.161	14743
919.272	14537
919.383	14640
919.494	14804
919.604	14899
919.715	14636
919.826	14674
919.936	14602
920.047	14845
920.157	14678
920.267	14842
920.378	14621
920.488	14670
920.598	14777
920.708	15119
920.818	14811
920.928	14838
921.038	14899
921.148	14963
921.258	14617
921.368	14564
921.477	14469
921.587	14385
921.697	14336
921.806	14412
921.916	14320
922.025	14016
922.134	14100
922.244	14195
922.353	14111
922.462	13978
922.571	13890
922.68	13772
922.789	13761
922.898	13628
923.007	13616
923.116	13689
923.224	13685
923.333	13670
923.442	13601
923.55	13476
923.659	13502
923.767	13632
923.876	13483
923.984	13605
924.092	13396
924.201	13400
924.309	13449
924.417	13533
924.525	13449
924.633	13312
924.741	14134
924.849	13285
924.956	13304
925.064	13160
925.172	13122
925.279	13053
925.387	13084
925.494	13164
925.602	13266
925.709	13095
925.816	13050
925.924	12981
926.031	13126
926.138	13061
926.245	13149
926.352	12928
926.459	13088
926.566	13122
926.673	12985
926.779	12871
926.886	12859
926.993	12715
927.099	12783
927.206	12559
927.312	12616
927.419	12734
927.525	12707
927.631	12585
927.737	12532
927.843	12525
927.95	12467
928.056	12467
928.162	12517
928.267	12559
928.373	13145
928.479	12479
928.585	12342
928.69	12498
928.796	12502
928.901	12319
929.007	12163
929.112	12304
929.218	12350
929.323	12152
929.428	12201
929.533	12334
929.638	12155
929.743	12125
929.848	12155
929.953	12178
930.058	12110
930.163	11931
930.267	11859
930.372	12015
930.477	11908
930.581	12045
930.685	11942
930.79	11805
930.894	11821
930.998	11676
931.103	12003
931.207	11516
931.311	11455
931.415	11452
931.519	11212
931.623	11143
