Data from test_V78500241_692.txt Node
Date: Fri Mar 25 15:14:40 CST 2022
User: usil
Spectrometer: V785-0024
Trigger mode: 0
Integration Time (sec): 4.000000E-1
Scans to average: 1
Nonlinearity correction enabled: false
Boxcar width: 0
Storing dark spectrum: false
XAxis mode: Wavelengths
Number of Pixels in Spectrum: 1024
>>>>>Begin Spectral Data<<<<<
801.071	27975
801.214	28040
801.356	27903
801.499	27819
801.641	27774
801.783	27698
801.926	27622
802.068	27663
802.211	27599
802.353	27500
802.496	27519
802.638	27260
802.78	27332
802.923	27336
803.065	27237
803.208	27306
803.35	27374
803.492	27458
803.635	27515
803.777	27359
803.919	27595
804.061	27926
804.204	27545
804.346	27462
804.488	27340
804.63	27496
804.773	27393
804.915	27526
805.057	27663
805.199	27523
805.341	27561
805.483	27599
805.626	27504
805.768	27481
805.91	27549
806.052	27587
806.194	27580
806.336	27838
806.478	27800
806.62	27743
806.762	27838
806.904	28078
807.046	28192
807.188	28002
807.33	28002
807.472	28105
807.614	28051
807.756	28017
807.898	28040
808.04	27831
808.182	27884
808.324	27899
808.465	27945
808.607	28230
808.749	28185
808.891	28322
809.033	28550
809.174	28348
809.316	28310
809.458	28318
809.6	28398
809.741	28508
809.883	28481
810.025	28618
810.166	28710
810.308	28557
810.45	28584
810.591	28626
810.733	28341
810.875	28246
811.016	28280
811.158	28139
811.299	28440
811.441	28512
811.582	28497
811.724	28242
811.865	28276
812.007	28318
812.148	28284
812.29	28253
812.431	28436
812.573	28702
812.714	28778
812.855	29037
812.997	28991
813.138	29147
813.279	29178
813.421	28999
813.562	28820
813.703	28801
813.845	28557
813.986	28352
814.127	28299
814.268	28017
814.41	27968
814.551	28112
814.692	28124
814.833	28063
814.974	28101
815.115	28044
815.256	27998
815.397	27945
815.539	27934
815.68	27770
815.821	27880
815.962	27762
816.103	27793
816.244	27812
816.385	27641
816.526	27614
816.666	27408
816.807	27367
816.948	27374
817.089	27542
817.23	27443
817.371	27447
817.512	27412
817.653	27332
817.793	27230
817.934	27329
818.075	27294
818.216	27420
818.356	27321
818.497	27298
818.638	27096
818.778	27135
818.919	27028
819.06	27108
819.2	27192
819.341	27477
819.481	27279
819.622	27427
819.762	27736
819.903	27576
820.043	27686
820.184	27424
820.324	27367
820.465	27424
820.605	27405
820.746	27542
820.886	27329
821.026	27492
821.167	27515
821.307	27682
821.447	27340
821.588	27138
821.728	27150
821.868	26940
822.008	26868
822.149	26918
822.289	26792
822.429	26587
822.569	26488
822.709	26571
822.849	26263
822.99	26301
823.13	26058
823.27	26096
823.41	26142
823.55	26142
823.69	26149
823.83	26012
823.97	26008
824.11	25986
824.25	25997
824.389	25928
824.529	26050
824.669	25974
824.809	26103
824.949	25978
825.089	25940
825.228	25963
825.368	25784
825.508	25734
825.648	25894
825.787	25814
825.927	25879
826.067	25864
826.206	25826
826.346	25902
826.485	25852
826.625	25788
826.765	25917
826.904	25864
827.044	25624
827.183	25666
827.323	25426
827.462	25582
827.601	25575
827.741	25514
827.88	25559
828.02	25350
828.159	25453
828.298	25674
828.437	25616
828.577	25540
828.716	25624
828.855	25403
828.994	25339
829.134	25297
829.273	25419
829.412	25274
829.551	25266
829.69	25217
829.829	25316
829.968	25339
830.107	25327
830.246	25236
830.385	25095
830.524	25168
830.663	25114
830.802	24989
830.941	24958
831.08	24867
831.219	24935
831.357	25015
831.496	24992
831.635	24901
831.774	24798
831.913	24707
832.051	24722
832.19	24654
832.329	24711
832.467	24574
832.606	24418
832.744	24441
832.883	24464
833.022	24551
833.16	24391
833.299	24521
833.437	24642
833.576	24623
833.714	24604
833.852	24669
833.991	24616
834.129	24738
834.267	24757
834.406	24578
834.544	24555
834.682	24661
834.821	24559
834.959	24703
835.097	24585
835.235	24673
835.373	24479
835.511	24563
835.65	24448
835.788	24403
835.926	24327
836.064	24247
836.202	24380
836.34	24437
836.478	24601
836.615	24418
836.753	24376
836.891	24589
837.029	24346
837.167	24361
837.305	24342
837.443	24319
837.58	24270
837.718	24300
837.856	24300
837.993	24133
838.131	24186
838.269	24102
838.406	24201
838.544	24136
838.681	23798
838.819	23969
838.956	23699
839.094	23668
839.231	23737
839.369	23999
839.506	24129
839.643	24041
839.781	23756
839.918	23741
840.055	23642
840.193	23611
840.33	23745
840.467	23680
840.604	23684
840.742	23786
840.879	23474
841.016	23478
841.153	23444
841.29	23646
841.427	23619
841.564	23642
841.701	23684
841.838	23581
841.975	23501
842.112	23547
842.249	23459
842.385	23421
842.522	23604
842.659	23421
842.796	23376
842.933	23463
843.069	23345
843.206	23349
843.343	23303
843.479	23368
843.616	23246
843.752	23185
843.889	23265
844.025	23280
844.162	23181
844.298	23250
844.435	23208
844.571	23208
844.708	23124
844.844	23261
844.98	23376
845.117	23303
845.253	23086
845.389	23029
845.525	22968
845.661	22980
845.798	22942
845.934	22908
846.07	22976
846.206	22896
846.342	23052
846.478	22809
846.614	22812
846.75	22569
846.886	22546
847.022	22683
847.158	22736
847.294	22481
847.429	22584
847.565	22523
847.701	22900
847.837	22394
847.972	22337
848.108	22382
848.244	22413
848.379	22314
848.515	22272
848.65	22211
848.786	22249
848.921	22207
849.057	22261
849.192	22272
849.328	22310
849.463	22230
849.598	22204
849.734	22086
849.869	22078
850.004	21945
850.14	22101
850.275	21956
850.41	21960
850.545	21934
850.68	22063
850.815	22002
850.95	21979
851.085	22093
851.22	22074
851.355	21972
851.49	21899
851.625	21884
851.76	21964
851.895	21873
852.03	21975
852.165	21964
852.299	21979
852.434	21964
852.569	21987
852.703	22025
852.838	22070
852.973	22059
853.107	22249
853.242	21934
853.376	21842
853.511	21656
853.645	21747
853.78	21861
853.914	21816
854.048	21816
854.183	21778
854.317	21827
854.451	21979
854.585	21827
854.72	21827
854.854	21831
854.988	21686
855.122	21781
855.256	21698
855.39	21698
855.524	21937
855.658	21816
855.792	21857
855.926	21842
856.06	21895
856.194	21960
856.327	21857
856.461	21667
856.595	21732
856.729	21781
856.862	21903
856.996	21819
857.13	21850
857.263	21960
857.397	21911
857.53	21770
857.664	21975
857.797	21884
857.931	22010
858.064	21759
858.197	21930
858.331	21755
858.464	21603
858.597	21785
858.731	21762
858.864	21739
858.997	21671
859.13	21778
859.263	21793
859.396	21998
859.529	21709
859.662	21831
859.795	21686
859.928	21679
860.061	21941
860.194	21895
860.327	21956
860.46	21895
860.592	21922
860.725	21979
860.858	21975
860.99	21751
861.123	21736
861.256	21842
861.388	21819
861.521	22599
861.653	21705
861.786	21660
861.918	21641
862.05	21625
862.183	21705
862.315	21781
862.447	21785
862.58	21663
862.712	21504
862.844	21492
862.976	21462
863.108	21618
863.24	21816
863.372	21454
863.504	21542
863.636	21595
863.768	21477
863.9	21397
864.032	21386
864.164	21405
864.296	21523
864.428	21603
864.559	21534
864.691	21538
864.823	21549
864.954	21443
865.086	21500
865.217	21321
865.349	21359
865.48	21412
865.612	21233
865.743	21492
865.875	21511
866.006	21313
866.137	21397
866.269	21340
866.4	21348
866.531	21306
866.662	21279
866.793	21264
866.924	21275
867.055	21397
867.186	21367
867.317	21264
867.448	21272
867.579	21310
867.71	21230
867.841	21233
867.972	21245
868.103	21287
868.233	21332
868.364	21412
868.495	21450
868.625	21447
868.756	21583
868.886	21492
869.017	21435
869.147	21686
869.278	21652
869.408	21507
869.539	21466
869.669	21633
869.799	21625
869.929	21690
870.06	21671
870.19	21857
870.32	21930
870.45	21884
870.58	22006
870.71	22032
870.84	22059
870.97	21918
871.1	21998
871.23	22025
871.36	22192
871.489	21987
871.619	22048
871.749	22158
871.879	22143
872.008	22261
872.138	22291
872.267	22154
872.397	22025
872.526	21994
872.656	21964
872.785	21873
872.915	22051
873.044	22299
873.173	22226
873.303	22230
873.432	22276
873.561	22249
873.69	22219
873.819	22261
873.948	22382
874.077	22257
874.206	22150
874.335	22154
874.464	22223
874.593	22367
874.722	22394
874.851	22455
874.979	22413
875.108	22413
875.237	22211
875.365	22356
875.494	22352
875.623	22497
875.751	22337
875.88	22455
876.008	22531
876.136	22603
876.265	22881
876.393	22911
876.521	22790
876.65	22763
876.778	22809
876.906	22672
877.034	22683
877.162	22790
877.29	22656
877.418	22744
877.546	22771
877.674	22721
877.802	22729
877.93	22786
878.058	22653
878.185	22611
878.313	22641
878.441	22702
878.568	22599
878.696	22672
878.824	22637
878.951	22755
879.079	22911
879.206	23189
879.333	22847
879.461	22786
879.588	22816
879.715	22820
879.842	23060
879.97	22797
880.097	22550
880.224	22573
880.351	22523
880.478	22596
880.605	22508
880.732	22527
880.859	22740
880.986	22607
881.112	22557
881.239	22352
881.366	22295
881.493	22234
881.619	21972
881.746	22093
881.872	22249
881.999	21994
882.125	21991
882.252	22112
882.378	22086
882.505	22276
882.631	21972
882.757	21861
882.883	21975
883.01	21842
883.136	21861
883.262	21663
883.388	21580
883.514	21827
883.64	21892
883.766	21698
883.892	21545
884.018	21576
884.143	21755
884.269	21865
884.395	21557
884.52	21481
884.646	21405
884.772	21393
884.897	21351
885.023	21466
885.148	21564
885.274	21644
885.399	21485
885.524	21469
885.65	21435
885.775	21587
885.9	21462
886.025	21545
886.15	21405
886.275	21325
886.4	21332
886.525	21469
886.65	21386
886.775	21363
886.9	21538
887.025	21587
887.149	21332
887.274	21279
887.399	21192
887.523	21188
887.648	21226
887.773	21180
887.897	21291
888.021	21287
888.146	21176
888.27	21294
888.395	21272
888.519	21207
888.643	21249
888.767	21359
888.891	21051
889.015	21058
889.139	21154
889.263	20986
889.387	21036
889.511	21268
889.635	21077
889.759	21043
889.883	21093
890.006	20880
890.13	20967
890.254	21009
890.377	21085
890.501	20712
890.624	20712
890.748	20629
890.871	20667
890.995	20552
891.118	20594
891.241	20648
891.364	20598
891.488	20602
891.611	20511
891.734	20602
891.857	20594
891.98	20663
892.103	20686
892.226	20682
892.349	20556
892.471	20389
892.594	20438
892.717	20473
892.839	20549
892.962	20476
893.085	20590
893.207	20503
893.33	20370
893.452	20442
893.575	20484
893.697	20339
893.819	20632
893.941	20625
894.064	20571
894.186	20473
894.308	20419
894.43	20560
894.552	20522
894.674	20571
894.796	20332
894.918	20423
895.04	20396
895.161	20579
895.283	20423
895.405	20404
895.526	20434
895.648	20434
895.769	20488
895.891	20518
896.012	20545
896.134	20629
896.255	20370
896.376	20347
896.498	20412
896.619	20374
896.74	20358
896.861	20442
896.982	20804
897.103	20872
897.224	20629
897.345	20678
897.466	20655
897.587	20697
897.708	20777
897.828	20651
897.949	20549
898.07	20606
898.19	20587
898.311	20762
898.431	20560
898.552	20625
898.672	20731
898.792	20830
898.913	20716
899.033	20651
899.153	20450
899.273	20324
899.393	20385
899.513	20431
899.633	20237
899.753	20431
899.873	20450
899.993	20366
900.113	20370
900.232	20278
900.352	20263
900.472	20286
900.591	20180
900.711	20202
900.83	20183
900.95	20301
901.069	20271
901.189	20050
901.308	19833
901.427	19772
901.546	19811
901.665	19708
901.784	19784
901.904	19594
902.023	19525
902.141	19449
902.26	19297
902.379	19339
902.498	19198
902.617	19255
902.735	19343
902.854	19278
902.973	19194
903.091	18939
903.21	18897
903.328	18973
903.446	18859
903.565	18776
903.683	18734
903.801	18631
903.919	18673
904.038	18642
904.156	18608
904.274	18665
904.392	18570
904.51	18483
904.627	18410
904.745	18559
904.863	18547
904.981	18391
905.098	18258
905.216	18186
905.334	18201
905.451	18178
905.569	18205
905.686	18239
905.803	18171
905.921	18026
906.038	18057
906.155	17950
906.272	17802
906.389	17927
906.506	17745
906.623	17710
906.74	17665
906.857	17596
906.974	17630
907.091	17733
907.208	17882
907.324	17722
907.441	17581
907.557	17383
907.674	17459
907.79	17444
907.907	17402
908.023	17520
908.139	17436
908.256	17349
908.372	17387
908.488	17200
908.604	17105
908.72	17181
908.836	17117
908.952	17121
909.068	17223
909.184	17303
909.3	17121
909.415	17136
909.531	17239
909.647	16805
909.762	16946
909.878	16801
909.993	16843
910.108	16797
910.224	16805
910.339	16801
910.454	16835
910.57	16641
910.685	16542
910.8	16801
910.915	16748
911.03	16527
911.145	16512
911.259	16417
911.374	16379
911.489	16386
911.604	16314
911.718	16181
911.833	16177
911.947	15960
912.062	15975
912.176	16169
912.291	16116
912.405	16215
912.519	16291
912.633	16337
912.748	16177
912.862	16105
912.976	15915
913.09	15968
913.204	15911
913.318	16044
913.431	16048
913.545	16097
913.659	16169
913.772	15888
913.886	15755
914	15736
914.113	15861
914.226	15812
914.34	15850
914.453	15663
914.566	15880
914.68	15644
914.793	15660
914.906	15526
915.019	15355
915.132	15306
915.245	15359
915.358	15393
915.47	15397
915.583	15420
915.696	15405
915.809	15488
915.921	15507
916.034	15336
916.146	15386
916.259	15272
916.371	15310
916.483	15313
916.595	15119
916.708	15211
916.82	15298
916.932	15180
917.044	15256
917.156	15123
917.268	14963
917.38	15123
917.491	14986
917.603	15036
917.715	15108
917.826	15047
917.938	14887
918.049	14823
918.161	14887
918.272	15058
918.384	14925
918.495	15001
918.606	14785
918.717	14720
918.828	14887
918.939	14743
919.05	14689
919.161	14746
919.272	14556
919.383	14659
919.494	14705
919.604	15055
919.715	14800
919.826	14640
919.936	14724
920.047	14872
920.157	14746
920.267	14998
920.378	14762
920.488	14705
920.598	14868
920.708	14963
920.818	14826
920.928	14861
921.038	15043
921.148	15051
921.258	14632
921.368	14564
921.477	14556
921.587	14476
921.697	14389
921.806	14545
921.916	14412
922.025	14168
922.134	14161
922.244	14065
922.353	14103
922.462	14027
922.571	13925
922.68	13780
922.789	13814
922.898	13788
923.007	13647
923.116	13799
923.224	13742
923.333	13689
923.442	13628
923.55	13540
923.659	13586
923.767	13658
923.876	13613
923.984	13518
924.092	13472
924.201	13521
924.309	13480
924.417	13445
924.525	13301
924.633	13415
924.741	14206
924.849	13175
924.956	13343
925.064	13228
925.172	13114
925.279	13107
925.387	13251
925.494	13137
925.602	13293
925.709	13179
925.816	13095
925.924	13160
926.031	13156
926.138	13061
926.245	13118
926.352	13031
926.459	13145
926.566	13152
926.673	13053
926.779	12894
926.886	12932
926.993	12696
927.099	12730
927.206	12612
927.312	12597
927.419	12749
927.525	12681
927.631	12745
927.737	12593
927.843	12563
927.95	12494
928.056	12547
928.162	12601
928.267	12589
928.373	13217
928.479	12589
928.585	12346
928.69	12479
928.796	12506
928.901	12353
929.007	12243
929.112	12338
929.218	12426
929.323	12266
929.428	12258
929.533	12365
929.638	12239
929.743	12117
929.848	12266
929.953	12152
930.058	12064
930.163	11828
930.267	11923
930.372	12079
930.477	11840
930.581	12125
930.685	12049
930.79	11779
930.894	11813
930.998	11802
931.103	11965
931.207	11543
931.311	11543
931.415	11391
931.519	11235
931.623	11185
