Data from test_V78500241_1367.txt Node
Date: Fri Mar 25 15:19:22 CST 2022
User: usil
Spectrometer: V785-0024
Trigger mode: 0
Integration Time (sec): 4.000000E-1
Scans to average: 1
Nonlinearity correction enabled: false
Boxcar width: 0
Storing dark spectrum: false
XAxis mode: Wavelengths
Number of Pixels in Spectrum: 1024
>>>>>Begin Spectral Data<<<<<
801.071	28169
801.214	27873
801.356	27720
801.499	27675
801.641	27511
801.783	27523
801.926	27545
802.068	27603
802.211	27515
802.353	27443
802.496	27119
802.638	27199
802.78	27302
802.923	27157
803.065	27329
803.208	27085
803.35	27218
803.492	27382
803.635	27393
803.777	27264
803.919	27523
804.061	27732
804.204	27568
804.346	27310
804.488	27256
804.63	27424
804.773	27389
804.915	27420
805.057	27660
805.199	27473
805.341	27386
805.483	27549
805.626	27538
805.768	27504
805.91	27679
806.052	27542
806.194	27466
806.336	27751
806.478	27633
806.62	27694
806.762	27690
806.904	27850
807.046	28143
807.188	28086
807.33	27914
807.472	27979
807.614	27835
807.756	27945
807.898	27846
808.04	27816
808.182	27861
808.324	27846
808.465	27968
808.607	28105
808.749	28246
808.891	28276
809.033	28322
809.174	28348
809.316	28196
809.458	28169
809.6	28242
809.741	28474
809.883	28348
810.025	28531
810.166	28527
810.308	28546
810.45	28557
810.591	28440
810.733	28253
810.875	28257
811.016	28169
811.158	28082
811.299	28341
811.441	28348
811.582	28344
811.724	28344
811.865	28181
812.007	28188
812.148	28185
812.29	28139
812.431	28542
812.573	28527
812.714	28637
812.855	28733
812.997	28869
813.138	28946
813.279	28927
813.421	28717
813.562	28725
813.703	28588
813.845	28500
813.986	28268
814.127	28032
814.268	27956
814.41	27979
814.551	27949
814.692	28051
814.833	27812
814.974	27857
815.115	27869
815.256	27759
815.397	27755
815.539	27850
815.68	27766
815.821	27778
815.962	27789
816.103	27682
816.244	27492
816.385	27530
816.526	27538
816.666	27313
816.807	27230
816.948	27306
817.089	27298
817.23	27226
817.371	27081
817.512	27184
817.653	27226
817.793	27199
817.934	27344
818.075	27142
818.216	27222
818.356	27256
818.497	27039
818.638	27020
818.778	26910
818.919	26895
819.06	27051
819.2	27135
819.341	27260
819.481	27165
819.622	27424
819.762	27557
819.903	27416
820.043	27443
820.184	27310
820.324	27199
820.465	27348
820.605	27264
820.746	27249
820.886	27180
821.026	27458
821.167	27138
821.307	27374
821.447	27230
821.588	27173
821.728	26979
821.868	26781
822.008	26777
822.149	26663
822.289	26674
822.429	26393
822.569	26301
822.709	26374
822.849	26191
822.99	26336
823.13	26240
823.27	26157
823.41	26016
823.55	25947
823.69	26043
823.83	26103
823.97	25944
824.11	25769
824.25	25708
824.389	25856
824.529	25955
824.669	25940
824.809	25963
824.949	25849
825.089	25959
825.228	25951
825.368	25738
825.508	25662
825.648	25681
825.787	25780
825.927	25807
826.067	25620
826.206	25803
826.346	25685
826.485	25841
826.625	25590
826.765	25871
826.904	25727
827.044	25327
827.183	25415
827.323	25533
827.462	25499
827.601	25400
827.741	25491
827.88	25472
828.02	25213
828.159	25430
828.298	25316
828.437	25476
828.577	25301
828.716	25464
828.855	25308
828.994	25171
829.134	25171
829.273	25137
829.412	25000
829.551	24928
829.69	25103
829.829	25168
829.968	25183
830.107	25107
830.246	25069
830.385	24989
830.524	25027
830.663	24871
830.802	24894
830.941	24627
831.08	24654
831.219	24875
831.357	24867
831.496	24943
831.635	24745
831.774	24650
831.913	24669
832.051	24521
832.19	24494
832.329	24559
832.467	24426
832.606	24357
832.744	24342
832.883	24304
833.022	24403
833.16	24467
833.299	24452
833.437	24372
833.576	24513
833.714	24486
833.852	24483
833.991	24407
834.129	24544
834.267	24604
834.406	24437
834.544	24559
834.682	24433
834.821	24494
834.959	24551
835.097	24414
835.235	24593
835.373	24490
835.511	24391
835.65	24258
835.788	24232
835.926	24232
836.064	24041
836.202	24174
836.34	24353
836.478	24376
836.615	24232
836.753	24232
836.891	24407
837.029	24388
837.167	24159
837.305	24197
837.443	24174
837.58	24254
837.718	24174
837.856	24174
837.993	24064
838.131	24133
838.269	23984
838.406	24072
838.544	23950
838.681	23832
838.819	23733
838.956	23634
839.094	23703
839.231	23687
839.369	23870
839.506	24018
839.643	23733
839.781	23619
839.918	23535
840.055	23562
840.193	23577
840.33	23482
840.467	23646
840.604	23600
840.742	23786
840.879	23417
841.016	23364
841.153	23376
841.29	23619
841.427	23486
841.564	23695
841.701	23421
841.838	23425
841.975	23528
842.112	23299
842.249	23433
842.385	23185
842.522	23543
842.659	23254
842.796	23269
842.933	23227
843.069	23299
843.206	23151
843.343	23204
843.479	23364
843.616	23337
843.752	23052
843.889	23052
844.025	23193
844.162	22908
844.298	23280
844.435	23044
844.571	23022
844.708	22972
844.844	23166
844.98	23170
845.117	23181
845.253	22984
845.389	22957
845.525	22957
845.661	22831
845.798	22812
845.934	22847
846.07	22733
846.206	22805
846.342	22820
846.478	22634
846.614	22577
846.75	22409
846.886	22618
847.022	22462
847.158	22409
847.294	22531
847.429	22474
847.565	22630
847.701	22736
847.837	22303
847.972	22192
848.108	22249
848.244	22306
848.379	22147
848.515	22044
848.65	22032
848.786	22063
848.921	22135
849.057	22112
849.192	22128
849.328	22139
849.463	22070
849.598	22116
849.734	21991
849.869	21945
850.004	21808
850.14	21918
850.275	21918
850.41	21816
850.545	21861
850.68	21778
850.815	21899
850.95	21846
851.085	22059
851.22	21941
851.355	21903
851.49	21838
851.625	21869
851.76	21880
851.895	21869
852.03	21857
852.165	21873
852.299	21937
852.434	21888
852.569	21903
852.703	21899
852.838	21869
852.973	22036
853.107	21918
853.242	21739
853.376	21781
853.511	21652
853.645	21580
853.78	21800
853.914	21682
854.048	21580
854.183	21595
854.317	21720
854.451	21949
854.585	21679
854.72	21583
854.854	21804
854.988	21622
855.122	21743
855.256	21542
855.39	21606
855.524	21770
855.658	21835
855.792	21827
855.926	21633
856.06	21686
856.194	21804
856.327	21804
856.461	21637
856.595	21595
856.729	21690
856.862	21728
856.996	21690
857.13	21797
857.263	21793
857.397	21812
857.53	21633
857.664	21690
857.797	21709
857.931	21732
858.064	21728
858.197	21717
858.331	21618
858.464	21603
858.597	21507
858.731	21793
858.864	21629
858.997	21682
859.13	21724
859.263	21637
859.396	21728
859.529	21671
859.662	21648
859.795	21667
859.928	21534
860.061	21755
860.194	21926
860.327	21705
860.46	21622
860.592	21690
860.725	21869
860.858	21846
860.99	21701
861.123	21751
861.256	21686
861.388	21690
861.521	22238
861.653	21622
861.786	21519
861.918	21378
862.05	21629
862.183	21622
862.315	21652
862.447	21675
862.58	21553
862.712	21458
862.844	21515
862.976	21492
863.108	21401
863.24	21709
863.372	21416
863.504	21370
863.636	21367
863.768	21507
863.9	21348
864.032	21230
864.164	21321
864.296	21397
864.428	21431
864.559	21458
864.691	21370
864.823	21526
864.954	21378
865.086	21245
865.217	21325
865.349	21211
865.48	21260
865.612	21252
865.743	21428
865.875	21321
866.006	21252
866.137	21192
866.269	21291
866.4	21116
866.531	21146
866.662	21146
866.793	21165
866.924	21157
867.055	21218
867.186	21268
867.317	21176
867.448	21233
867.579	21173
867.71	21100
867.841	21169
867.972	21302
868.103	21001
868.233	21218
868.364	21188
868.495	21279
868.625	21386
868.756	21523
868.886	21268
869.017	21424
869.147	21500
869.278	21564
869.408	21549
869.539	21348
869.669	21576
869.799	21447
869.929	21450
870.06	21538
870.19	21701
870.32	21835
870.45	21724
870.58	21804
870.71	21930
870.84	21975
870.97	21800
871.1	21915
871.23	21873
871.36	21899
871.489	21934
871.619	21892
871.749	21915
871.879	22128
872.008	22090
872.138	21998
872.267	22021
872.397	21846
872.526	21835
872.656	21899
872.785	21968
872.915	22044
873.044	22074
873.173	22040
873.303	22021
873.432	22036
873.561	22040
873.69	22032
873.819	22116
873.948	21979
874.077	22036
874.206	22025
874.335	22070
874.464	22181
874.593	22185
874.722	22177
874.851	22485
874.979	22276
875.108	22390
875.237	22196
875.365	22162
875.494	22246
875.623	22417
875.751	22086
875.88	22318
876.008	22386
876.136	22421
876.265	22634
876.393	22706
876.521	22687
876.65	22634
876.778	22645
876.906	22565
877.034	22584
877.162	22584
877.29	22459
877.418	22577
877.546	22542
877.674	22599
877.802	22649
877.93	22626
878.058	22519
878.185	22478
878.313	22535
878.441	22664
878.568	22417
878.696	22561
878.824	22622
878.951	22694
879.079	22706
879.206	22793
879.333	22812
879.461	22557
879.588	22630
879.715	22869
879.842	22877
879.97	22752
880.097	22405
880.224	22447
880.351	22500
880.478	22363
880.605	22405
880.732	22474
880.859	22721
880.986	22459
881.112	22432
881.239	22325
881.366	22257
881.493	22181
881.619	22051
881.746	22002
881.872	21930
881.999	22090
882.125	21907
882.252	22048
882.378	21960
882.505	22173
882.631	21964
882.757	21827
882.883	21781
883.01	21762
883.136	21629
883.262	21496
883.388	21473
883.514	21682
883.64	21686
883.766	21599
883.892	21488
884.018	21530
884.143	21629
884.269	21663
884.395	21382
884.52	21230
884.646	21329
884.772	21321
884.897	21260
885.023	21332
885.148	21488
885.274	21545
885.399	21481
885.524	21340
885.65	21386
885.775	21351
885.9	21336
886.025	21481
886.15	21401
886.275	21351
886.4	21256
886.525	21302
886.65	21382
886.775	21237
886.9	21332
887.025	21450
887.149	21332
887.274	21180
887.399	21074
887.523	21169
887.648	21119
887.773	20910
887.897	21176
888.021	21157
888.146	21062
888.27	21310
888.395	21142
888.519	21116
888.643	21131
888.767	21055
888.891	20933
889.015	20857
889.139	20918
889.263	20929
889.387	20891
889.511	21138
889.635	21146
889.759	20838
889.883	20876
890.006	20830
890.13	21009
890.254	20811
890.377	20800
890.501	20785
890.624	20625
890.748	20693
890.871	20461
890.995	20431
891.118	20461
891.241	20434
891.364	20442
891.488	20613
891.611	20415
891.734	20503
891.857	20526
891.98	20514
892.103	20492
892.226	20237
892.349	20457
892.471	20176
892.594	20347
892.717	20355
892.839	20282
892.962	20454
893.085	20473
893.207	20336
893.33	20138
893.452	20244
893.575	20351
893.697	20305
893.819	20446
893.941	20473
894.064	20526
894.186	20309
894.308	20313
894.43	20446
894.552	20454
894.674	20564
894.796	20240
894.918	20313
895.04	20385
895.161	20537
895.283	20362
895.405	20267
895.526	20336
895.648	20317
895.769	20286
895.891	20358
896.012	20560
896.134	20366
896.255	20317
896.376	20408
896.498	20377
896.619	20393
896.74	20145
896.861	20358
896.982	20708
897.103	20811
897.224	20651
897.345	20598
897.466	20492
897.587	20613
897.708	20571
897.828	20560
897.949	20442
898.07	20351
898.19	20492
898.311	20644
898.431	20518
898.552	20587
898.672	20598
898.792	20602
898.913	20568
899.033	20336
899.153	20313
899.273	20218
899.393	20317
899.513	20381
899.633	20290
899.753	20347
899.873	20206
899.993	20305
900.113	20290
900.232	20157
900.352	20180
900.472	20259
900.591	19978
900.711	20069
900.83	20012
900.95	20290
901.069	20229
901.189	19982
901.308	19757
901.427	19586
901.546	19639
901.665	19655
901.784	19655
901.904	19502
902.023	19468
902.141	19198
902.26	19183
902.379	19282
902.498	19122
902.617	19118
902.735	19206
902.854	19114
902.973	19076
903.091	18970
903.21	18905
903.328	18909
903.446	18757
903.565	18642
903.683	18673
903.801	18441
903.919	18582
904.038	18604
904.156	18330
904.274	18566
904.392	18342
904.51	18353
904.627	18372
904.745	18388
904.863	18399
904.981	18125
905.098	18174
905.216	18114
905.334	18190
905.451	18148
905.569	18087
905.686	18178
905.803	18079
905.921	17897
906.038	18019
906.155	17866
906.272	17813
906.389	17745
906.506	17592
906.623	17676
906.74	17543
906.857	17509
906.974	17532
907.091	17630
907.208	17714
907.324	17646
907.441	17463
907.557	17417
907.674	17349
907.79	17315
907.907	17269
908.023	17383
908.139	17425
908.256	17292
908.372	17242
908.488	17273
908.604	17010
908.72	17033
908.836	16968
908.952	17033
909.068	17014
909.184	17117
909.3	16946
909.415	17109
909.531	17090
909.647	16816
909.762	16748
909.878	16755
909.993	16790
910.108	16713
910.224	16660
910.339	16725
910.454	16592
910.57	16558
910.685	16569
910.8	16755
910.915	16656
911.03	16588
911.145	16466
911.259	16287
911.374	16322
911.489	16188
911.604	16116
911.718	16059
911.833	16029
911.947	16074
912.062	15892
912.176	16013
912.291	16051
912.405	15960
912.519	16147
912.633	16196
912.748	16139
912.862	16021
912.976	15899
913.09	15747
913.204	15865
913.318	15953
913.431	15895
913.545	15884
913.659	15983
913.772	15732
913.886	15823
914	15641
914.113	15713
914.226	15743
914.34	15663
914.453	15595
914.566	15682
914.68	15515
914.793	15526
914.906	15355
915.019	15302
915.132	15275
915.245	15397
915.358	15241
915.47	15275
915.583	15256
915.696	15370
915.809	15336
915.921	15469
916.034	15211
916.146	15218
916.259	15173
916.371	15252
916.483	15199
916.595	15039
916.708	15100
916.82	15146
916.932	15173
917.044	15062
917.156	14971
917.268	14861
917.38	14941
917.491	14963
917.603	14990
917.715	14899
917.826	14967
917.938	14883
918.049	14887
918.161	14883
918.272	15009
918.384	15058
918.495	14887
918.606	14659
918.717	14758
918.828	14773
918.939	14682
919.05	14640
919.161	14769
919.272	14541
919.383	14556
919.494	14750
919.604	14979
919.715	14762
919.826	14556
919.936	14648
920.047	14857
920.157	14629
920.267	14769
920.378	14648
920.488	14663
920.598	14834
920.708	14960
920.818	14788
920.928	14769
921.038	15081
921.148	14937
921.258	14610
921.368	14602
921.477	14454
921.587	14377
921.697	14328
921.806	14358
921.916	14309
922.025	14130
922.134	14100
922.244	14073
922.353	14149
922.462	13974
922.571	13890
922.68	13708
922.789	13700
922.898	13738
923.007	13616
923.116	13776
923.224	13639
923.333	13666
923.442	13655
923.55	13582
923.659	13556
923.767	13696
923.876	13521
923.984	13586
924.092	13400
924.201	13468
924.309	13449
924.417	13476
924.525	13350
924.633	13377
924.741	14126
924.849	13190
924.956	13247
925.064	13141
925.172	13149
925.279	13065
925.387	13209
925.494	13061
925.602	13297
925.709	13133
925.816	13034
925.924	13141
926.031	13114
926.138	13038
926.245	13072
926.352	13034
926.459	13065
926.566	13099
926.673	12954
926.779	12787
926.886	12829
926.993	12726
927.099	12719
927.206	12631
927.312	12623
927.419	12681
927.525	12654
927.631	12722
927.737	12623
927.843	12555
927.95	12399
928.056	12490
928.162	12452
928.267	12589
928.373	13133
928.479	12574
928.585	12380
928.69	12395
928.796	12441
928.901	12361
929.007	12129
929.112	12296
929.218	12353
929.323	12197
929.428	12178
929.533	12353
929.638	12136
929.743	12220
929.848	12205
929.953	12087
930.058	12083
930.163	11847
930.267	11908
930.372	12060
930.477	11851
930.581	12038
930.685	11840
930.79	11786
930.894	11760
930.998	11741
931.103	11893
931.207	11528
931.311	11455
931.415	11414
931.519	11181
931.623	11246
