Data from test_V78500241_515.txt Node
Date: Fri Mar 25 15:13:26 CST 2022
User: usil
Spectrometer: V785-0024
Trigger mode: 0
Integration Time (sec): 4.000000E-1
Scans to average: 1
Nonlinearity correction enabled: false
Boxcar width: 0
Storing dark spectrum: false
XAxis mode: Wavelengths
Number of Pixels in Spectrum: 1024
>>>>>Begin Spectral Data<<<<<
801.071	27564
801.214	27458
801.356	27306
801.499	27043
801.641	27062
801.783	27093
801.926	27256
802.068	26975
802.211	26952
802.353	26883
802.496	26720
802.638	26613
802.78	26731
802.923	26743
803.065	26583
803.208	26625
803.35	26743
803.492	26868
803.635	26952
803.777	26800
803.919	26792
804.061	27062
804.204	26754
804.346	26602
804.488	26739
804.63	26830
804.773	26693
804.915	26804
805.057	26815
805.199	26785
805.341	26868
805.483	26918
805.626	27024
805.768	26804
805.91	26971
806.052	26921
806.194	26883
806.336	27157
806.478	26899
806.62	26857
806.762	26948
806.904	27218
807.046	27553
807.188	27408
807.33	27504
807.472	27279
807.614	27332
807.756	27245
807.898	27275
808.04	27039
808.182	27154
808.324	27272
808.465	27169
808.607	27218
808.749	27469
808.891	27663
809.033	27800
809.174	27747
809.316	27557
809.458	27454
809.6	27500
809.741	27644
809.883	27606
810.025	27876
810.166	27694
810.308	27785
810.45	27804
810.591	27755
810.733	27564
810.875	27576
811.016	27420
811.158	27583
811.299	27526
811.441	27835
811.582	27614
811.724	27469
811.865	27427
812.007	27416
812.148	27492
812.29	27519
812.431	27660
812.573	27892
812.714	27922
812.855	28044
812.997	28188
813.138	28173
813.279	28154
813.421	28135
813.562	28002
813.703	27945
813.845	27899
813.986	27439
814.127	27367
814.268	27256
814.41	27207
814.551	27093
814.692	27222
814.833	27024
814.974	27226
815.115	27230
815.256	27138
815.397	27100
815.539	27089
815.68	26963
815.821	27051
815.962	27013
816.103	26925
816.244	26891
816.385	26670
816.526	26758
816.666	26651
816.807	26457
816.948	26495
817.089	26613
817.23	26492
817.371	26530
817.512	26514
817.653	26488
817.793	26419
817.934	26374
818.075	26507
818.216	26541
818.356	26427
818.497	26366
818.638	26290
818.778	26290
818.919	26259
819.06	26271
819.2	26374
819.341	26492
819.481	26419
819.622	26731
819.762	26807
819.903	26674
820.043	26815
820.184	26708
820.324	26579
820.465	26644
820.605	26587
820.746	26503
820.886	26503
821.026	26575
821.167	26522
821.307	26644
821.447	26602
821.588	26476
821.728	26351
821.868	26176
822.008	26142
822.149	25932
822.289	25898
822.429	25742
822.569	25628
822.709	25594
822.849	25472
822.99	25514
823.13	25316
823.27	25460
823.41	25285
823.55	25232
823.69	25403
823.83	25304
823.97	25202
824.11	25088
824.25	25042
824.389	25164
824.529	25278
824.669	25069
824.809	25324
824.949	25225
825.089	25168
825.228	25095
825.368	24947
825.508	24989
825.648	25050
825.787	25000
825.927	24966
826.067	24992
826.206	25114
826.346	24916
826.485	24996
826.625	24916
826.765	24913
826.904	24989
827.044	24711
827.183	24798
827.323	24730
827.462	24696
827.601	24707
827.741	24802
827.88	24658
828.02	24502
828.159	24768
828.298	24563
828.437	24673
828.577	24601
828.716	24840
828.855	24616
828.994	24429
829.134	24410
829.273	24391
829.412	24388
829.551	24403
829.69	24422
829.829	24467
829.968	24544
830.107	24456
830.246	24251
830.385	24410
830.524	24380
830.663	24334
830.802	24171
830.941	24049
831.08	24091
831.219	24072
831.357	24083
831.496	24266
831.635	23984
831.774	23961
831.913	23863
832.051	23984
832.19	23805
832.329	23889
832.467	23847
832.606	23695
832.744	23737
832.883	23657
833.022	23767
833.16	23775
833.299	23798
833.437	23882
833.576	23805
833.714	23863
833.852	23878
833.991	23809
834.129	23859
834.267	23870
834.406	23790
834.544	23703
834.682	23809
834.821	23752
834.959	24041
835.097	23802
835.235	23752
835.373	23687
835.511	23779
835.65	23608
835.788	23665
835.926	23493
836.064	23421
836.202	23459
836.34	23653
836.478	23756
836.615	23509
836.753	23665
836.891	23790
837.029	23729
837.167	23634
837.305	23646
837.443	23611
837.58	23474
837.718	23452
837.856	23444
837.993	23421
838.131	23505
838.269	23383
838.406	23337
838.544	23261
838.681	23121
838.819	23155
838.956	22980
839.094	23003
839.231	23029
839.369	23197
839.506	23376
839.643	23265
839.781	23083
839.918	23041
840.055	22984
840.193	22873
840.33	22889
840.467	22892
840.604	22999
840.742	23181
840.879	22786
841.016	22869
841.153	22706
841.29	22949
841.427	22843
841.564	22942
841.701	22847
841.838	22812
841.975	22721
842.112	22721
842.249	22771
842.385	22557
842.522	22774
842.659	22641
842.796	22531
842.933	22634
843.069	22596
843.206	22611
843.343	22584
843.479	22683
843.616	22588
843.752	22466
843.889	22523
844.025	22557
844.162	22379
844.298	22538
844.435	22436
844.571	22226
844.708	22516
844.844	22569
844.98	22550
845.117	22512
845.253	22409
845.389	22306
845.525	22257
845.661	22284
845.798	22082
845.934	22059
846.07	22131
846.206	22192
846.342	22219
846.478	22131
846.614	22048
846.75	21831
846.886	21835
847.022	21934
847.158	21861
847.294	21846
847.429	21895
847.565	21934
847.701	22139
847.837	21736
847.972	21637
848.108	21759
848.244	21504
848.379	21481
848.515	21348
848.65	21408
848.786	21401
848.921	21443
849.057	21564
849.192	21599
849.328	21466
849.463	21393
849.598	21439
849.734	21397
849.869	21222
850.004	21374
850.14	21310
850.275	21146
850.41	21051
850.545	21195
850.68	21233
850.815	21268
850.95	21230
851.085	21230
851.22	21386
851.355	21317
851.49	21256
851.625	21199
851.76	21108
851.895	21146
852.03	21184
852.165	21306
852.299	21329
852.434	21363
852.569	21336
852.703	21256
852.838	21306
852.973	21458
853.107	21325
853.242	21222
853.376	21104
853.511	21017
853.645	21081
853.78	21047
853.914	20994
854.048	20921
854.183	21047
854.317	21051
854.451	21230
854.585	21043
854.72	21135
854.854	21047
854.988	20971
855.122	21089
855.256	20971
855.39	21062
855.524	21173
855.658	21150
855.792	20975
855.926	21096
856.06	21055
856.194	21249
856.327	21089
856.461	21032
856.595	20979
856.729	21150
856.862	21104
856.996	21199
857.13	21146
857.263	21127
857.397	21085
857.53	21066
857.664	21116
857.797	21180
857.931	21085
858.064	21173
858.197	21116
858.331	21024
858.464	21013
858.597	20921
858.731	21104
858.864	21066
858.997	20975
859.13	21093
859.263	21089
859.396	21138
859.529	21043
859.662	21077
859.795	20975
859.928	21093
860.061	21195
860.194	21252
860.327	21100
860.46	21116
860.592	21142
860.725	21268
860.858	21032
860.99	21100
861.123	21043
861.256	21028
861.388	21032
861.521	21873
861.653	20956
861.786	20838
861.918	20914
862.05	20929
862.183	20941
862.315	21001
862.447	20982
862.58	20933
862.712	20929
862.844	20724
862.976	20864
863.108	20788
863.24	21085
863.372	20708
863.504	20739
863.636	20746
863.768	20853
863.9	20804
864.032	20609
864.164	20731
864.296	20720
864.428	20838
864.559	20746
864.691	20849
864.823	20781
864.954	20686
865.086	20724
865.217	20571
865.349	20552
865.48	20606
865.612	20705
865.743	20811
865.875	20765
866.006	20583
866.137	20762
866.269	20644
866.4	20716
866.531	20571
866.662	20488
866.793	20632
866.924	20609
867.055	20708
867.186	20590
867.317	20568
867.448	20492
867.579	20495
867.71	20461
867.841	20514
867.972	20602
868.103	20625
868.233	20533
868.364	20720
868.495	20686
868.625	20811
868.756	20937
868.886	20796
869.017	20773
869.147	20979
869.278	20990
869.408	20834
869.539	20765
869.669	20876
869.799	20834
869.929	20937
870.06	20925
870.19	21146
870.32	20967
870.45	21116
870.58	21165
870.71	21386
870.84	21310
870.97	21256
871.1	21260
871.23	21321
871.36	21344
871.489	21298
871.619	21306
871.749	21359
871.879	21496
872.008	21553
872.138	21412
872.267	21367
872.397	21287
872.526	21294
872.656	21313
872.785	21344
872.915	21549
873.044	21492
873.173	21485
873.303	21538
873.432	21435
873.561	21515
873.69	21485
873.819	21370
873.948	21519
874.077	21450
874.206	21485
874.335	21439
874.464	21648
874.593	21660
874.722	21625
874.851	21736
874.979	21682
875.108	21781
875.237	21705
875.365	21587
875.494	21553
875.623	21641
875.751	21603
875.88	21766
876.008	21686
876.136	21819
876.265	22082
876.393	22147
876.521	22223
876.65	22253
876.778	22032
876.906	21998
877.034	21922
877.162	22029
877.29	22032
877.418	22078
877.546	21994
877.674	21979
877.802	21945
877.93	21934
878.058	21937
878.185	21873
878.313	21899
878.441	21991
878.568	21888
878.696	22002
878.824	21972
878.951	22070
879.079	22223
879.206	22291
879.333	22101
879.461	21945
879.588	22131
879.715	22196
879.842	22299
879.97	22128
880.097	21884
880.224	21873
880.351	21975
880.478	21857
880.605	21793
880.732	21835
880.859	22017
880.986	21747
881.112	21934
881.239	21785
881.366	21629
881.493	21622
881.619	21492
881.746	21458
881.872	21450
881.999	21485
882.125	21405
882.252	21397
882.378	21431
882.505	21473
882.631	21336
882.757	21230
882.883	21142
883.01	21039
883.136	21070
883.262	21089
883.388	20948
883.514	21184
883.64	21089
883.766	21123
883.892	20975
884.018	21074
884.143	21112
884.269	21195
884.395	20800
884.52	20727
884.646	20921
884.772	20667
884.897	20670
885.023	20800
885.148	20952
885.274	21005
885.399	20929
885.524	20880
885.65	20826
885.775	20739
885.9	20781
886.025	20864
886.15	20765
886.275	20609
886.4	20735
886.525	20762
886.65	20667
886.775	20739
886.9	20960
887.025	20880
887.149	20708
887.274	20587
887.399	20602
887.523	20617
887.648	20537
887.773	20514
887.897	20648
888.021	20568
888.146	20545
888.27	20708
888.395	20594
888.519	20575
888.643	20636
888.767	20522
888.891	20526
889.015	20396
889.139	20412
889.263	20305
889.387	20492
889.511	20568
889.635	20454
889.759	20343
889.883	20259
890.006	20454
890.13	20419
890.254	20252
890.377	20267
890.501	20111
890.624	20122
890.748	20115
890.871	20058
890.995	19959
891.118	19818
891.241	20005
891.364	19921
891.488	20138
891.611	19894
891.734	19906
891.857	19993
891.98	19936
892.103	20008
892.226	19967
892.349	19894
892.471	19719
892.594	19864
892.717	19704
892.839	19894
892.962	19868
893.085	19898
893.207	19909
893.33	19742
893.452	19632
893.575	19894
893.697	19845
893.819	19982
893.941	19963
894.064	19970
894.186	19715
894.308	19750
894.43	20012
894.552	19997
894.674	19925
894.796	19849
894.918	19852
895.04	19845
895.161	19951
895.283	19902
895.405	19887
895.526	19875
895.648	19822
895.769	19856
895.891	19860
896.012	19986
896.134	19906
896.255	19826
896.376	19871
896.498	19811
896.619	19871
896.74	19852
896.861	19883
896.982	20195
897.103	20244
897.224	20046
897.345	19906
897.466	20031
897.587	20012
897.708	20244
897.828	20065
897.949	19940
898.07	19837
898.19	19959
898.311	20138
898.431	19993
898.552	20058
898.672	20077
898.792	20153
898.913	20062
899.033	19940
899.153	20005
899.273	19704
899.393	19917
899.513	19864
899.633	19750
899.753	19879
899.873	19788
899.993	19727
900.113	19776
900.232	19898
900.352	19632
900.472	19647
900.591	19544
900.711	19681
900.83	19632
900.95	19666
901.069	19635
901.189	19365
901.308	19179
901.427	19221
901.546	19206
901.665	19183
901.784	19126
901.904	19091
902.023	18958
902.141	18719
902.26	18700
902.379	18798
902.498	18696
902.617	18631
902.735	18833
902.854	18852
902.973	18623
903.091	18262
903.21	18361
903.328	18353
903.446	18220
903.565	18247
903.683	18174
903.801	18091
903.919	18057
904.038	18186
904.156	18030
904.274	18007
904.392	17999
904.51	17923
904.627	17973
904.745	17866
904.863	17958
904.981	17661
905.098	17649
905.216	17596
905.334	17665
905.451	17722
905.569	17562
905.686	17676
905.803	17577
905.921	17318
906.038	17429
906.155	17448
906.272	17284
906.389	17280
906.506	17193
906.623	17136
906.74	17220
906.857	16980
906.974	17045
907.091	17231
907.208	17197
907.324	17235
907.441	17003
907.557	16908
907.674	16850
907.79	16748
907.907	16896
908.023	16850
908.139	16873
908.256	16881
908.372	16847
908.488	16717
908.604	16740
908.72	16569
908.836	16580
908.952	16527
909.068	16656
909.184	16691
909.3	16542
909.415	16637
909.531	16592
909.647	16424
909.762	16341
909.878	16322
909.993	16367
910.108	16398
910.224	16238
910.339	16284
910.454	16253
910.57	16158
910.685	16185
910.8	16314
910.915	16276
911.03	16048
911.145	15960
911.259	15892
911.374	15972
911.489	15911
911.604	15838
911.718	15694
911.833	15671
911.947	15667
912.062	15454
912.176	15614
912.291	15564
912.405	15709
912.519	15797
912.633	15751
912.748	15618
912.862	15637
912.976	15485
913.09	15473
913.204	15454
913.318	15462
913.431	15633
913.545	15485
913.659	15576
913.772	15530
913.886	15268
914	15268
914.113	15408
914.226	15469
914.34	15252
914.453	15237
914.566	15233
914.68	15279
914.793	15100
914.906	14914
915.019	14830
915.132	14781
915.245	14830
915.358	14921
915.47	14906
915.583	14925
915.696	15028
915.809	14944
915.921	15123
916.034	14876
916.146	14712
916.259	14792
916.371	14918
916.483	14804
916.595	14697
916.708	14762
916.82	14807
916.932	14613
917.044	14667
917.156	14701
917.268	14648
917.38	14522
917.491	14533
917.603	14484
917.715	14636
917.826	14716
917.938	14514
918.049	14400
918.161	14404
918.272	14689
918.384	14621
918.495	14419
918.606	14419
918.717	14328
918.828	14358
918.939	14351
919.05	14214
919.161	14313
919.272	14176
919.383	14157
919.494	14282
919.604	14480
919.715	14324
919.826	14214
919.936	14267
920.047	14374
920.157	14358
920.267	14461
920.378	14275
920.488	14248
920.598	14419
920.708	14556
920.818	14347
920.928	14381
921.038	14514
921.148	14533
921.258	14199
921.368	14073
921.477	14039
921.587	14077
921.697	13951
921.806	14031
921.916	13936
922.025	13776
922.134	13769
922.244	13556
922.353	13772
922.462	13480
922.571	13403
922.68	13251
922.789	13270
922.898	13251
923.007	13297
923.116	13457
923.224	13301
923.333	13236
923.442	13160
923.55	13175
923.659	13137
923.767	13213
923.876	13137
923.984	13114
924.092	13095
924.201	13145
924.309	13095
924.417	13126
924.525	12916
924.633	13042
924.741	13769
924.849	12753
924.956	12996
925.064	12692
925.172	12681
925.279	12700
925.387	12760
925.494	12768
925.602	12852
925.709	12791
925.816	12574
925.924	12715
926.031	12783
926.138	12700
926.245	12741
926.352	12639
926.459	12795
926.566	12787
926.673	12502
926.779	12555
926.886	12506
926.993	12422
927.099	12262
927.206	12304
927.312	12205
927.419	12300
927.525	12277
927.631	12254
927.737	12220
927.843	12197
927.95	12117
928.056	12186
928.162	12136
928.267	12175
928.373	12684
928.479	12289
928.585	11984
928.69	12038
928.796	12152
928.901	12019
929.007	11927
929.112	12144
929.218	12003
929.323	11859
929.428	11851
929.533	11988
929.638	11764
929.743	11870
929.848	11893
929.953	11794
930.058	11817
930.163	11589
930.267	11646
930.372	11790
930.477	11547
930.581	11661
930.685	11528
930.79	11379
930.894	11478
930.998	11452
931.103	11543
931.207	11265
931.311	11105
931.415	10984
931.519	10904
931.623	10862
