Data from test_V78500241_1483.txt Node
Date: Fri Mar 25 15:20:11 CST 2022
User: usil
Spectrometer: V785-0024
Trigger mode: 0
Integration Time (sec): 4.000000E-1
Scans to average: 1
Nonlinearity correction enabled: false
Boxcar width: 0
Storing dark spectrum: false
XAxis mode: Wavelengths
Number of Pixels in Spectrum: 1024
>>>>>Begin Spectral Data<<<<<
801.071	28078
801.214	28029
801.356	27728
801.499	27827
801.641	27564
801.783	27561
801.926	27705
802.068	27580
802.211	27523
802.353	27443
802.496	27218
802.638	27203
802.78	27241
802.923	27207
803.065	27093
803.208	27039
803.35	27195
803.492	27412
803.635	27435
803.777	27272
803.919	27462
804.061	27789
804.204	27507
804.346	27389
804.488	27462
804.63	27447
804.773	27382
804.915	27431
805.057	27534
805.199	27329
805.341	27439
805.483	27709
805.626	27530
805.768	27477
805.91	27622
806.052	27511
806.194	27534
806.336	27816
806.478	27538
806.62	27648
806.762	27637
806.904	27713
807.046	27953
807.188	27979
807.33	27873
807.472	28101
807.614	27880
807.756	27911
807.898	27800
808.04	27766
808.182	27876
808.324	28036
808.465	27903
808.607	28204
808.749	28211
808.891	28314
809.033	28318
809.174	28318
809.316	28196
809.458	28139
809.6	28143
809.741	28386
809.883	28382
810.025	28459
810.166	28497
810.308	28554
810.45	28485
810.591	28497
810.733	28253
810.875	28344
811.016	28105
811.158	28013
811.299	28268
811.441	28360
811.582	28394
811.724	28299
811.865	28219
812.007	28166
812.148	28226
812.29	28325
812.431	28466
812.573	28516
812.714	28679
812.855	28702
812.997	28797
813.138	29018
813.279	28877
813.421	28786
813.562	28706
813.703	28603
813.845	28451
813.986	28284
814.127	28044
814.268	27778
814.41	28002
814.551	27762
814.692	27987
814.833	27808
814.974	27991
815.115	27937
815.256	27717
815.397	27850
815.539	27720
815.68	27694
815.821	27778
815.962	27774
816.103	27648
816.244	27564
816.385	27500
816.526	27530
816.666	27207
816.807	27310
816.948	27180
817.089	27348
817.23	27169
817.371	27199
817.512	27169
817.653	27214
817.793	27116
817.934	27310
818.075	27207
818.216	27264
818.356	27214
818.497	26963
818.638	26910
818.778	26925
818.919	27001
819.06	27032
819.2	27074
819.341	27230
819.481	27211
819.622	27443
819.762	27572
819.903	27408
820.043	27336
820.184	27218
820.324	27256
820.465	27393
820.605	27408
820.746	27351
820.886	27180
821.026	27420
821.167	27306
821.307	27306
821.447	27195
821.588	26986
821.728	27039
821.868	26830
822.008	26636
822.149	26636
822.289	26598
822.429	26290
822.569	26332
822.709	26328
822.849	26225
822.99	26210
823.13	26183
823.27	26035
823.41	25906
823.55	25822
823.69	26062
823.83	26035
823.97	25898
824.11	25795
824.25	25738
824.389	25799
824.529	25944
824.669	25925
824.809	26031
824.949	25906
825.089	25936
825.228	25875
825.368	25685
825.508	25693
825.648	25681
825.787	25868
825.927	25784
826.067	25734
826.206	25586
826.346	25715
826.485	25750
826.625	25727
826.765	25818
826.904	25609
827.044	25449
827.183	25438
827.323	25422
827.462	25438
827.601	25449
827.741	25369
827.88	25457
828.02	25384
828.159	25240
828.298	25343
828.437	25468
828.577	25346
828.716	25521
828.855	25244
828.994	25061
829.134	25152
829.273	25304
829.412	25069
829.551	24977
829.69	25133
829.829	25187
829.968	25137
830.107	25236
830.246	25179
830.385	24992
830.524	24977
830.663	24894
830.802	24806
830.941	24635
831.08	24681
831.219	24730
831.357	24916
831.496	24848
831.635	24673
831.774	24509
831.913	24658
832.051	24479
832.19	24490
832.329	24414
832.467	24441
832.606	24376
832.744	24209
832.883	24334
833.022	24361
833.16	24376
833.299	24289
833.437	24460
833.576	24410
833.714	24433
833.852	24407
833.991	24391
834.129	24597
834.267	24536
834.406	24372
834.544	24407
834.682	24418
834.821	24369
834.959	24445
835.097	24308
835.235	24505
835.373	24452
835.511	24407
835.65	24277
835.788	24273
835.926	24178
836.064	23969
836.202	24167
836.34	24205
836.478	24251
836.615	24266
836.753	24243
836.891	24273
837.029	24209
837.167	24049
837.305	24144
837.443	23999
837.58	24186
837.718	24087
837.856	24125
837.993	23980
838.131	24015
838.269	24049
838.406	24049
838.544	23813
838.681	23786
838.819	23809
838.956	23478
839.094	23535
839.231	23501
839.369	23703
839.506	23912
839.643	23821
839.781	23509
839.918	23551
840.055	23638
840.193	23448
840.33	23471
840.467	23490
840.604	23402
840.742	23680
840.879	23334
841.016	23398
841.153	23417
841.29	23512
841.427	23452
841.564	23573
841.701	23402
841.838	23429
841.975	23353
842.112	23307
842.249	23356
842.385	23277
842.522	23368
842.659	23269
842.796	23235
842.933	23322
843.069	23098
843.206	23098
843.343	23280
843.479	23254
843.616	23212
843.752	23067
843.889	23132
844.025	23181
844.162	23048
844.298	23067
844.435	22972
844.571	22911
844.708	23090
844.844	23094
844.98	23048
845.117	23075
845.253	23006
845.389	22824
845.525	22869
845.661	22885
845.798	22656
845.934	22797
846.07	22736
846.206	22687
846.342	22706
846.478	22698
846.614	22466
846.75	22405
846.886	22379
847.022	22519
847.158	22417
847.294	22440
847.429	22417
847.565	22394
847.701	22626
847.837	22185
847.972	22131
848.108	22253
848.244	22242
848.379	22006
848.515	21968
848.65	22040
848.786	21941
848.921	22006
849.057	22162
849.192	22230
849.328	22200
849.463	21949
849.598	22006
849.734	21892
849.869	21922
850.004	21827
850.14	21888
850.275	21717
850.41	21736
850.545	21724
850.68	21724
850.815	21732
850.95	21709
851.085	21972
851.22	21949
851.355	21774
851.49	21743
851.625	21770
851.76	21785
851.895	21679
852.03	21762
852.165	21880
852.299	21838
852.434	21865
852.569	21907
852.703	21823
852.838	21797
852.973	21857
853.107	21903
853.242	21838
853.376	21679
853.511	21477
853.645	21583
853.78	21713
853.914	21732
854.048	21576
854.183	21393
854.317	21587
854.451	21800
854.585	21534
854.72	21583
854.854	21618
854.988	21580
855.122	21538
855.256	21481
855.39	21686
855.524	21572
855.658	21701
855.792	21564
855.926	21660
856.06	21595
856.194	21652
856.327	21564
856.461	21545
856.595	21469
856.729	21660
856.862	21797
856.996	21705
857.13	21682
857.263	21679
857.397	21701
857.53	21610
857.664	21564
857.797	21724
857.931	21732
858.064	21629
858.197	21766
858.331	21625
858.464	21538
858.597	21401
858.731	21534
858.864	21614
858.997	21580
859.13	21629
859.263	21682
859.396	21766
859.529	21568
859.662	21557
859.795	21526
859.928	21690
860.061	21656
860.194	21781
860.327	21717
860.46	21637
860.592	21698
860.725	21686
860.858	21736
860.99	21663
861.123	21462
861.256	21587
861.388	21610
861.521	22162
861.653	21450
861.786	21310
861.918	21412
862.05	21606
862.183	21599
862.315	21549
862.447	21507
862.58	21466
862.712	21230
862.844	21249
862.976	21492
863.108	21294
863.24	21819
863.372	21203
863.504	21192
863.636	21321
863.768	21256
863.9	21283
864.032	21161
864.164	21252
864.296	21340
864.428	21424
864.559	21367
864.691	21359
864.823	21226
864.954	21222
865.086	21325
865.217	21306
865.349	21260
865.48	21233
865.612	21233
865.743	21351
865.875	21268
866.006	21123
866.137	21214
866.269	21237
866.4	21017
866.531	21077
866.662	21043
866.793	21169
866.924	21180
867.055	21157
867.186	21135
867.317	21123
867.448	21032
867.579	20986
867.71	21077
867.841	20982
867.972	21127
868.103	21165
868.233	21138
868.364	21203
868.495	21287
868.625	21249
868.756	21439
868.886	21310
869.017	21363
869.147	21477
869.278	21412
869.408	21386
869.539	21416
869.669	21466
869.799	21431
869.929	21466
870.06	21519
870.19	21705
870.32	21641
870.45	21747
870.58	21736
870.71	21854
870.84	21854
870.97	21762
871.1	21709
871.23	21987
871.36	21911
871.489	21865
871.619	21937
871.749	21926
871.879	21994
872.008	22166
872.138	21846
872.267	21895
872.397	21880
872.526	21713
872.656	21743
872.785	21751
872.915	21975
873.044	22044
873.173	21861
873.303	22105
873.432	21953
873.561	22078
873.69	22036
873.819	22090
873.948	22086
874.077	21892
874.206	21975
874.335	22082
874.464	22177
874.593	22287
874.722	22242
874.851	22169
874.979	22120
875.108	22257
875.237	22196
875.365	22048
875.494	22112
875.623	22226
875.751	22204
875.88	22169
876.008	22436
876.136	22436
876.265	22622
876.393	22736
876.521	22596
876.65	22683
876.778	22538
876.906	22462
877.034	22481
877.162	22519
877.29	22561
877.418	22538
877.546	22538
877.674	22565
877.802	22459
877.93	22500
878.058	22497
878.185	22466
878.313	22375
878.441	22611
878.568	22428
878.696	22409
878.824	22607
878.951	22645
879.079	22622
879.206	22801
879.333	22694
879.461	22527
879.588	22710
879.715	22637
879.842	22831
879.97	22569
880.097	22314
880.224	22253
880.351	22329
880.478	22409
880.605	22356
880.732	22242
880.859	22592
880.986	22516
881.112	22306
881.239	22253
881.366	22101
881.493	21998
881.619	21930
881.746	21899
881.872	21956
881.999	22040
882.125	21846
882.252	22086
882.378	21960
882.505	22025
882.631	21861
882.757	21720
882.883	21812
883.01	21781
883.136	21614
883.262	21340
883.388	21359
883.514	21759
883.64	21511
883.766	21538
883.892	21458
884.018	21466
884.143	21538
884.269	21606
884.395	21458
884.52	21256
884.646	21363
884.772	21203
884.897	21184
885.023	21306
885.148	21310
885.274	21447
885.399	21344
885.524	21207
885.65	21313
885.775	21264
885.9	21165
886.025	21431
886.15	21344
886.275	21226
886.4	21165
886.525	21340
886.65	21230
886.775	21199
886.9	21340
887.025	21587
887.149	21230
887.274	20971
887.399	21009
887.523	21154
887.648	21009
887.773	20834
887.897	21093
888.021	20845
888.146	20906
888.27	21085
888.395	21089
888.519	21036
888.643	20971
888.767	21024
888.891	20967
889.015	20792
889.139	20849
889.263	20765
889.387	20960
889.511	21005
889.635	21074
889.759	20773
889.883	20830
890.006	20773
890.13	20963
890.254	20655
890.377	20773
890.501	20545
890.624	20552
890.748	20686
890.871	20522
890.995	20476
891.118	20313
891.241	20465
891.364	20355
891.488	20480
891.611	20320
891.734	20492
891.857	20431
891.98	20339
892.103	20434
892.226	20434
892.349	20328
892.471	20092
892.594	20164
892.717	20351
892.839	20317
892.962	20336
893.085	20259
893.207	20320
893.33	20111
893.452	20145
893.575	20389
893.697	20199
893.819	20423
893.941	20351
894.064	20389
894.186	20202
894.308	20244
894.43	20370
894.552	20530
894.674	20305
894.796	20294
894.918	20206
895.04	20267
895.161	20336
895.283	20389
895.405	20088
895.526	20218
895.648	20168
895.769	20229
895.891	20248
896.012	20446
896.134	20393
896.255	20229
896.376	20294
896.498	20332
896.619	20233
896.74	20202
896.861	20347
896.982	20575
897.103	20667
897.224	20617
897.345	20446
897.466	20438
897.587	20484
897.708	20598
897.828	20522
897.949	20454
898.07	20370
898.19	20457
898.311	20488
898.431	20495
898.552	20644
898.672	20545
898.792	20568
898.913	20598
899.033	20419
899.153	20412
899.273	20240
899.393	20161
899.513	20336
899.633	20187
899.753	20240
899.873	20218
899.993	20290
900.113	20183
900.232	20225
900.352	20111
900.472	20107
900.591	19959
900.711	20024
900.83	20008
900.95	20199
901.069	20126
901.189	19906
901.308	19723
901.427	19670
901.546	19544
901.665	19681
901.784	19582
901.904	19563
902.023	19441
902.141	19141
902.26	19183
902.379	19312
902.498	19145
902.617	19004
902.735	19156
902.854	19080
902.973	19050
903.091	18833
903.21	18802
903.328	18798
903.446	18654
903.565	18661
903.683	18650
903.801	18490
903.919	18479
904.038	18585
904.156	18437
904.274	18334
904.392	18388
904.51	18308
904.627	18342
904.745	18445
904.863	18395
904.981	18201
905.098	18079
905.216	18072
905.334	18064
905.451	18045
905.569	18022
905.686	17988
905.803	18133
905.921	17756
906.038	17874
906.155	17794
906.272	17710
906.389	17870
906.506	17551
906.623	17558
906.74	17592
906.857	17467
906.974	17539
907.091	17589
907.208	17653
907.324	17646
907.441	17490
907.557	17322
907.674	17231
907.79	17231
907.907	17250
908.023	17223
908.139	17284
908.256	17208
908.372	17090
908.488	17121
908.604	17033
908.72	17037
908.836	17010
908.952	17064
909.068	16965
909.184	17113
909.3	16938
909.415	16991
909.531	17045
909.647	16656
909.762	16717
909.878	16634
909.993	16717
910.108	16725
910.224	16592
910.339	16683
910.454	16519
910.57	16421
910.685	16417
910.8	16744
910.915	16615
911.03	16500
911.145	16394
911.259	16318
911.374	16386
911.489	16200
911.604	16135
911.718	15964
911.833	16131
911.947	15899
912.062	15850
912.176	16025
912.291	16048
912.405	15918
912.519	16120
912.633	16173
912.748	16036
912.862	16086
912.976	15876
913.09	15648
913.204	15701
913.318	15899
913.431	15842
913.545	15895
913.659	15899
913.772	15709
913.886	15587
914	15682
914.113	15679
914.226	15724
914.34	15709
914.453	15500
914.566	15633
914.68	15576
914.793	15599
914.906	15329
915.019	15230
915.132	15207
915.245	15218
915.358	15245
915.47	15214
915.583	15211
915.696	15252
915.809	15443
915.921	15348
916.034	15165
916.146	15150
916.259	15058
916.371	15279
916.483	15074
916.595	15154
916.708	14990
916.82	15089
916.932	15032
917.044	15066
917.156	14982
917.268	14845
917.38	14830
917.491	14834
917.603	14880
917.715	14933
917.826	15028
917.938	14883
918.049	14663
918.161	14834
918.272	14937
918.384	14967
918.495	14883
918.606	14659
918.717	14629
918.828	14720
918.939	14636
919.05	14571
919.161	14568
919.272	14488
919.383	14579
919.494	14743
919.604	14811
919.715	14617
919.826	14511
919.936	14590
920.047	14655
920.157	14610
920.267	14804
920.378	14651
920.488	14556
920.598	14693
920.708	14853
920.818	14701
920.928	14655
921.038	14895
921.148	14830
921.258	14575
921.368	14419
921.477	14343
921.587	14309
921.697	14248
921.806	14400
921.916	14145
922.025	14012
922.134	13822
922.244	13944
922.353	14016
922.462	13849
922.571	13795
922.68	13693
922.789	13601
922.898	13597
923.007	13628
923.116	13613
923.224	13582
923.333	13571
923.442	13502
923.55	13472
923.659	13445
923.767	13563
923.876	13358
923.984	13457
924.092	13354
924.201	13384
924.309	13396
924.417	13396
924.525	13247
924.633	13209
924.741	14103
924.849	13103
924.956	13232
925.064	13061
925.172	12943
925.279	12970
925.387	13023
925.494	12958
925.602	13114
925.709	13110
925.816	12837
925.924	12954
926.031	13091
926.138	13057
926.245	13084
926.352	12886
926.459	12985
926.566	13004
926.673	12886
926.779	12844
926.886	12772
926.993	12631
927.099	12726
927.206	12547
927.312	12513
927.419	12593
927.525	12608
927.631	12555
927.737	12528
927.843	12365
927.95	12361
928.056	12376
928.162	12429
928.267	12471
928.373	12966
928.479	12639
928.585	12300
928.69	12319
928.796	12429
928.901	12262
929.007	12091
929.112	12350
929.218	12186
929.323	12144
929.428	12155
929.533	12251
929.638	12007
929.743	12091
929.848	12182
929.953	12049
930.058	11969
930.163	11904
930.267	11821
930.372	11912
930.477	11802
930.581	11992
930.685	11958
930.79	11668
930.894	11783
930.998	11672
931.103	11878
931.207	11509
931.311	11379
931.415	11349
931.519	11067
931.623	11113
