Data from test_V78500241_1414.txt Node
Date: Fri Mar 25 15:19:42 CST 2022
User: usil
Spectrometer: V785-0024
Trigger mode: 0
Integration Time (sec): 4.000000E-1
Scans to average: 1
Nonlinearity correction enabled: false
Boxcar width: 0
Storing dark spectrum: false
XAxis mode: Wavelengths
Number of Pixels in Spectrum: 1024
>>>>>Begin Spectral Data<<<<<
801.071	28284
801.214	28013
801.356	27903
801.499	27918
801.641	27880
801.783	27876
801.926	27804
802.068	27732
802.211	27774
802.353	27599
802.496	27302
802.638	27348
802.78	27363
802.923	27466
803.065	27252
803.208	27272
803.35	27401
803.492	27637
803.635	27561
803.777	27572
803.919	27572
804.061	27956
804.204	27739
804.346	27454
804.488	27500
804.63	27618
804.773	27504
804.915	27667
805.057	27663
805.199	27587
805.341	27656
805.483	27854
805.626	27819
805.768	27690
805.91	27663
806.052	27713
806.194	27629
806.336	27899
806.478	27880
806.62	27728
806.762	27930
806.904	28078
807.046	28169
807.188	28230
807.33	28303
807.472	28147
807.614	28070
807.756	28154
807.898	27934
808.04	27953
808.182	27975
808.324	28101
808.465	28025
808.607	28363
808.749	28398
808.891	28561
809.033	28569
809.174	28497
809.316	28371
809.458	28443
809.6	28337
809.741	28603
809.883	28592
810.025	28759
810.166	28774
810.308	28611
810.45	28679
810.591	28603
810.733	28333
810.875	28329
811.016	28291
811.158	28306
811.299	28462
811.441	28653
811.582	28554
811.724	28314
811.865	28432
812.007	28432
812.148	28413
812.29	28447
812.431	28759
812.573	28668
812.714	28923
812.855	29086
812.997	29128
813.138	29113
813.279	29064
813.421	28999
813.562	28946
813.703	28816
813.845	28675
813.986	28443
814.127	28238
814.268	28109
814.41	28082
814.551	28177
814.692	28181
814.833	28185
814.974	27998
815.115	28204
815.256	27949
815.397	27937
815.539	28051
815.68	27873
815.821	27831
815.962	27945
816.103	27907
816.244	27869
816.385	27633
816.526	27660
816.666	27557
816.807	27317
816.948	27469
817.089	27466
817.23	27439
817.371	27462
817.512	27302
817.653	27279
817.793	27424
817.934	27393
818.075	27420
818.216	27416
818.356	27412
818.497	27420
818.638	27089
818.778	27154
818.919	27211
819.06	27245
819.2	27359
819.341	27321
819.481	27519
819.622	27587
819.762	27743
819.903	27625
820.043	27606
820.184	27538
820.324	27633
820.465	27637
820.605	27557
820.746	27633
820.886	27412
821.026	27564
821.167	27405
821.307	27641
821.447	27412
821.588	27165
821.728	27275
821.868	26979
822.008	27039
822.149	26902
822.289	26914
822.429	26549
822.569	26594
822.709	26507
822.849	26324
822.99	26366
823.13	26393
823.27	26263
823.41	26256
823.55	25974
823.69	26252
823.83	26145
823.97	26081
824.11	25993
824.25	25932
824.389	25963
824.529	26119
824.669	26031
824.809	26145
824.949	26183
825.089	26176
825.228	26088
825.368	25875
825.508	25746
825.648	25940
825.787	25875
825.927	26012
826.067	25883
826.206	25944
826.346	26008
826.485	25913
826.625	26031
826.765	25947
826.904	25837
827.044	25662
827.183	25643
827.323	25670
827.462	25677
827.601	25677
827.741	25666
827.88	25643
828.02	25415
828.159	25525
828.298	25559
828.437	25613
828.577	25514
828.716	25715
828.855	25438
828.994	25308
829.134	25301
829.273	25499
829.412	25316
829.551	25236
829.69	25335
829.829	25434
829.968	25396
830.107	25350
830.246	25270
830.385	25217
830.524	25160
830.663	25156
830.802	25012
830.941	24905
831.08	24951
831.219	25008
831.357	24947
831.496	25095
831.635	25072
831.774	24768
831.913	24631
832.051	24776
832.19	24669
832.329	24810
832.467	24715
832.606	24525
832.744	24570
832.883	24547
833.022	24642
833.16	24517
833.299	24642
833.437	24646
833.576	24738
833.714	24502
833.852	24757
833.991	24669
834.129	24768
834.267	24757
834.406	24760
834.544	24555
834.682	24654
834.821	24677
834.959	24833
835.097	24566
835.235	24631
835.373	24627
835.511	24601
835.65	24525
835.788	24513
835.926	24338
836.064	24395
836.202	24395
836.34	24445
836.478	24620
836.615	24486
836.753	24601
836.891	24490
837.029	24513
837.167	24502
837.305	24338
837.443	24330
837.58	24270
837.718	24384
837.856	24296
837.993	24273
838.131	24315
838.269	24228
838.406	24254
838.544	24213
838.681	23946
838.819	23931
838.956	23748
839.094	23745
839.231	23722
839.369	24049
839.506	24064
839.643	23977
839.781	23767
839.918	23638
840.055	23813
840.193	23741
840.33	23623
840.467	23661
840.604	23707
840.742	24026
840.879	23547
841.016	23642
841.153	23577
841.29	23802
841.427	23714
841.564	23703
841.701	23634
841.838	23596
841.975	23630
842.112	23497
842.249	23455
842.385	23490
842.522	23585
842.659	23512
842.796	23334
842.933	23486
843.069	23364
843.206	23372
843.343	23440
843.479	23501
843.616	23459
843.752	23254
843.889	23337
844.025	23452
844.162	23140
844.298	23330
844.435	23246
844.571	23056
844.708	23345
844.844	23436
844.98	23398
845.117	23204
845.253	23098
845.389	23018
845.525	23155
845.661	23090
845.798	22957
845.934	23014
846.07	22915
846.206	23010
846.342	23083
846.478	22892
846.614	22774
846.75	22649
846.886	22713
847.022	22694
847.158	22656
847.294	22793
847.429	22649
847.565	22577
847.701	23102
847.837	22424
847.972	22318
848.108	22455
848.244	22481
848.379	22310
848.515	22333
848.65	22226
848.786	22242
848.921	22192
849.057	22367
849.192	22261
849.328	22234
849.463	22291
849.598	22223
849.734	22204
849.869	21994
850.004	22044
850.14	22032
850.275	21816
850.41	21949
850.545	21926
850.68	21975
850.815	21960
850.95	22017
851.085	22097
851.22	22169
851.355	21994
851.49	22032
851.625	21953
851.76	21968
851.895	21873
852.03	21907
852.165	21964
852.299	22044
852.434	22150
852.569	21983
852.703	22040
852.838	22010
852.973	22097
853.107	22059
853.242	21998
853.376	21842
853.511	21762
853.645	21812
853.78	21975
853.914	21869
854.048	21785
854.183	21717
854.317	21930
854.451	22082
854.585	21918
854.72	21892
854.854	21903
854.988	21705
855.122	21804
855.256	21808
855.39	21705
855.524	21918
855.658	21854
855.792	21823
855.926	21816
856.06	21850
856.194	21869
856.327	21804
856.461	21747
856.595	21625
856.729	21671
856.862	21816
856.996	21907
857.13	21884
857.263	21960
857.397	21869
857.53	21770
857.664	21861
857.797	21842
857.931	21876
858.064	21880
858.197	21956
858.331	21762
858.464	21660
858.597	21614
858.731	21755
858.864	21713
858.997	21755
859.13	21629
859.263	21755
859.396	21968
859.529	21781
859.662	21804
859.795	21747
859.928	21846
860.061	21994
860.194	22032
860.327	21953
860.46	21937
860.592	22025
860.725	21903
860.858	21964
860.99	21804
861.123	21656
861.256	21690
861.388	21781
861.521	22386
861.653	21857
861.786	21629
861.918	21686
862.05	21652
862.183	21736
862.315	21793
862.447	21823
862.58	21804
862.712	21561
862.844	21637
862.976	21583
863.108	21606
863.24	21850
863.372	21485
863.504	21393
863.636	21458
863.768	21519
863.9	21568
864.032	21405
864.164	21405
864.296	21606
864.428	21618
864.559	21633
864.691	21481
864.823	21580
864.954	21504
865.086	21420
865.217	21477
865.349	21321
865.48	21386
865.612	21382
865.743	21515
865.875	21450
866.006	21374
866.137	21344
866.269	21367
866.4	21348
866.531	21294
866.662	21329
866.793	21412
866.924	21256
867.055	21348
867.186	21348
867.317	21378
867.448	21173
867.579	21264
867.71	21272
867.841	21245
867.972	21443
868.103	21359
868.233	21408
868.364	21367
868.495	21542
868.625	21568
868.756	21652
868.886	21405
869.017	21622
869.147	21534
869.278	21667
869.408	21595
869.539	21553
869.669	21561
869.799	21694
869.929	21660
870.06	21736
870.19	21835
870.32	21842
870.45	21926
870.58	22006
870.71	22006
870.84	21991
870.97	21998
871.1	21972
871.23	22147
871.36	22181
871.489	22109
871.619	22055
871.749	22147
871.879	22116
872.008	22303
872.138	22158
872.267	22249
872.397	22093
872.526	21994
872.656	22120
872.785	21968
872.915	22177
873.044	22192
873.173	22211
873.303	22253
873.432	22249
873.561	22204
873.69	22261
873.819	22063
873.948	22234
874.077	22166
874.206	21983
874.335	22090
874.464	22173
874.593	22478
874.722	22322
874.851	22421
874.979	22443
875.108	22394
875.237	22348
875.365	22310
875.494	22322
875.623	22493
875.751	22489
875.88	22322
876.008	22573
876.136	22626
876.265	22801
876.393	22885
876.521	22812
876.65	22881
876.778	22790
876.906	22622
877.034	22736
877.162	22927
877.29	22668
877.418	22790
877.546	22873
877.674	22786
877.802	22778
877.93	22603
878.058	22687
878.185	22603
878.313	22759
878.441	22630
878.568	22554
878.696	22752
878.824	22748
878.951	22801
879.079	22965
879.206	23086
879.333	22919
879.461	22660
879.588	22805
879.715	22786
879.842	23060
879.97	22847
880.097	22497
880.224	22615
880.351	22599
880.478	22569
880.605	22512
880.732	22500
880.859	22778
880.986	22527
881.112	22733
881.239	22398
881.366	22356
881.493	22284
881.619	22093
881.746	22249
881.872	22135
881.999	22173
882.125	22090
882.252	22036
882.378	22032
882.505	22215
882.631	21949
882.757	21903
882.883	21903
883.01	21793
883.136	21778
883.262	21679
883.388	21614
883.514	21778
883.64	21823
883.766	21739
883.892	21568
884.018	21625
884.143	21797
884.269	21793
884.395	21595
884.52	21488
884.646	21507
884.772	21439
884.897	21332
885.023	21481
885.148	21405
885.274	21633
885.399	21492
885.524	21401
885.65	21511
885.775	21447
885.9	21306
886.025	21614
886.15	21526
886.275	21367
886.4	21443
886.525	21519
886.65	21481
886.775	21397
886.9	21496
887.025	21591
887.149	21386
887.274	21218
887.399	21123
887.523	21195
887.648	21176
887.773	21211
887.897	21389
888.021	21233
888.146	21226
888.27	21252
888.395	21112
888.519	21245
888.643	21233
888.767	21241
888.891	21241
889.015	20990
889.139	20982
889.263	21036
889.387	21203
889.511	21256
889.635	21154
889.759	20952
889.883	20910
890.006	20895
890.13	21112
890.254	20960
890.377	20872
890.501	20830
890.624	20811
890.748	20769
890.871	20640
890.995	20659
891.118	20533
891.241	20568
891.364	20727
891.488	20765
891.611	20655
891.734	20609
891.857	20659
891.98	20545
892.103	20590
892.226	20598
892.349	20408
892.471	20381
892.594	20560
892.717	20530
892.839	20442
892.962	20396
893.085	20526
893.207	20393
893.33	20442
893.452	20317
893.575	20427
893.697	20495
893.819	20655
893.941	20636
894.064	20609
894.186	20423
894.308	20343
894.43	20377
894.552	20602
894.674	20541
894.796	20355
894.918	20362
895.04	20415
895.161	20518
895.283	20499
895.405	20457
895.526	20518
895.648	20450
895.769	20438
895.891	20484
896.012	20549
896.134	20476
896.255	20484
896.376	20522
896.498	20526
896.619	20450
896.74	20393
896.861	20522
896.982	20583
897.103	20948
897.224	20731
897.345	20708
897.466	20632
897.587	20621
897.708	20804
897.828	20674
897.949	20568
898.07	20579
898.19	20579
898.311	20651
898.431	20663
898.552	20785
898.672	20705
898.792	20830
898.913	20598
899.033	20400
899.153	20450
899.273	20355
899.393	20446
899.513	20434
899.633	20473
899.753	20355
899.873	20389
899.993	20400
900.113	20415
900.232	20404
900.352	20298
900.472	20244
900.591	20168
900.711	20286
900.83	20142
900.95	20278
901.069	20286
901.189	20031
901.308	19883
901.427	19700
901.546	19830
901.665	19845
901.784	19750
901.904	19685
902.023	19533
902.141	19400
902.26	19324
902.379	19483
902.498	19263
902.617	19183
902.735	19266
902.854	19285
902.973	19213
903.091	18985
903.21	18966
903.328	18939
903.446	18821
903.565	18779
903.683	18764
903.801	18639
903.919	18715
904.038	18658
904.156	18437
904.274	18734
904.392	18559
904.51	18471
904.627	18483
904.745	18604
904.863	18525
904.981	18296
905.098	18186
905.216	18258
905.334	18277
905.451	18262
905.569	18155
905.686	18117
905.803	18220
905.921	17901
906.038	18136
906.155	17950
906.272	17958
906.389	17863
906.506	17695
906.623	17718
906.74	17684
906.857	17562
906.974	17653
907.091	17847
907.208	17760
907.324	17733
907.441	17452
907.557	17528
907.674	17486
907.79	17414
907.907	17395
908.023	17436
908.139	17452
908.256	17444
908.372	17353
908.488	17265
908.604	17147
908.72	17048
908.836	17098
908.952	17060
909.068	17277
909.184	17250
909.3	17208
909.415	17105
909.531	17128
909.647	16896
909.762	16869
909.878	16759
909.993	16790
910.108	16858
910.224	16782
910.339	16831
910.454	16660
910.57	16653
910.685	16451
910.8	16812
910.915	16725
911.03	16637
911.145	16451
911.259	16402
911.374	16478
911.489	16402
911.604	16299
911.718	16230
911.833	16211
911.947	16074
912.062	16010
912.176	16166
912.291	16166
912.405	16173
912.519	16341
912.633	16318
912.748	16162
912.862	16116
912.976	16059
913.09	15838
913.204	15892
913.318	15945
913.431	16029
913.545	16032
913.659	15968
913.772	15892
913.886	15861
914	15736
914.113	15915
914.226	15991
914.34	15827
914.453	15770
914.566	15827
914.68	15644
914.793	15637
914.906	15469
915.019	15317
915.132	15355
915.245	15424
915.358	15355
915.47	15386
915.583	15439
915.696	15291
915.809	15393
915.921	15466
916.034	15348
916.146	15268
916.259	15230
916.371	15329
916.483	15272
916.595	15249
916.708	15260
916.82	15268
916.932	15135
917.044	15066
917.156	15066
917.268	15058
917.38	15039
917.491	14956
917.603	14971
917.715	15100
917.826	15070
917.938	15100
918.049	14785
918.161	14906
918.272	15108
918.384	15180
918.495	14956
918.606	14773
918.717	14773
918.828	14830
918.939	14857
919.05	14807
919.161	14743
919.272	14530
919.383	14705
919.494	14746
919.604	14994
919.715	14796
919.826	14712
919.936	14644
920.047	14792
920.157	14689
920.267	14876
920.378	14716
920.488	14743
920.598	14891
920.708	15135
920.818	14838
920.928	14811
921.038	14960
921.148	14971
921.258	14594
921.368	14610
921.477	14488
921.587	14442
921.697	14396
921.806	14415
921.916	14134
922.025	14130
922.134	14221
922.244	14043
922.353	14084
922.462	14035
922.571	13970
922.68	13719
922.789	13651
922.898	13757
923.007	13662
923.116	13772
923.224	13769
923.333	13700
923.442	13639
923.55	13586
923.659	13529
923.767	13674
923.876	13514
923.984	13601
924.092	13499
924.201	13518
924.309	13476
924.417	13476
924.525	13449
924.633	13430
924.741	14107
924.849	13183
924.956	13343
925.064	13209
925.172	13118
925.279	13110
925.387	13118
925.494	13095
925.602	13202
925.709	13145
925.816	13069
925.924	13152
926.031	13194
926.138	13126
926.245	13160
926.352	13038
926.459	13088
926.566	13160
926.673	12985
926.779	12840
926.886	12848
926.993	12798
927.099	12658
927.206	12658
927.312	12582
927.419	12700
927.525	12688
927.631	12764
927.737	12589
927.843	12414
927.95	12418
928.056	12486
928.162	12574
928.267	12608
928.373	13213
928.479	12555
928.585	12365
928.69	12498
928.796	12483
928.901	12410
929.007	12270
929.112	12414
929.218	12251
929.323	12258
929.428	12228
929.533	12338
929.638	12182
929.743	12220
929.848	12285
929.953	12258
930.058	12144
930.163	11935
930.267	11988
930.372	12125
930.477	11809
930.581	12121
930.685	12060
930.79	11904
930.894	11893
930.998	11783
931.103	11870
931.207	11566
931.311	11391
931.415	11436
931.519	11159
931.623	11140
