Data from test_V78500241_2732.txt Node
Date: Fri Mar 25 15:28:53 CST 2022
User: usil
Spectrometer: V785-0024
Trigger mode: 0
Integration Time (sec): 4.000000E-1
Scans to average: 1
Nonlinearity correction enabled: false
Boxcar width: 0
Storing dark spectrum: false
XAxis mode: Wavelengths
Number of Pixels in Spectrum: 1024
>>>>>Begin Spectral Data<<<<<
801.071	27165
801.214	27055
801.356	26826
801.499	26739
801.641	26746
801.783	26659
801.926	26735
802.068	26807
802.211	26594
802.353	26629
802.496	26347
802.638	26301
802.78	26286
802.923	26256
803.065	26073
803.208	26256
803.35	26233
803.492	26347
803.635	26579
803.777	26336
803.919	26495
804.061	26739
804.204	26503
804.346	26465
804.488	26412
804.63	26431
804.773	26305
804.915	26400
805.057	26556
805.199	26396
805.341	26552
805.483	26655
805.626	26613
805.768	26473
805.91	26488
806.052	26598
806.194	26552
806.336	26811
806.478	26594
806.62	26632
806.762	26678
806.904	26804
807.046	26990
807.188	27089
807.33	27085
807.472	27005
807.614	26773
807.756	26910
807.898	26796
808.04	26861
808.182	26811
808.324	26914
808.465	26876
808.607	26982
808.749	27192
808.891	27268
809.033	27325
809.174	27298
809.316	27096
809.458	27321
809.6	27123
809.741	27272
809.883	27408
810.025	27431
810.166	27355
810.308	27450
810.45	27325
810.591	27332
810.733	27161
810.875	27165
811.016	27260
811.158	27104
811.299	27393
811.441	27298
811.582	27279
811.724	27165
811.865	27055
812.007	27165
812.148	27081
812.29	27203
812.431	27306
812.573	27325
812.714	27500
812.855	27583
812.997	27823
813.138	27907
813.279	27842
813.421	27523
813.562	27618
813.703	27519
813.845	27435
813.986	27184
814.127	26944
814.268	26864
814.41	26845
814.551	26705
814.692	26872
814.833	26746
814.974	26724
815.115	26743
815.256	26663
815.397	26720
815.539	26724
815.68	26640
815.821	26556
815.962	26689
816.103	26549
816.244	26453
816.385	26309
816.526	26358
816.666	26271
816.807	26043
816.948	26096
817.089	26100
817.23	26111
817.371	25997
817.512	26107
817.653	25944
817.793	26027
817.934	25955
818.075	26149
818.216	26111
818.356	25963
818.497	25906
818.638	25826
818.778	25803
818.919	25856
819.06	25799
819.2	26058
819.341	26065
819.481	26069
819.622	26263
819.762	26370
819.903	26408
820.043	26248
820.184	26172
820.324	26263
820.465	26218
820.605	26229
820.746	26206
820.886	25986
821.026	26062
821.167	26031
821.307	26180
821.447	26001
821.588	25959
821.728	25936
821.868	25742
822.008	25491
822.149	25582
822.289	25472
822.429	25213
822.569	25156
822.709	25255
822.849	25034
822.99	24947
823.13	25050
823.27	24905
823.41	24791
823.55	24791
823.69	24928
823.83	24871
823.97	24905
824.11	24749
824.25	24505
824.389	24669
824.529	24688
824.669	24700
824.809	24722
824.949	24817
825.089	24753
825.228	24661
825.368	24525
825.508	24490
825.648	24475
825.787	24593
825.927	24593
826.067	24532
826.206	24486
826.346	24627
826.485	24574
826.625	24437
826.765	24597
826.904	24555
827.044	24361
827.183	24330
827.323	24323
827.462	24445
827.601	24140
827.741	24251
827.88	24369
828.02	24167
828.159	24213
828.298	24235
828.437	24330
828.577	24167
828.716	24403
828.855	24136
828.994	23950
829.134	23999
829.273	24007
829.412	23950
829.551	23958
829.69	23863
829.829	23931
829.968	24049
830.107	24087
830.246	23946
830.385	23893
830.524	23859
830.663	23824
830.802	23828
830.941	23642
831.08	23642
831.219	23748
831.357	23619
831.496	23767
831.635	23630
831.774	23608
831.913	23433
832.051	23429
832.19	23482
832.329	23322
832.467	23349
832.606	23402
832.744	23284
832.883	23322
833.022	23246
833.16	23261
833.299	23315
833.437	23246
833.576	23353
833.714	23421
833.852	23372
833.991	23288
834.129	23326
834.267	23345
834.406	23322
834.544	23501
834.682	23235
834.821	23379
834.959	23478
835.097	23296
835.235	23395
835.373	23322
835.511	23284
835.65	23098
835.788	23216
835.926	23147
836.064	22976
836.202	23003
836.34	23239
836.478	23162
836.615	23197
836.753	23223
836.891	23208
837.029	23204
837.167	23083
837.305	23025
837.443	23086
837.58	23022
837.718	23143
837.856	23064
837.993	22900
838.131	23064
838.269	22850
838.406	23041
838.544	22866
838.681	22664
838.819	22755
838.956	22470
839.094	22478
839.231	22588
839.369	22698
839.506	22809
839.643	22771
839.781	22531
839.918	22402
840.055	22554
840.193	22508
840.33	22428
840.467	22421
840.604	22588
840.742	22668
840.879	22379
841.016	22314
841.153	22306
841.29	22542
841.427	22447
841.564	22443
841.701	22481
841.838	22352
841.975	22428
842.112	22276
842.249	22333
842.385	22280
842.522	22432
842.659	22253
842.796	22090
842.933	22192
843.069	22097
843.206	22105
843.343	22185
843.479	22265
843.616	22158
843.752	21991
843.889	21964
844.025	22086
844.162	21949
844.298	22139
844.435	21945
844.571	21861
844.708	21930
844.844	22242
844.98	22093
845.117	21983
845.253	21964
845.389	21823
845.525	21895
845.661	21846
845.798	21660
845.934	21816
846.07	21667
846.206	21663
846.342	21751
846.478	21526
846.614	21511
846.75	21466
846.886	21424
847.022	21336
847.158	21576
847.294	21351
847.429	21458
847.565	21370
847.701	21629
847.837	21165
847.972	21135
848.108	21344
848.244	21249
848.379	21032
848.515	21047
848.65	20990
848.786	21032
848.921	21043
849.057	21218
849.192	21154
849.328	21192
849.463	21009
849.598	20918
849.734	20956
849.869	20845
850.004	20834
850.14	20834
850.275	20724
850.41	20823
850.545	20735
850.68	20796
850.815	20872
850.95	20804
851.085	20956
851.22	20842
851.355	20895
851.49	20785
851.625	20765
851.76	20895
851.895	20739
852.03	20674
852.165	20800
852.299	20811
852.434	20941
852.569	20849
852.703	20838
852.838	20830
852.973	20960
853.107	20956
853.242	20800
853.376	20689
853.511	20476
853.645	20545
853.78	20686
853.914	20598
854.048	20594
854.183	20590
854.317	20568
854.451	20864
854.585	20594
854.72	20629
854.854	20701
854.988	20621
855.122	20511
855.256	20606
855.39	20632
855.524	20670
855.658	20758
855.792	20682
855.926	20552
856.06	20686
856.194	20720
856.327	20594
856.461	20602
856.595	20701
856.729	20556
856.862	20693
856.996	20701
857.13	20735
857.263	20625
857.397	20613
857.53	20606
857.664	20720
857.797	20781
857.931	20769
858.064	20636
858.197	20804
858.331	20598
858.464	20507
858.597	20438
858.731	20655
858.864	20625
858.997	20461
859.13	20560
859.263	20594
859.396	20693
859.529	20625
859.662	20488
859.795	20590
859.928	20629
860.061	20857
860.194	20921
860.327	20648
860.46	20667
860.592	20765
860.725	20743
860.858	20735
860.99	20674
861.123	20499
861.256	20522
861.388	20621
861.521	21112
861.653	20705
861.786	20370
861.918	20393
862.05	20590
862.183	20499
862.315	20541
862.447	20678
862.58	20465
862.712	20294
862.844	20339
862.976	20389
863.108	20400
863.24	20701
863.372	20248
863.504	20370
863.636	20301
863.768	20358
863.9	20301
864.032	20199
864.164	20267
864.296	20320
864.428	20488
864.559	20324
864.691	20438
864.823	20282
864.954	20305
865.086	20282
865.217	20252
865.349	20206
865.48	20313
865.612	20214
865.743	20320
865.875	20275
866.006	20157
866.137	20328
866.269	20206
866.4	20237
866.531	20248
866.662	20278
866.793	20172
866.924	20168
867.055	20377
867.186	20237
867.317	20218
867.448	20278
867.579	20157
867.71	20050
867.841	20031
867.972	20164
868.103	20134
868.233	20176
868.364	20225
868.495	20408
868.625	20328
868.756	20530
868.886	20427
869.017	20389
869.147	20400
869.278	20556
869.408	20518
869.539	20442
869.669	20404
869.799	20454
869.929	20609
870.06	20530
870.19	20807
870.32	20705
870.45	20674
870.58	20872
870.71	20845
870.84	20891
870.97	20880
871.1	20887
871.23	20941
871.36	21009
871.489	20982
871.619	21028
871.749	21116
871.879	21055
872.008	21096
872.138	21051
872.267	21055
872.397	20948
872.526	20807
872.656	20773
872.785	20811
872.915	21005
873.044	21116
873.173	21070
873.303	21093
873.432	21074
873.561	21192
873.69	21119
873.819	21093
873.948	21036
874.077	21081
874.206	20998
874.335	21096
874.464	21203
874.593	21332
874.722	21104
874.851	21306
874.979	21355
875.108	21306
875.237	21260
875.365	21252
875.494	21260
875.623	21237
875.751	21207
875.88	21294
876.008	21382
876.136	21587
876.265	21633
876.393	21793
876.521	21705
876.65	21751
876.778	21793
876.906	21606
877.034	21633
877.162	21690
877.29	21595
877.418	21580
877.546	21759
877.674	21633
877.802	21679
877.93	21610
878.058	21625
878.185	21515
878.313	21682
878.441	21557
878.568	21447
878.696	21587
878.824	21652
878.951	21686
879.079	21854
879.206	21941
879.333	21717
879.461	21679
879.588	21819
879.715	21747
879.842	21945
879.97	21816
880.097	21511
880.224	21378
880.351	21408
880.478	21458
880.605	21462
880.732	21492
880.859	21724
880.986	21507
881.112	21428
881.239	21401
881.366	21173
881.493	21207
881.619	21028
881.746	21100
881.872	21047
881.999	21020
882.125	20963
882.252	21028
882.378	20979
882.505	21218
882.631	20811
882.757	20735
882.883	20876
883.01	20705
883.136	20655
883.262	20514
883.388	20598
883.514	20697
883.64	20792
883.766	20720
883.892	20609
884.018	20533
884.143	20670
884.269	20735
884.395	20457
884.52	20404
884.646	20415
884.772	20332
884.897	20347
885.023	20415
885.148	20461
885.274	20552
885.399	20434
885.524	20389
885.65	20351
885.775	20431
885.9	20374
886.025	20492
886.15	20419
886.275	20362
886.4	20259
886.525	20328
886.65	20404
886.775	20324
886.9	20370
887.025	20571
887.149	20332
887.274	20267
887.399	20199
887.523	20138
887.648	20183
887.773	20183
887.897	20343
888.021	20263
888.146	20077
888.27	20282
888.395	20221
888.519	20130
888.643	20149
888.767	20119
888.891	20046
889.015	19989
889.139	20210
889.263	20024
889.387	20103
889.511	20199
889.635	20096
889.759	19925
889.883	19909
890.006	20081
890.13	20119
890.254	19906
890.377	19909
890.501	19681
890.624	19696
890.748	19731
890.871	19544
890.995	19601
891.118	19548
891.241	19685
891.364	19651
891.488	19624
891.611	19609
891.734	19529
891.857	19681
891.98	19635
892.103	19575
892.226	19632
892.349	19548
892.471	19244
892.594	19460
892.717	19468
892.839	19438
892.962	19510
893.085	19594
893.207	19491
893.33	19369
893.452	19384
893.575	19529
893.697	19514
893.819	19594
893.941	19803
894.064	19544
894.186	19426
894.308	19445
894.43	19575
894.552	19757
894.674	19616
894.796	19308
894.918	19373
895.04	19483
895.161	19571
895.283	19540
895.405	19422
895.526	19563
895.648	19441
895.769	19506
895.891	19601
896.012	19533
896.134	19563
896.255	19571
896.376	19403
896.498	19464
896.619	19506
896.74	19487
896.861	19548
896.982	19784
897.103	19989
897.224	19757
897.345	19605
897.466	19704
897.587	19628
897.708	19830
897.828	19746
897.949	19677
898.07	19681
898.19	19658
898.311	19769
898.431	19696
898.552	19791
898.672	19769
898.792	19871
898.913	19780
899.033	19601
899.153	19620
899.273	19381
899.393	19438
899.513	19544
899.633	19460
899.753	19521
899.873	19434
899.993	19529
900.113	19400
900.232	19411
900.352	19369
900.472	19278
900.591	19255
900.711	19251
900.83	19259
900.95	19377
901.069	19525
901.189	19103
901.308	19034
901.427	18814
901.546	18989
901.665	18901
901.784	18909
901.904	18741
902.023	18719
902.141	18452
902.26	18410
902.379	18441
902.498	18407
902.617	18365
902.735	18509
902.854	18369
902.973	18262
903.091	18015
903.21	18125
903.328	18163
903.446	17996
903.565	17882
903.683	17897
903.801	17851
903.919	17771
904.038	17855
904.156	17729
904.274	17699
904.392	17649
904.51	17623
904.627	17680
904.745	17630
904.863	17726
904.981	17528
905.098	17349
905.216	17356
905.334	17410
905.451	17307
905.569	17254
905.686	17383
905.803	17318
905.921	17136
906.038	17136
906.155	17223
906.272	16892
906.389	16961
906.506	16896
906.623	16824
906.74	16847
906.857	16672
906.974	16767
907.091	16953
907.208	17033
907.324	16873
907.441	16774
907.557	16554
907.674	16622
907.79	16497
907.907	16584
908.023	16660
908.139	16546
908.256	16573
908.372	16470
908.488	16497
908.604	16379
908.72	16371
908.836	16337
908.952	16234
909.068	16409
909.184	16371
909.3	16242
909.415	16443
909.531	16177
909.647	16044
909.762	16040
909.878	15945
909.993	16055
910.108	15994
910.224	15972
910.339	15975
910.454	15968
910.57	15926
910.685	15778
910.8	16051
910.915	15888
911.03	15781
911.145	15732
911.259	15641
911.374	15572
911.489	15511
911.604	15542
911.718	15416
911.833	15458
911.947	15298
912.062	15233
912.176	15420
912.291	15443
912.405	15507
912.519	15595
912.633	15507
912.748	15389
912.862	15405
912.976	15241
913.09	15077
913.204	15150
913.318	15131
913.431	15226
913.545	15272
913.659	15252
913.772	15176
913.886	14963
914	14998
914.113	15127
914.226	15100
914.34	15116
914.453	14944
914.566	14921
914.68	14765
914.793	14921
914.906	14712
915.019	14583
915.132	14644
915.245	14701
915.358	14587
915.47	14621
915.583	14705
915.696	14625
915.809	14746
915.921	14712
916.034	14583
916.146	14564
916.259	14488
916.371	14625
916.483	14594
916.595	14450
916.708	14492
916.82	14518
916.932	14423
917.044	14427
917.156	14404
917.268	14248
917.38	14336
917.491	14199
917.603	14263
917.715	14415
917.826	14465
917.938	14221
918.049	14202
918.161	14176
918.272	14278
918.384	14320
918.495	14324
918.606	14123
918.717	13997
918.828	14092
918.939	14145
919.05	14005
919.161	13986
919.272	13795
919.383	13951
919.494	14073
919.604	14278
919.715	14027
919.826	13997
919.936	14092
920.047	14073
920.157	13974
920.267	14210
920.378	13951
920.488	13883
920.598	14214
920.708	14339
920.818	14145
920.928	14237
921.038	14294
921.148	14237
921.258	14027
921.368	13818
921.477	13841
921.587	13723
921.697	13670
921.806	13780
921.916	13601
922.025	13571
922.134	13422
922.244	13441
922.353	13518
922.462	13316
922.571	13198
922.68	13160
922.789	13061
922.898	13061
923.007	13019
923.116	13050
923.224	13069
923.333	13015
923.442	13008
923.55	12966
923.659	12932
923.767	12951
923.876	12882
923.984	12882
924.092	12798
924.201	12916
924.309	12738
924.417	12806
924.525	12726
924.633	12749
924.741	13731
924.849	12650
924.956	12566
925.064	12540
925.172	12361
925.279	12445
925.387	12574
925.494	12486
925.602	12612
925.709	12517
925.816	12486
925.924	12452
926.031	12521
926.138	12460
926.245	12544
926.352	12399
926.459	12509
926.566	12555
926.673	12422
926.779	12311
926.886	12209
926.993	12125
927.099	12201
927.206	12026
927.312	11969
927.419	12144
927.525	12095
927.631	12144
927.737	12015
927.843	11927
927.95	11961
928.056	11916
928.162	11935
928.267	12003
928.373	12448
928.479	11996
928.585	11684
928.69	11824
928.796	11874
928.901	11882
929.007	11619
929.112	11836
929.218	11737
929.323	11668
929.428	11642
929.533	11821
929.638	11562
929.743	11627
929.848	11649
929.953	11570
930.058	11554
930.163	11345
930.267	11330
930.372	11562
930.477	11364
930.581	11581
930.685	11425
930.79	11299
930.894	11269
930.998	11166
931.103	11345
931.207	10980
931.311	10961
931.415	10816
931.519	10721
931.623	10645
