Data from test_V78500241_865.txt Node
Date: Fri Mar 25 15:15:52 CST 2022
User: usil
Spectrometer: V785-0024
Trigger mode: 0
Integration Time (sec): 4.000000E-1
Scans to average: 1
Nonlinearity correction enabled: false
Boxcar width: 0
Storing dark spectrum: false
XAxis mode: Wavelengths
Number of Pixels in Spectrum: 1024
>>>>>Begin Spectral Data<<<<<
801.071	28261
801.214	28329
801.356	28029
801.499	27819
801.641	27842
801.783	27739
801.926	27899
802.068	27762
802.211	27755
802.353	27648
802.496	27561
802.638	27408
802.78	27458
802.923	27466
803.065	27344
803.208	27344
803.35	27462
803.492	27530
803.635	27728
803.777	27641
803.919	27648
804.061	27899
804.204	27682
804.346	27633
804.488	27492
804.63	27663
804.773	27458
804.915	27542
805.057	27759
805.199	27663
805.341	27675
805.483	27762
805.626	27728
805.768	27595
805.91	27648
806.052	27808
806.194	27717
806.336	27914
806.478	27819
806.62	27823
806.762	27937
806.904	27991
807.046	28268
807.188	28139
807.33	28147
807.472	28314
807.614	28150
807.756	28097
807.898	28025
808.04	28055
808.182	28051
808.324	28188
808.465	28093
808.607	28337
808.749	28481
808.891	28516
809.033	28641
809.174	28424
809.316	28493
809.458	28580
809.6	28561
809.741	28554
809.883	28656
810.025	28771
810.166	28736
810.308	28790
810.45	28675
810.591	28538
810.733	28459
810.875	28519
811.016	28398
811.158	28352
811.299	28516
811.441	28622
811.582	28538
811.724	28447
811.865	28333
812.007	28516
812.148	28299
812.29	28516
812.431	28618
812.573	28854
812.714	28850
812.855	28923
812.997	29117
813.138	29246
813.279	29155
813.421	29109
813.562	28927
813.703	28801
813.845	28687
813.986	28603
814.127	28443
814.268	28219
814.41	28287
814.551	28188
814.692	28223
814.833	28135
814.974	28261
815.115	28401
815.256	28006
815.397	28078
815.539	28257
815.68	27991
815.821	27907
815.962	28078
816.103	27945
816.244	27857
816.385	27762
816.526	27762
816.666	27625
816.807	27466
816.948	27485
817.089	27576
817.23	27511
817.371	27614
817.512	27488
817.653	27515
817.793	27458
817.934	27504
818.075	27633
818.216	27519
818.356	27545
818.497	27454
818.638	27279
818.778	27188
818.919	27386
819.06	27325
819.2	27355
819.341	27549
819.481	27576
819.622	27637
819.762	27819
819.903	27751
820.043	27595
820.184	27500
820.324	27545
820.465	27606
820.605	27755
820.746	27542
820.886	27572
821.026	27698
821.167	27526
821.307	27698
821.447	27519
821.588	27424
821.728	27405
821.868	27188
822.008	27104
822.149	26838
822.289	26925
822.429	26716
822.569	26625
822.709	26746
822.849	26644
822.99	26594
823.13	26408
823.27	26514
823.41	26385
823.55	26275
823.69	26400
823.83	26267
823.97	26351
824.11	26046
824.25	26084
824.389	26058
824.529	26286
824.669	26172
824.809	26267
824.949	26370
825.089	26122
825.228	26157
825.368	26058
825.508	25974
825.648	26050
825.787	26153
825.927	26149
826.067	26016
826.206	25986
826.346	26012
826.485	25963
826.625	25978
826.765	26031
826.904	26035
827.044	25742
827.183	25769
827.323	25643
827.462	25818
827.601	25826
827.741	25700
827.88	25696
828.02	25727
828.159	25635
828.298	25753
828.437	25776
828.577	25590
828.716	25936
828.855	25693
828.994	25369
829.134	25377
829.273	25597
829.412	25346
829.551	25430
829.69	25510
829.829	25533
829.968	25460
830.107	25449
830.246	25544
830.385	25419
830.524	25187
830.663	25244
830.802	25031
830.941	25141
831.08	25099
831.219	25095
831.357	25152
831.496	25263
831.635	25091
831.774	24989
831.913	24802
832.051	24935
832.19	24905
832.329	24844
832.467	24783
832.606	24741
832.744	24749
832.883	24814
833.022	24749
833.16	24776
833.299	24700
833.437	24829
833.576	24772
833.714	24829
833.852	24810
833.991	24871
834.129	24741
834.267	24985
834.406	24806
834.544	24840
834.682	24817
834.821	24859
834.959	25076
835.097	24654
835.235	24894
835.373	24654
835.511	24715
835.65	24753
835.788	24601
835.926	24399
836.064	24319
836.202	24353
836.34	24574
836.478	24608
836.615	24395
836.753	24601
836.891	24627
837.029	24566
837.167	24589
837.305	24604
837.443	24525
837.58	24566
837.718	24532
837.856	24574
837.993	24471
838.131	24483
838.269	24452
838.406	24243
838.544	24190
838.681	24053
838.819	23901
838.956	23851
839.094	23885
839.231	24030
839.369	24053
839.506	24300
839.643	24159
839.781	23874
839.918	23874
840.055	24064
840.193	23855
840.33	23695
840.467	23771
840.604	23893
840.742	24102
840.879	23684
841.016	23680
841.153	23904
841.29	23977
841.427	23809
841.564	23828
841.701	23733
841.838	23608
841.975	23680
842.112	23714
842.249	23570
842.385	23471
842.522	23863
842.659	23551
842.796	23501
842.933	23497
843.069	23600
843.206	23471
843.343	23600
843.479	23490
843.616	23611
843.752	23318
843.889	23223
844.025	23474
844.162	23204
844.298	23402
844.435	23330
844.571	23296
844.708	23356
844.844	23490
844.98	23558
845.117	23459
845.253	23337
845.389	23204
845.525	23235
845.661	23128
845.798	22976
845.934	23166
846.07	23098
846.206	23090
846.342	23044
846.478	23056
846.614	22892
846.75	22660
846.886	22862
847.022	22934
847.158	22828
847.294	22717
847.429	22934
847.565	22828
847.701	22961
847.837	22535
847.972	22527
848.108	22782
848.244	22618
848.379	22546
848.515	22352
848.65	22421
848.786	22276
848.921	22291
849.057	22390
849.192	22394
849.328	22421
849.463	22447
849.598	22379
849.734	22276
849.869	22356
850.004	22150
850.14	22268
850.275	22166
850.41	22074
850.545	22185
850.68	21987
850.815	22265
850.95	22200
851.085	22318
851.22	22150
851.355	22207
851.49	22158
851.625	22154
851.76	22147
851.895	22078
852.03	22120
852.165	22185
852.299	22219
852.434	22185
852.569	22344
852.703	22101
852.838	22101
852.973	22272
853.107	22322
853.242	22067
853.376	21865
853.511	21903
853.645	21968
853.78	22120
853.914	21941
854.048	22013
854.183	21880
854.317	22097
854.451	22070
854.585	22013
854.72	21972
854.854	22006
854.988	21949
855.122	22013
855.256	21679
855.39	21857
855.524	21991
855.658	22025
855.792	21945
855.926	22017
856.06	22101
856.194	21949
856.327	21945
856.461	21930
856.595	21899
856.729	22029
856.862	22006
856.996	22006
857.13	22002
857.263	22090
857.397	22002
857.53	21983
857.664	21991
857.797	21968
857.931	22169
858.064	22010
858.197	22070
858.331	21987
858.464	21975
858.597	21899
858.731	21945
858.864	21956
858.997	21869
859.13	21979
859.263	21934
859.396	22173
859.529	21956
859.662	21956
859.795	21903
859.928	22032
860.061	22166
860.194	22192
860.327	21975
860.46	21892
860.592	22192
860.725	22021
860.858	22074
860.99	21964
861.123	22010
861.256	21930
861.388	22044
861.521	22843
861.653	21819
861.786	21880
861.918	21812
862.05	21975
862.183	21937
862.315	21968
862.447	21949
862.58	21884
862.712	21610
862.844	21637
862.976	21762
863.108	21656
863.24	21998
863.372	21481
863.504	21633
863.636	21797
863.768	21637
863.9	21614
864.032	21637
864.164	21614
864.296	21732
864.428	21797
864.559	21644
864.691	21778
864.823	21751
864.954	21660
865.086	21618
865.217	21549
865.349	21504
865.48	21610
865.612	21587
865.743	21561
865.875	21572
866.006	21625
866.137	21599
866.269	21587
866.4	21660
866.531	21496
866.662	21553
866.793	21378
866.924	21393
867.055	21481
867.186	21545
867.317	21485
867.448	21374
867.579	21420
867.71	21443
867.841	21439
867.972	21599
868.103	21420
868.233	21405
868.364	21530
868.495	21530
868.625	21713
868.756	21759
868.886	21713
869.017	21781
869.147	21831
869.278	21857
869.408	21835
869.539	21736
869.669	21831
869.799	21918
869.929	21854
870.06	21861
870.19	21945
870.32	21907
870.45	21987
870.58	22219
870.71	22211
870.84	22230
870.97	22112
871.1	22112
871.23	22226
871.36	22455
871.489	22219
871.619	22322
871.749	22386
871.879	22295
872.008	22481
872.138	22360
872.267	22318
872.397	22192
872.526	22128
872.656	22173
872.785	22162
872.915	22352
873.044	22310
873.173	22268
873.303	22325
873.432	22314
873.561	22462
873.69	22363
873.819	22291
873.948	22493
874.077	22417
874.206	22314
874.335	22276
874.464	22432
874.593	22519
874.722	22432
874.851	22649
874.979	22573
875.108	22615
875.237	22630
875.365	22371
875.494	22424
875.623	22744
875.751	22527
875.88	22527
876.008	22717
876.136	22778
876.265	22972
876.393	23090
876.521	22987
876.65	23098
876.778	23048
876.906	22835
877.034	22782
877.162	23014
877.29	22793
877.418	22984
877.546	22831
877.674	22923
877.802	22889
877.93	22938
878.058	22873
878.185	22736
878.313	22805
878.441	22889
878.568	22850
878.696	22778
878.824	22942
878.951	22919
879.079	23018
879.206	23220
879.333	23136
879.461	22946
879.588	23071
879.715	23174
879.842	23174
879.97	22991
880.097	22805
880.224	22607
880.351	22649
880.478	22752
880.605	22717
880.732	22713
880.859	23006
880.986	22812
881.112	22767
881.239	22519
881.366	22493
881.493	22405
881.619	22329
881.746	22268
881.872	22363
881.999	22192
882.125	22223
882.252	22192
882.378	22261
882.505	22428
882.631	22177
882.757	21979
882.883	22109
883.01	21934
883.136	21960
883.262	21884
883.388	21804
883.514	21998
883.64	21975
883.766	21838
883.892	21690
884.018	21759
884.143	21808
884.269	21979
884.395	21751
884.52	21477
884.646	21603
884.772	21549
884.897	21481
885.023	21564
885.148	21759
885.274	21747
885.399	21747
885.524	21614
885.65	21572
885.775	21595
885.9	21644
886.025	21766
886.15	21766
886.275	21443
886.4	21538
886.525	21481
886.65	21663
886.775	21469
886.9	21614
887.025	21732
887.149	21545
887.274	21405
887.399	21367
887.523	21435
887.648	21306
887.773	21203
887.897	21511
888.021	21370
888.146	21332
888.27	21439
888.395	21450
888.519	21264
888.643	21405
888.767	21428
888.891	21272
889.015	21199
889.139	21222
889.263	21207
889.387	21332
889.511	21344
889.635	21351
889.759	21180
889.883	21112
890.006	21123
890.13	21150
890.254	21051
890.377	21005
890.501	20929
890.624	20845
890.748	21036
890.871	20891
890.995	20621
891.118	20686
891.241	20857
891.364	20838
891.488	20876
891.611	20693
891.734	20796
891.857	20830
891.98	20674
892.103	20765
892.226	20754
892.349	20609
892.471	20530
892.594	20674
892.717	20632
892.839	20701
892.962	20640
893.085	20705
893.207	20526
893.33	20613
893.452	20522
893.575	20765
893.697	20549
893.819	20838
893.941	20815
894.064	20758
894.186	20473
894.308	20492
894.43	20590
894.552	20864
894.674	20758
894.796	20678
894.918	20678
895.04	20564
895.161	20655
895.283	20663
895.405	20537
895.526	20560
895.648	20526
895.769	20499
895.891	20549
896.012	20678
896.134	20697
896.255	20571
896.376	20533
896.498	20514
896.619	20640
896.74	20655
896.861	20746
896.982	20876
897.103	21001
897.224	20944
897.345	20861
897.466	20800
897.587	20739
897.708	20910
897.828	20937
897.949	20705
898.07	20667
898.19	20720
898.311	20899
898.431	20743
898.552	20807
898.672	20880
898.792	20914
898.913	20830
899.033	20640
899.153	20682
899.273	20568
899.393	20495
899.513	20625
899.633	20484
899.753	20446
899.873	20503
899.993	20571
900.113	20564
900.232	20549
900.352	20377
900.472	20385
900.591	20343
900.711	20389
900.83	20221
900.95	20423
901.069	20393
901.189	20126
901.308	20084
901.427	19928
901.546	19837
901.665	19932
901.784	19925
901.904	19799
902.023	19681
902.141	19499
902.26	19468
902.379	19529
902.498	19430
902.617	19422
902.735	19392
902.854	19384
902.973	19179
903.091	19145
903.21	19080
903.328	19038
903.446	18928
903.565	18973
903.683	18932
903.801	18837
903.919	18783
904.038	18859
904.156	18665
904.274	18719
904.392	18601
904.51	18661
904.627	18639
904.745	18665
904.863	18677
904.981	18479
905.098	18372
905.216	18342
905.334	18403
905.451	18342
905.569	18338
905.686	18350
905.803	18228
905.921	18041
906.038	18239
906.155	18190
906.272	18007
906.389	18060
906.506	17866
906.623	17946
906.74	17847
906.857	17813
906.974	17851
907.091	17916
907.208	17999
907.324	17863
907.441	17710
907.557	17657
907.674	17680
907.79	17425
907.907	17512
908.023	17532
908.139	17520
908.256	17505
908.372	17459
908.488	17440
908.604	17299
908.72	17060
908.836	17353
908.952	17273
909.068	17277
909.184	17341
909.3	17242
909.415	17288
909.531	17265
909.647	16972
909.762	16930
909.878	16881
909.993	16972
910.108	16957
910.224	16938
910.339	16987
910.454	16877
910.57	16843
910.685	16675
910.8	16961
910.915	16946
911.03	16675
911.145	16611
911.259	16618
911.374	16618
911.489	16481
911.604	16451
911.718	16253
911.833	16265
911.947	16192
912.062	16181
912.176	16238
912.291	16306
912.405	16223
912.519	16542
912.633	16508
912.748	16276
912.862	16207
912.976	16109
913.09	16063
913.204	16139
913.318	16078
913.431	16257
913.545	16204
913.659	16196
913.772	16082
913.886	15907
914	15937
914.113	15937
914.226	15994
914.34	15953
914.453	15816
914.566	15926
914.68	15698
914.793	15785
914.906	15606
915.019	15603
915.132	15568
915.245	15473
915.358	15542
915.47	15485
915.583	15450
915.696	15568
915.809	15568
915.921	15679
916.034	15424
916.146	15405
916.259	15359
916.371	15454
916.483	15389
916.595	15260
916.708	15237
916.82	15351
916.932	15256
917.044	15313
917.156	15222
917.268	15074
917.38	15188
917.491	15051
917.603	15188
917.715	15222
917.826	15203
917.938	15108
918.049	14925
918.161	15131
918.272	15199
918.384	15157
918.495	15142
918.606	14895
918.717	14880
918.828	14960
918.939	14823
919.05	14792
919.161	14743
919.272	14636
919.383	14712
919.494	14906
919.604	15024
919.715	14883
919.826	14811
919.936	14891
920.047	14971
920.157	14910
920.267	14952
920.378	14785
920.488	14823
920.598	14979
920.708	15131
920.818	14933
920.928	14956
921.038	15211
921.148	15039
921.258	14807
921.368	14640
921.477	14651
921.587	14590
921.697	14465
921.806	14583
921.916	14404
922.025	14267
922.134	14282
922.244	14130
922.353	14187
922.462	14073
922.571	14107
922.68	13917
922.789	13811
922.898	13940
923.007	13791
923.116	13837
923.224	13898
923.333	13818
923.442	13727
923.55	13662
923.659	13613
923.767	13772
923.876	13651
923.984	13613
924.092	13594
924.201	13590
924.309	13548
924.417	13590
924.525	13510
924.633	13590
924.741	14385
924.849	13411
924.956	13419
925.064	13289
925.172	13225
925.279	13221
925.387	13270
925.494	13263
925.602	13304
925.709	13270
925.816	13149
925.924	13152
926.031	13266
926.138	13228
926.245	13164
926.352	13050
926.459	13289
926.566	13263
926.673	12989
926.779	12996
926.886	12996
926.993	12791
927.099	12852
927.206	12779
927.312	12681
927.419	12833
927.525	12863
927.631	12875
927.737	12707
927.843	12650
927.95	12517
928.056	12544
928.162	12623
928.267	12688
928.373	13145
928.479	12620
928.585	12350
928.69	12639
928.796	12601
928.901	12407
929.007	12304
929.112	12433
929.218	12395
929.323	12319
929.428	12315
929.533	12525
929.638	12243
929.743	12285
929.848	12369
929.953	12266
930.058	12159
930.163	11996
930.267	12019
930.372	12133
930.477	11980
930.581	12144
930.685	12095
930.79	11958
930.894	11973
930.998	11870
931.103	12045
931.207	11630
931.311	11532
931.415	11509
931.519	11322
931.623	11246
