Data from test_V78500241_3575.txt Node
Date: Fri Mar 25 15:34:45 CST 2022
User: usil
Spectrometer: V785-0024
Trigger mode: 0
Integration Time (sec): 4.000000E-1
Scans to average: 1
Nonlinearity correction enabled: false
Boxcar width: 0
Storing dark spectrum: false
XAxis mode: Wavelengths
Number of Pixels in Spectrum: 1024
>>>>>Begin Spectral Data<<<<<
801.071	27458
801.214	27348
801.356	27226
801.499	27161
801.641	26979
801.783	26876
801.926	26804
802.068	26967
802.211	26895
802.353	26750
802.496	26629
802.638	26648
802.78	26564
802.923	26442
803.065	26427
803.208	26415
803.35	26461
803.492	26739
803.635	26697
803.777	26651
803.919	26670
804.061	26998
804.204	26682
804.346	26735
804.488	26636
804.63	26716
804.773	26545
804.915	26617
805.057	26811
805.199	26602
805.341	26815
805.483	26819
805.626	26731
805.768	26765
805.91	26804
806.052	26689
806.194	26853
806.336	26853
806.478	26838
806.62	26754
806.762	26765
806.904	26960
807.046	27252
807.188	27096
807.33	27192
807.472	27230
807.614	27146
807.756	27173
807.898	27013
808.04	27028
808.182	26902
808.324	26990
808.465	26963
808.607	27218
808.749	27397
808.891	27583
809.033	27481
809.174	27435
809.316	27363
809.458	27298
809.6	27321
809.741	27355
809.883	27610
810.025	27610
810.166	27667
810.308	27652
810.45	27576
810.591	27583
810.733	27408
810.875	27363
811.016	27348
811.158	27344
811.299	27408
811.441	27637
811.582	27641
811.724	27363
811.865	27348
812.007	27401
812.148	27439
812.29	27408
812.431	27462
812.573	27713
812.714	27720
812.855	27842
812.997	27876
813.138	28124
813.279	28036
813.421	27960
813.562	27831
813.703	27797
813.845	27530
813.986	27260
814.127	27184
814.268	27146
814.41	27055
814.551	27074
814.692	27119
814.833	27032
814.974	26975
815.115	27036
815.256	26914
815.397	27036
815.539	26960
815.68	26899
815.821	26621
815.962	26765
816.103	26838
816.244	26773
816.385	26613
816.526	26625
816.666	26480
816.807	26339
816.948	26336
817.089	26549
817.23	26248
817.371	26336
817.512	26259
817.653	26282
817.793	26142
817.934	26320
818.075	26259
818.216	26320
818.356	26267
818.497	26233
818.638	26058
818.778	25982
818.919	26084
819.06	26088
819.2	26328
819.341	26252
819.481	26225
819.622	26362
819.762	26674
819.903	26518
820.043	26476
820.184	26355
820.324	26377
820.465	26469
820.605	26518
820.746	26298
820.886	26214
821.026	26385
821.167	26393
821.307	26499
821.447	26389
821.588	26172
821.728	26244
821.868	25970
822.008	25894
822.149	25723
822.289	25875
822.429	25438
822.569	25464
822.709	25548
822.849	25377
822.99	25362
823.13	25247
823.27	25282
823.41	25110
823.55	25156
823.69	25156
823.83	25148
823.97	24989
824.11	24890
824.25	24871
824.389	24825
824.529	24932
824.669	25038
824.809	25091
824.949	25069
825.089	25034
825.228	24985
825.368	24814
825.508	24722
825.648	24901
825.787	24844
825.927	24867
826.067	24863
826.206	24829
826.346	24886
826.485	24909
826.625	24890
826.765	24966
826.904	24856
827.044	24703
827.183	24665
827.323	24540
827.462	24563
827.601	24517
827.741	24388
827.88	24616
828.02	24342
828.159	24555
828.298	24391
828.437	24536
828.577	24460
828.716	24627
828.855	24395
828.994	24117
829.134	24323
829.273	24323
829.412	24026
829.551	24129
829.69	24083
829.829	24323
829.968	24277
830.107	24357
830.246	24224
830.385	24152
830.524	24152
830.663	24015
830.802	23988
830.941	23863
831.08	23832
831.219	23908
831.357	23904
831.496	24163
831.635	23832
831.774	23851
831.913	23691
832.051	23615
832.19	23676
832.329	23668
832.467	23478
832.606	23395
832.744	23448
832.883	23524
833.022	23539
833.16	23623
833.299	23505
833.437	23687
833.576	23566
833.714	23524
833.852	23653
833.991	23478
834.129	23714
834.267	23684
834.406	23638
834.544	23665
834.682	23627
834.821	23585
834.959	23809
835.097	23417
835.235	23661
835.373	23611
835.511	23589
835.65	23417
835.788	23509
835.926	23303
836.064	23292
836.202	23261
836.34	23467
836.478	23551
836.615	23444
836.753	23535
836.891	23524
837.029	23505
837.167	23368
837.305	23433
837.443	23242
837.58	23311
837.718	23364
837.856	23193
837.993	23364
838.131	23334
838.269	23242
838.406	23330
838.544	23117
838.681	22889
838.819	22904
838.956	22786
839.094	22713
839.231	22782
839.369	22972
839.506	23140
839.643	23083
839.781	22797
839.918	22721
840.055	22778
840.193	22653
840.33	22691
840.467	22691
840.604	22706
840.742	22847
840.879	22618
841.016	22596
841.153	22584
841.29	22854
841.427	22839
841.564	22717
841.701	22656
841.838	22706
841.975	22725
842.112	22706
842.249	22656
842.385	22352
842.522	22672
842.659	22573
842.796	22474
842.933	22421
843.069	22394
843.206	22424
843.343	22538
843.479	22626
843.616	22500
843.752	22280
843.889	22185
844.025	22363
844.162	22268
844.298	22337
844.435	22253
844.571	22249
844.708	22375
844.844	22470
844.98	22386
845.117	22447
845.253	22204
845.389	22025
845.525	22226
845.661	22166
845.798	21983
845.934	21968
846.07	21865
846.206	22112
846.342	22070
846.478	22048
846.614	21774
846.75	21629
846.886	21717
847.022	21812
847.158	21751
847.294	21709
847.429	21762
847.565	21614
847.701	21941
847.837	21481
847.972	21431
848.108	21481
848.244	21568
848.379	21302
848.515	21203
848.65	21332
848.786	21405
848.921	21237
849.057	21374
849.192	21363
849.328	21310
849.463	21389
849.598	21329
849.734	21268
849.869	21195
850.004	21100
850.14	21161
850.275	21203
850.41	20933
850.545	21058
850.68	21081
850.815	21112
850.95	21176
851.085	21287
851.22	21180
851.355	21051
851.49	21020
851.625	21085
851.76	21036
851.895	21009
852.03	20990
852.165	21093
852.299	21131
852.434	21256
852.569	21188
852.703	21112
852.838	21043
852.973	21176
853.107	21150
853.242	21051
853.376	20929
853.511	20758
853.645	20796
853.78	21058
853.914	20872
854.048	20864
854.183	20842
854.317	20910
854.451	21047
854.585	20933
854.72	20925
854.854	21036
854.988	20918
855.122	20914
855.256	20758
855.39	20925
855.524	20948
855.658	20921
855.792	21017
855.926	20880
856.06	20887
856.194	21169
856.327	20868
856.461	20906
856.595	20834
856.729	20902
856.862	20891
856.996	20956
857.13	20887
857.263	21013
857.397	21051
857.53	20838
857.664	20902
857.797	21051
857.931	20948
858.064	20899
858.197	20975
858.331	20925
858.464	20891
858.597	20792
858.731	20864
858.864	20826
858.997	20868
859.13	20933
859.263	20811
859.396	20967
859.529	20765
859.662	20861
859.795	20880
859.928	20998
860.061	21005
860.194	21165
860.327	20960
860.46	20902
860.592	20963
860.725	21081
860.858	20994
860.99	20906
861.123	20735
861.256	20834
861.388	20895
861.521	21736
861.653	20845
861.786	20777
861.918	20823
862.05	20777
862.183	20804
862.315	20868
862.447	20967
862.58	20781
862.712	20689
862.844	20583
862.976	20724
863.108	20705
863.24	20891
863.372	20568
863.504	20613
863.636	20632
863.768	20754
863.9	20644
864.032	20545
864.164	20556
864.296	20625
864.428	20689
864.559	20750
864.691	20792
864.823	20644
864.954	20587
865.086	20530
865.217	20473
865.349	20492
865.48	20431
865.612	20503
865.743	20659
865.875	20556
866.006	20598
866.137	20473
866.269	20560
866.4	20385
866.531	20438
866.662	20492
866.793	20434
866.924	20476
867.055	20492
867.186	20476
867.317	20473
867.448	20450
867.579	20355
867.71	20400
867.841	20412
867.972	20370
868.103	20533
868.233	20549
868.364	20423
868.495	20560
868.625	20758
868.756	20712
868.886	20594
869.017	20697
869.147	20872
869.278	20872
869.408	20670
869.539	20682
869.669	20845
869.799	20777
869.929	20895
870.06	20868
870.19	21001
870.32	21104
870.45	20990
870.58	21051
870.71	21237
870.84	21195
870.97	21116
871.1	21104
871.23	21348
871.36	21272
871.489	21207
871.619	21241
871.749	21252
871.879	21294
872.008	21420
872.138	21329
872.267	21348
872.397	21184
872.526	21211
872.656	21154
872.785	20998
872.915	21256
873.044	21378
873.173	21329
873.303	21367
873.432	21439
873.561	21481
873.69	21386
873.819	21233
873.948	21485
874.077	21321
874.206	21188
874.335	21397
874.464	21481
874.593	21682
874.722	21587
874.851	21557
874.979	21656
875.108	21641
875.237	21454
875.365	21481
875.494	21534
875.623	21599
875.751	21370
875.88	21622
876.008	21656
876.136	21770
876.265	22002
876.393	22128
876.521	21994
876.65	22055
876.778	21930
876.906	21873
877.034	21949
877.162	22010
877.29	21915
877.418	21956
877.546	21926
877.674	21930
877.802	21937
877.93	21888
878.058	21755
878.185	21808
878.313	21789
878.441	21918
878.568	21732
878.696	21903
878.824	22021
878.951	21922
879.079	21998
879.206	22215
879.333	22097
879.461	21934
879.588	22032
879.715	22128
879.842	22287
879.97	21937
880.097	21854
880.224	21747
880.351	21915
880.478	21770
880.605	21717
880.732	21911
880.859	21983
880.986	21698
881.112	21842
881.239	21637
881.366	21530
881.493	21397
881.619	21332
881.746	21321
881.872	21325
881.999	21199
882.125	21256
882.252	21351
882.378	21401
882.505	21466
882.631	21165
882.757	21203
882.883	21203
883.01	21070
883.136	21062
883.262	20948
883.388	20864
883.514	20918
883.64	21135
883.766	20982
883.892	20868
884.018	20830
884.143	20979
884.269	20986
884.395	20792
884.52	20746
884.646	20682
884.772	20590
884.897	20579
885.023	20720
885.148	20716
885.274	20906
885.399	20762
885.524	20651
885.65	20655
885.775	20667
885.9	20568
886.025	20842
886.15	20838
886.275	20587
886.4	20682
886.525	20598
886.65	20682
886.775	20640
886.9	20632
887.025	20883
887.149	20689
887.274	20469
887.399	20423
887.523	20484
887.648	20355
887.773	20393
887.897	20480
888.021	20537
888.146	20438
888.27	20511
888.395	20545
888.519	20560
888.643	20511
888.767	20492
888.891	20313
889.015	20252
889.139	20298
889.263	20206
889.387	20412
889.511	20446
889.635	20377
889.759	20259
889.883	20221
890.006	20290
890.13	20290
890.254	20191
890.377	20263
890.501	20027
890.624	19928
890.748	20050
890.871	19909
890.995	19856
891.118	19772
891.241	19909
891.364	19871
891.488	20008
891.611	19757
891.734	19913
891.857	19928
891.98	19860
892.103	19830
892.226	19883
892.349	19784
892.471	19658
892.594	19791
892.717	19738
892.839	19597
892.962	19818
893.085	19776
893.207	19734
893.33	19616
893.452	19670
893.575	19776
893.697	19727
893.819	19890
893.941	19898
894.064	19818
894.186	19613
894.308	19559
894.43	19890
894.552	19974
894.674	19757
894.796	19643
894.918	19761
895.04	19852
895.161	19799
895.283	19704
895.405	19613
895.526	19635
895.648	19685
895.769	19700
895.891	19753
896.012	19811
896.134	19765
896.255	19723
896.376	19658
896.498	19814
896.619	19776
896.74	19795
896.861	19780
896.982	20142
897.103	20191
897.224	19993
897.345	19894
897.466	19955
897.587	19951
897.708	20149
897.828	20062
897.949	19951
898.07	19811
898.19	19879
898.311	20035
898.431	19974
898.552	20069
898.672	20027
898.792	20050
898.913	20065
899.033	19887
899.153	19780
899.273	19723
899.393	19864
899.513	19681
899.633	19780
899.753	19712
899.873	19681
899.993	19700
900.113	19712
900.232	19651
900.352	19681
900.472	19590
900.591	19453
900.711	19559
900.83	19525
900.95	19521
901.069	19525
901.189	19381
901.308	19091
901.427	18985
901.546	19069
901.665	19110
901.784	19126
901.904	18924
902.023	18916
902.141	18601
902.26	18688
902.379	18661
902.498	18612
902.617	18589
902.735	18681
902.854	18623
902.973	18498
903.091	18243
903.21	18270
903.328	18308
903.446	18247
903.565	18144
903.683	18087
903.801	17996
903.919	18083
904.038	17863
904.156	17847
904.274	17999
904.392	17927
904.51	17756
904.627	17851
904.745	17942
904.863	17904
904.981	17608
905.098	17638
905.216	17638
905.334	17577
905.451	17577
905.569	17535
905.686	17566
905.803	17623
905.921	17383
906.038	17402
906.155	17368
906.272	17246
906.389	17242
906.506	17151
906.623	17147
906.74	17018
906.857	17060
906.974	17025
907.091	17216
907.208	17147
907.324	17022
907.441	16984
907.557	16885
907.674	16793
907.79	16733
907.907	16755
908.023	16869
908.139	16866
908.256	16755
908.372	16744
908.488	16782
908.604	16554
908.72	16508
908.836	16447
908.952	16516
909.068	16485
909.184	16687
909.3	16512
909.415	16500
909.531	16527
909.647	16322
909.762	16352
909.878	16192
909.993	16265
910.108	16223
910.224	16154
910.339	16124
910.454	16025
910.57	15964
910.685	16002
910.8	16322
910.915	16109
911.03	16040
911.145	15846
911.259	15823
911.374	15812
911.489	15774
911.604	15686
911.718	15591
911.833	15641
911.947	15564
912.062	15424
912.176	15614
912.291	15568
912.405	15534
912.519	15732
912.633	15819
912.748	15690
912.862	15568
912.976	15424
913.09	15374
913.204	15428
913.318	15408
913.431	15523
913.545	15507
913.659	15523
913.772	15348
913.886	15283
914	15165
914.113	15275
914.226	15214
914.34	15245
914.453	14986
914.566	15245
914.68	15112
914.793	15070
914.906	14910
915.019	14887
915.132	14785
915.245	14838
915.358	14796
915.47	14842
915.583	14880
915.696	14864
915.809	14857
915.921	14986
916.034	14804
916.146	14762
916.259	14731
916.371	14849
916.483	14697
916.595	14655
916.708	14617
916.82	14655
916.932	14659
917.044	14610
917.156	14587
917.268	14514
917.38	14552
917.491	14469
917.603	14446
917.715	14469
917.826	14610
917.938	14393
918.049	14370
918.161	14476
918.272	14598
918.384	14514
918.495	14442
918.606	14328
918.717	14267
918.828	14320
918.939	14286
919.05	14168
919.161	14233
919.272	13993
919.383	14073
919.494	14324
919.604	14442
919.715	14229
919.826	14153
919.936	14172
920.047	14233
920.157	14275
920.267	14438
920.378	14282
920.488	14153
920.598	14320
920.708	14461
920.818	14366
920.928	14336
921.038	14564
921.148	14415
921.258	14115
921.368	14043
921.477	14103
921.587	13951
921.697	13753
921.806	13932
921.916	13826
922.025	13685
922.134	13586
922.244	13540
922.353	13719
922.462	13457
922.571	13438
922.68	13358
922.789	13206
922.898	13403
923.007	13198
923.116	13320
923.224	13343
923.333	13236
923.442	13053
923.55	13088
923.659	13137
923.767	13156
923.876	12989
923.984	13187
924.092	13046
924.201	13091
924.309	13019
924.417	13008
924.525	12977
924.633	12901
924.741	13921
924.849	12779
924.956	12916
925.064	12764
925.172	12646
925.279	12673
925.387	12722
925.494	12696
925.602	12791
925.709	12760
925.816	12597
925.924	12684
926.031	12787
926.138	12608
926.245	12623
926.352	12502
926.459	12559
926.566	12730
926.673	12585
926.779	12498
926.886	12448
926.993	12327
927.099	12296
927.206	12140
927.312	12258
927.419	12330
927.525	12353
927.631	12262
927.737	12194
927.843	12098
927.95	12053
928.056	12106
928.162	12114
928.267	12178
928.373	12639
928.479	12159
928.585	12007
928.69	12041
928.796	12038
928.901	11935
929.007	11855
929.112	11893
929.218	11901
929.323	11866
929.428	11832
929.533	11958
929.638	11722
929.743	11790
929.848	11840
929.953	11863
930.058	11646
930.163	11501
930.267	11528
930.372	11630
930.477	11478
930.581	11699
930.685	11520
930.79	11387
930.894	11493
930.998	11402
931.103	11505
931.207	11178
931.311	11048
931.415	11041
931.519	10835
931.623	10835
