Data from test_V78500241_1041.txt Node
Date: Fri Mar 25 15:17:06 CST 2022
User: usil
Spectrometer: V785-0024
Trigger mode: 0
Integration Time (sec): 4.000000E-1
Scans to average: 1
Nonlinearity correction enabled: false
Boxcar width: 0
Storing dark spectrum: false
XAxis mode: Wavelengths
Number of Pixels in Spectrum: 1024
>>>>>Begin Spectral Data<<<<<
801.071	28249
801.214	28192
801.356	28093
801.499	27911
801.641	27774
801.783	27903
801.926	28032
802.068	27804
802.211	27823
802.353	27808
802.496	27515
802.638	27481
802.78	27610
802.923	27534
803.065	27427
803.208	27485
803.35	27549
803.492	27667
803.635	27751
803.777	27576
803.919	27591
804.061	27949
804.204	27899
804.346	27701
804.488	27648
804.63	27755
804.773	27542
804.915	27762
805.057	27964
805.199	27720
805.341	27857
805.483	27968
805.626	27797
805.768	27857
805.91	27808
806.052	27880
806.194	27800
806.336	28013
806.478	27918
806.62	27857
806.762	28051
806.904	28219
807.046	28272
807.188	28310
807.33	28234
807.472	28440
807.614	28303
807.756	28257
807.898	28124
808.04	28192
808.182	28196
808.324	28162
808.465	28169
808.607	28386
808.749	28641
808.891	28588
809.033	28713
809.174	28497
809.316	28428
809.458	28630
809.6	28451
809.741	28694
809.883	28725
810.025	28782
810.166	28854
810.308	28885
810.45	28733
810.591	28672
810.733	28763
810.875	28607
811.016	28504
811.158	28382
811.299	28748
811.441	28729
811.582	28759
811.724	28485
811.865	28535
812.007	28577
812.148	28474
812.29	28516
812.431	28797
812.573	28927
812.714	28968
812.855	29208
812.997	29273
813.138	29315
813.279	29189
813.421	29067
813.562	29014
813.703	28934
813.845	28862
813.986	28504
814.127	28432
814.268	28287
814.41	28421
814.551	28207
814.692	28523
814.833	28291
814.974	28238
815.115	28207
815.256	28188
815.397	28211
815.539	28200
815.68	28150
815.821	27987
815.962	28109
816.103	28147
816.244	28143
816.385	27945
816.526	27831
816.666	27713
816.807	27572
816.948	27641
817.089	27770
817.23	27629
817.371	27526
817.512	27603
817.653	27660
817.793	27549
817.934	27622
818.075	27599
818.216	27523
818.356	27603
818.497	27447
818.638	27367
818.778	27325
818.919	27367
819.06	27450
819.2	27572
819.341	27595
819.481	27610
819.622	27759
819.762	27998
819.903	27835
820.043	27751
820.184	27705
820.324	27724
820.465	27701
820.605	27709
820.746	27804
820.886	27583
821.026	27595
821.167	27713
821.307	27770
821.447	27511
821.588	27370
821.728	27447
821.868	27165
822.008	27036
822.149	27135
822.289	27058
822.429	26861
822.569	26842
822.709	26765
822.849	26495
822.99	26648
823.13	26636
823.27	26571
823.41	26587
823.55	26301
823.69	26495
823.83	26476
823.97	26351
824.11	26244
824.25	26252
824.389	26191
824.529	26385
824.669	26259
824.809	26434
824.949	26400
825.089	26457
825.228	26343
825.368	26187
825.508	26180
825.648	26073
825.787	26046
825.927	26248
826.067	26210
826.206	26195
826.346	26202
826.485	26161
826.625	26054
826.765	26016
826.904	26233
827.044	25887
827.183	25936
827.323	25925
827.462	25966
827.601	25860
827.741	25795
827.88	25913
828.02	25723
828.159	25837
828.298	25940
828.437	26001
828.577	25746
828.716	25906
828.855	25719
828.994	25670
829.134	25548
829.273	25715
829.412	25540
829.551	25559
829.69	25563
829.829	25567
829.968	25639
830.107	25746
830.246	25537
830.385	25479
830.524	25388
830.663	25335
830.802	25400
830.941	25152
831.08	25133
831.219	25183
831.357	25282
831.496	25381
831.635	25206
831.774	25247
831.913	25069
832.051	25027
832.19	25015
832.329	24985
832.467	24951
832.606	24840
832.744	24916
832.883	24844
833.022	24817
833.16	24760
833.299	24825
833.437	24802
833.576	24943
833.714	24795
833.852	24928
833.991	24970
834.129	25069
834.267	24901
834.406	24920
834.544	24928
834.682	24973
834.821	24966
834.959	25202
835.097	24913
835.235	24951
835.373	24973
835.511	24867
835.65	24894
835.788	24673
835.926	24783
836.064	24582
836.202	24540
836.34	24867
836.478	24802
836.615	24821
836.753	24734
836.891	24894
837.029	24764
837.167	24688
837.305	24791
837.443	24646
837.58	24555
837.718	24749
837.856	24559
837.993	24677
838.131	24551
838.269	24521
838.406	24544
838.544	24338
838.681	24254
838.819	24148
838.956	24076
839.094	24079
839.231	24106
839.369	24216
839.506	24509
839.643	24235
839.781	24095
839.918	24026
840.055	24026
840.193	24049
840.33	23999
840.467	23996
840.604	23988
840.742	24273
840.879	23901
841.016	23866
841.153	23828
841.29	24091
841.427	23965
841.564	24182
841.701	24003
841.838	24015
841.975	23783
842.112	23923
842.249	23760
842.385	23691
842.522	24034
842.659	23836
842.796	23756
842.933	23824
843.069	23760
843.206	23668
843.343	23813
843.479	23703
843.616	23771
843.752	23528
843.889	23589
844.025	23649
844.162	23554
844.298	23531
844.435	23379
844.571	23436
844.708	23577
844.844	23764
844.98	23501
845.117	23687
845.253	23581
845.389	23326
845.525	23448
845.661	23395
845.798	23284
845.934	23284
846.07	23273
846.206	23147
846.342	23364
846.478	23258
846.614	22995
846.75	23025
846.886	22881
847.022	23006
847.158	23025
847.294	22976
847.429	22984
847.565	22957
847.701	23189
847.837	22626
847.972	22683
848.108	22801
848.244	22809
848.379	22538
848.515	22554
848.65	22527
848.786	22535
848.921	22557
849.057	22725
849.192	22679
849.328	22626
849.463	22599
849.598	22561
849.734	22542
849.869	22417
850.004	22299
850.14	22341
850.275	22382
850.41	22211
850.545	22230
850.68	22310
850.815	22325
850.95	22276
851.085	22500
851.22	22344
851.355	22333
851.49	22295
851.625	22246
851.76	22223
851.895	22211
852.03	22204
852.165	22322
852.299	22436
852.434	22413
852.569	22356
852.703	22462
852.838	22390
852.973	22500
853.107	22497
853.242	22276
853.376	22249
853.511	22059
853.645	22067
853.78	22242
853.914	22139
854.048	22211
854.183	22013
854.317	22139
854.451	22344
854.585	22032
854.72	22211
854.854	22169
854.988	22166
855.122	22158
855.256	22036
855.39	22063
855.524	22284
855.658	22249
855.792	22211
855.926	22131
856.06	22185
856.194	22242
856.327	22090
856.461	22086
856.595	22105
856.729	22150
856.862	22337
856.996	22158
857.13	22295
857.263	22268
857.397	22169
857.53	22150
857.664	22116
857.797	22234
857.931	22211
858.064	22158
858.197	22337
858.331	22188
858.464	22143
858.597	22051
858.731	22048
858.864	22048
858.997	22154
859.13	22078
859.263	22173
859.396	22215
859.529	22116
859.662	22051
859.795	22040
859.928	22177
860.061	22337
860.194	22325
860.327	22230
860.46	22162
860.592	22299
860.725	22238
860.858	22253
860.99	22268
861.123	22223
861.256	22032
861.388	22090
861.521	22850
861.653	22006
861.786	21876
861.918	21918
862.05	21918
862.183	22051
862.315	22002
862.447	22143
862.58	22006
862.712	21793
862.844	21838
862.976	21854
863.108	21884
863.24	22253
863.372	21759
863.504	21907
863.636	21797
863.768	21930
863.9	21915
864.032	21808
864.164	21778
864.296	21819
864.428	21953
864.559	21865
864.691	21827
864.823	21888
864.954	21831
865.086	21804
865.217	21766
865.349	21679
865.48	21751
865.612	21717
865.743	21930
865.875	21873
866.006	21667
866.137	21819
866.269	21823
866.4	21762
866.531	21671
866.662	21667
866.793	21625
866.924	21694
867.055	21732
867.186	21637
867.317	21656
867.448	21542
867.579	21587
867.71	21564
867.841	21652
867.972	21679
868.103	21561
868.233	21599
868.364	21629
868.495	21739
868.625	21743
868.756	21888
868.886	21861
869.017	21850
869.147	21956
869.278	22017
869.408	21854
869.539	21994
869.669	21979
869.799	21884
869.929	22124
870.06	21865
870.19	22116
870.32	22207
870.45	22226
870.58	22261
870.71	22443
870.84	22322
870.97	22310
871.1	22280
871.23	22455
871.36	22398
871.489	22314
871.619	22470
871.749	22535
871.879	22615
872.008	22630
872.138	22409
872.267	22447
872.397	22421
872.526	22287
872.656	22348
872.785	22356
872.915	22436
873.044	22645
873.173	22516
873.303	22489
873.432	22565
873.561	22493
873.69	22497
873.819	22402
873.948	22596
874.077	22550
874.206	22535
874.335	22538
874.464	22569
874.593	22721
874.722	22679
874.851	22778
874.979	22771
875.108	22828
875.237	22694
875.365	22656
875.494	22660
875.623	22759
875.751	22721
875.88	22679
876.008	22904
876.136	22839
876.265	23025
876.393	23155
876.521	23140
876.65	23166
876.778	23079
876.906	23044
877.034	23056
877.162	23048
877.29	23105
877.418	23014
877.546	23052
877.674	23086
877.802	22953
877.93	23109
878.058	22957
878.185	22900
878.313	23102
878.441	22999
878.568	22911
878.696	22980
878.824	23124
878.951	23109
879.079	23246
879.206	23277
879.333	23155
879.461	23170
879.588	23155
879.715	23090
879.842	23292
879.97	23083
880.097	22866
880.224	22930
880.351	22858
880.478	22892
880.605	22683
880.732	22847
880.859	23098
880.986	22740
881.112	22999
881.239	22786
881.366	22679
881.493	22592
881.619	22394
881.746	22443
881.872	22554
881.999	22344
882.125	22428
882.252	22447
882.378	22417
882.505	22508
882.631	22215
882.757	22204
882.883	22097
883.01	22131
883.136	22074
883.262	21987
883.388	22029
883.514	22162
883.64	22120
883.766	22010
883.892	21880
884.018	21964
884.143	22143
884.269	22143
884.395	21819
884.52	21797
884.646	21724
884.772	21599
884.897	21797
885.023	21785
885.148	21873
885.274	21915
885.399	21861
885.524	21732
885.65	21713
885.775	21808
885.9	21660
886.025	21778
886.15	21774
886.275	21686
886.4	21694
886.525	21698
886.65	21728
886.775	21785
886.9	21918
887.025	21991
887.149	21713
887.274	21614
887.399	21519
887.523	21462
887.648	21431
887.773	21500
887.897	21587
888.021	21572
888.146	21412
888.27	21568
888.395	21656
888.519	21469
888.643	21553
888.767	21557
888.891	21507
889.015	21386
889.139	21374
889.263	21374
889.387	21416
889.511	21435
889.635	21428
889.759	21268
889.883	21233
890.006	21298
890.13	21431
890.254	21214
890.377	21245
890.501	21017
890.624	21036
890.748	21058
890.871	20990
890.995	20944
891.118	20682
891.241	20986
891.364	20815
891.488	21017
891.611	20899
891.734	20773
891.857	20960
891.98	20864
892.103	20937
892.226	20982
892.349	20716
892.471	20648
892.594	20731
892.717	20785
892.839	20807
892.962	20773
893.085	20823
893.207	20693
893.33	20655
893.452	20670
893.575	20845
893.697	20686
893.819	20925
893.941	20853
894.064	20864
894.186	20617
894.308	20708
894.43	20891
894.552	20902
894.674	21024
894.796	20621
894.918	20648
895.04	20712
895.161	20819
895.283	20826
895.405	20632
895.526	20731
895.648	20689
895.769	20796
895.891	20754
896.012	20899
896.134	20705
896.255	20807
896.376	20640
896.498	20735
896.619	20686
896.74	20758
896.861	20883
896.982	21001
897.103	21230
897.224	21032
897.345	20956
897.466	20887
897.587	20887
897.708	21135
897.828	21024
897.949	20895
898.07	20727
898.19	20762
898.311	20952
898.431	20823
898.552	21017
898.672	20963
898.792	20933
898.913	21001
899.033	20811
899.153	20724
899.273	20579
899.393	20670
899.513	20746
899.633	20659
899.753	20807
899.873	20648
899.993	20629
900.113	20560
900.232	20587
900.352	20636
900.472	20552
900.591	20450
900.711	20522
900.83	20408
900.95	20587
901.069	20594
901.189	20252
901.308	20119
901.427	19913
901.546	20012
901.665	20031
901.784	19944
901.904	19951
902.023	19887
902.141	19624
902.26	19647
902.379	19685
902.498	19430
902.617	19403
902.735	19594
902.854	19571
902.973	19411
903.091	19190
903.21	19091
903.328	19225
903.446	19213
903.565	19042
903.683	19065
903.801	18932
903.919	18901
904.038	18970
904.156	18741
904.274	18897
904.392	18730
904.51	18722
904.627	18646
904.745	18783
904.863	18825
904.981	18593
905.098	18502
905.216	18494
905.334	18456
905.451	18407
905.569	18506
905.686	18433
905.803	18319
905.921	18209
906.038	18209
906.155	18201
906.272	18171
906.389	18186
906.506	17923
906.623	17984
906.74	17950
906.857	17920
906.974	17916
907.091	17916
907.208	18068
907.324	17916
907.441	17824
907.557	17764
907.674	17729
907.79	17581
907.907	17501
908.023	17687
908.139	17615
908.256	17604
908.372	17627
908.488	17509
908.604	17440
908.72	17467
908.836	17379
908.952	17376
909.068	17414
909.184	17455
909.3	17505
909.415	17433
909.531	17395
909.647	17220
909.762	17147
909.878	17071
909.993	17151
910.108	17094
910.224	17067
910.339	16980
910.454	16934
910.57	16854
910.685	16778
910.8	17045
910.915	17014
911.03	16923
911.145	16694
911.259	16645
911.374	16687
911.489	16565
911.604	16455
911.718	16500
911.833	16421
911.947	16314
912.062	16268
912.176	16459
912.291	16341
912.405	16413
912.519	16459
912.633	16599
912.748	16405
912.862	16455
912.976	16116
913.09	16074
913.204	16219
913.318	16192
913.431	16360
913.545	16291
913.659	16253
913.772	16154
913.886	15975
914	16044
914.113	16124
914.226	16166
914.34	16112
914.453	15945
914.566	16051
914.68	15911
914.793	15892
914.906	15816
915.019	15595
915.132	15561
915.245	15698
915.358	15682
915.47	15568
915.583	15610
915.696	15587
915.809	15675
915.921	15720
916.034	15603
916.146	15523
916.259	15439
916.371	15504
916.483	15447
916.595	15450
916.708	15466
916.82	15473
916.932	15382
917.044	15351
917.156	15439
917.268	15214
917.38	15306
917.491	15218
917.603	15214
917.715	15256
917.826	15416
917.938	15176
918.049	15070
918.161	15146
918.272	15256
918.384	15222
918.495	15180
918.606	15047
918.717	14937
918.828	14944
918.939	14998
919.05	14944
919.161	15017
919.272	14724
919.383	14918
919.494	15005
919.604	15112
919.715	15001
919.826	14823
919.936	14910
920.047	14986
920.157	14960
920.267	15131
920.378	14975
920.488	14902
920.598	15062
920.708	15165
920.818	15085
920.928	15135
921.038	15180
921.148	15135
921.258	14853
921.368	14811
921.477	14693
921.587	14613
921.697	14526
921.806	14629
921.916	14556
922.025	14309
922.134	14301
922.244	14240
922.353	14343
922.462	14263
922.571	14119
922.68	13978
922.789	14016
922.898	13913
923.007	13849
923.116	13997
923.224	13906
923.333	13944
923.442	13814
923.55	13753
923.659	13875
923.767	13765
923.876	13696
923.984	13791
924.092	13727
924.201	13719
924.309	13738
924.417	13738
924.525	13613
924.633	13548
924.741	14511
924.849	13407
924.956	13514
925.064	13339
925.172	13312
925.279	13354
925.387	13266
925.494	13251
925.602	13403
925.709	13339
925.816	13274
925.924	13232
926.031	13369
926.138	13198
926.245	13339
926.352	13308
926.459	13251
926.566	13308
926.673	13198
926.779	12973
926.886	13118
926.993	12939
927.099	12840
927.206	12878
927.312	12871
927.419	12958
927.525	12825
927.631	12859
927.737	12722
927.843	12764
927.95	12669
928.056	12760
928.162	12791
928.267	12745
928.373	13335
928.479	12707
928.585	12532
928.69	12585
928.796	12654
928.901	12566
929.007	12418
929.112	12566
929.218	12593
929.323	12479
929.428	12460
929.533	12551
929.638	12429
929.743	12429
929.848	12376
929.953	12311
930.058	12273
930.163	12114
930.267	12121
930.372	12190
930.477	12022
930.581	12338
930.685	12125
930.79	11996
930.894	11950
930.998	11939
931.103	12117
931.207	11771
931.311	11676
931.415	11539
931.519	11368
931.623	11292
