Data from test_V78500241_2755.txt Node
Date: Fri Mar 25 15:29:02 CST 2022
User: usil
Spectrometer: V785-0024
Trigger mode: 0
Integration Time (sec): 4.000000E-1
Scans to average: 1
Nonlinearity correction enabled: false
Boxcar width: 0
Storing dark spectrum: false
XAxis mode: Wavelengths
Number of Pixels in Spectrum: 1024
>>>>>Begin Spectral Data<<<<<
801.071	27039
801.214	26979
801.356	26853
801.499	26823
801.641	26587
801.783	26511
801.926	26674
802.068	26781
802.211	26431
802.353	26480
802.496	26320
802.638	26119
802.78	26126
802.923	26092
803.065	26069
803.208	26016
803.35	26214
803.492	26370
803.635	26530
803.777	26358
803.919	26415
804.061	26712
804.204	26298
804.346	26267
804.488	26313
804.63	26244
804.773	26313
804.915	26415
805.057	26495
805.199	26278
805.341	26377
805.483	26476
805.626	26408
805.768	26229
805.91	26473
806.052	26476
806.194	26381
806.336	26648
806.478	26415
806.62	26507
806.762	26556
806.904	26743
807.046	26960
807.188	26891
807.33	26876
807.472	26895
807.614	26868
807.756	26933
807.898	26781
808.04	26705
808.182	26636
808.324	26697
808.465	26838
808.607	26861
808.749	27028
808.891	27230
809.033	27089
809.174	27108
809.316	27032
809.458	27138
809.6	26960
809.741	27013
809.883	27188
810.025	27340
810.166	27226
810.308	27294
810.45	27199
810.591	27245
810.733	27013
810.875	27036
811.016	27089
811.158	26940
811.299	27157
811.441	27249
811.582	27207
811.724	27017
811.865	26971
812.007	26948
812.148	27104
812.29	27032
812.431	27207
812.573	27405
812.714	27302
812.855	27587
812.997	27591
813.138	27759
813.279	27530
813.421	27564
813.562	27427
813.703	27283
813.845	27192
813.986	27051
814.127	26769
814.268	26632
814.41	26800
814.551	26788
814.692	26739
814.833	26663
814.974	26712
815.115	26838
815.256	26625
815.397	26587
815.539	26518
815.68	26442
815.821	26313
815.962	26469
816.103	26457
816.244	26332
816.385	26267
816.526	26180
816.666	26050
816.807	25925
816.948	25978
817.089	26077
817.23	26088
817.371	25898
817.512	26005
817.653	25894
817.793	25841
817.934	25917
818.075	25978
818.216	25978
818.356	25906
818.497	25750
818.638	25578
818.778	25670
818.919	25609
819.06	25719
819.2	25887
819.341	25757
819.481	25856
819.622	26050
819.762	26465
819.903	26138
820.043	26046
820.184	25997
820.324	25978
820.465	26008
820.605	26012
820.746	25951
820.886	25799
821.026	26031
821.167	26005
821.307	26084
821.447	26012
821.588	25822
821.728	25628
821.868	25597
822.008	25400
822.149	25369
822.289	25209
822.429	25107
822.569	25099
822.709	25088
822.849	24882
822.99	25004
823.13	24878
823.27	24973
823.41	24719
823.55	24620
823.69	24688
823.83	24798
823.97	24604
824.11	24688
824.25	24525
824.389	24555
824.529	24566
824.669	24467
824.809	24547
824.949	24593
825.089	24563
825.228	24445
825.368	24361
825.508	24426
825.648	24494
825.787	24445
825.927	24509
826.067	24429
826.206	24369
826.346	24475
826.485	24433
826.625	24388
826.765	24642
826.904	24403
827.044	24121
827.183	24174
827.323	24125
827.462	24266
827.601	24155
827.741	24136
827.88	24155
828.02	23920
828.159	24114
828.298	24060
828.437	24117
828.577	23954
828.716	24148
828.855	24007
828.994	23866
829.134	23878
829.273	23756
829.412	23802
829.551	23817
829.69	23866
829.829	23786
829.968	23874
830.107	23828
830.246	23828
830.385	23794
830.524	23668
830.663	23630
830.802	23634
830.941	23589
831.08	23296
831.219	23482
831.357	23512
831.496	23482
831.635	23349
831.774	23429
831.913	23140
832.051	23143
832.19	23204
832.329	23181
832.467	23041
832.606	23014
832.744	23079
832.883	23075
833.022	23052
833.16	23010
833.299	23044
833.437	23094
833.576	23067
833.714	23174
833.852	23334
833.991	23299
834.129	23299
834.267	23124
834.406	23250
834.544	23288
834.682	23235
834.821	23056
834.959	23273
835.097	23094
835.235	23132
835.373	23208
835.511	23113
835.65	23003
835.788	22927
835.926	22919
836.064	22687
836.202	22965
836.34	22995
836.478	23052
836.615	22923
836.753	23037
836.891	23052
837.029	22991
837.167	22987
837.305	23006
837.443	22782
837.58	22831
837.718	22839
837.856	22862
837.993	22801
838.131	22908
838.269	22660
838.406	22717
838.544	22649
838.681	22561
838.819	22379
838.956	22261
839.094	22375
839.231	22379
839.369	22478
839.506	22569
839.643	22637
839.781	22394
839.918	22253
840.055	22261
840.193	22291
840.33	22207
840.467	22173
840.604	22295
840.742	22489
840.879	22109
841.016	22162
841.153	22093
841.29	22352
841.427	22238
841.564	22185
841.701	22230
841.838	22226
841.975	22128
842.112	22135
842.249	22093
842.385	22177
842.522	22306
842.659	22044
842.796	21956
842.933	22017
843.069	21945
843.206	22051
843.343	22154
843.479	22051
843.616	21998
843.752	21747
843.889	21720
844.025	21880
844.162	21728
844.298	21865
844.435	21766
844.571	21625
844.708	21793
844.844	21972
844.98	21873
845.117	21880
845.253	21743
845.389	21656
845.525	21797
845.661	21728
845.798	21591
845.934	21557
846.07	21526
846.206	21568
846.342	21580
846.478	21568
846.614	21401
846.75	21260
846.886	21275
847.022	21310
847.158	21298
847.294	21264
847.429	21211
847.565	21173
847.701	21534
847.837	21024
847.972	20956
848.108	21104
848.244	21055
848.379	20777
848.515	20899
848.65	20678
848.786	20724
848.921	20830
849.057	20925
849.192	20944
849.328	20941
849.463	20830
849.598	20830
849.734	20769
849.869	20842
850.004	20514
850.14	20648
850.275	20556
850.41	20568
850.545	20587
850.68	20583
850.815	20708
850.95	20621
851.085	20708
851.22	20621
851.355	20530
851.49	20632
851.625	20518
851.76	20503
851.895	20731
852.03	20617
852.165	20644
852.299	20568
852.434	20697
852.569	20568
852.703	20594
852.838	20674
852.973	20716
853.107	20705
853.242	20495
853.376	20355
853.511	20320
853.645	20347
853.78	20514
853.914	20507
854.048	20427
854.183	20381
854.317	20438
854.451	20636
854.585	20530
854.72	20366
854.854	20473
854.988	20343
855.122	20351
855.256	20404
855.39	20492
855.524	20495
855.658	20442
855.792	20442
855.926	20473
856.06	20602
856.194	20590
856.327	20465
856.461	20400
856.595	20450
856.729	20457
856.862	20564
856.996	20526
857.13	20484
857.263	20461
857.397	20545
857.53	20480
857.664	20434
857.797	20522
857.931	20648
858.064	20621
858.197	20503
858.331	20339
858.464	20419
858.597	20328
858.731	20503
858.864	20415
858.997	20400
859.13	20400
859.263	20495
859.396	20560
859.529	20545
859.662	20362
859.795	20400
859.928	20427
860.061	20518
860.194	20720
860.327	20514
860.46	20278
860.592	20503
860.725	20598
860.858	20625
860.99	20332
861.123	20438
861.256	20427
861.388	20366
861.521	20880
861.653	20336
861.786	20259
861.918	20290
862.05	20339
862.183	20343
862.315	20427
862.447	20457
862.58	20358
862.712	20180
862.844	20039
862.976	20298
863.108	20206
863.24	20613
863.372	20126
863.504	20122
863.636	20233
863.768	20187
863.9	20062
864.032	20149
864.164	20134
864.296	20145
864.428	20191
864.559	20305
864.691	20157
864.823	20161
864.954	20199
865.086	20195
865.217	20001
865.349	19932
865.48	20058
865.612	19997
865.743	20111
865.875	20005
866.006	19951
866.137	20183
866.269	19978
866.4	20092
866.531	20073
866.662	20046
866.793	19967
866.924	20031
867.055	20084
867.186	20096
867.317	19906
867.448	19868
867.579	19932
867.71	20008
867.841	19932
867.972	20039
868.103	20107
868.233	20001
868.364	19978
868.495	20119
868.625	20218
868.756	20339
868.886	20172
869.017	20191
869.147	20282
869.278	20294
869.408	20229
869.539	20278
869.669	20343
869.799	20210
869.929	20381
870.06	20370
870.19	20568
870.32	20552
870.45	20644
870.58	20537
870.71	20716
870.84	20670
870.97	20537
871.1	20686
871.23	20861
871.36	20864
871.489	20708
871.619	20689
871.749	20834
871.879	20819
872.008	20960
872.138	20887
872.267	20925
872.397	20739
872.526	20648
872.656	20636
872.785	20686
872.915	20925
873.044	20887
873.173	20891
873.303	20937
873.432	20929
873.561	21055
873.69	20823
873.819	20807
873.948	20990
874.077	20845
874.206	20815
874.335	20868
874.464	20921
874.593	21066
874.722	21104
874.851	21039
874.979	21135
875.108	21180
875.237	21131
875.365	21039
875.494	21089
875.623	21024
875.751	21138
875.88	21218
876.008	21325
876.136	21313
876.265	21603
876.393	21610
876.521	21557
876.65	21538
876.778	21526
876.906	21492
877.034	21450
877.162	21511
877.29	21435
877.418	21523
877.546	21439
877.674	21389
877.802	21462
877.93	21443
878.058	21454
878.185	21252
878.313	21401
878.441	21405
878.568	21218
878.696	21382
878.824	21587
878.951	21622
879.079	21603
879.206	21797
879.333	21622
879.461	21488
879.588	21675
879.715	21622
879.842	21679
879.97	21545
880.097	21302
880.224	21306
880.351	21279
880.478	21389
880.605	21218
880.732	21256
880.859	21454
880.986	21329
881.112	21351
881.239	21199
881.366	21100
881.493	20925
881.619	20883
881.746	20880
881.872	20914
881.999	20838
882.125	20857
882.252	20933
882.378	20838
882.505	21058
882.631	20727
882.757	20659
882.883	20621
883.01	20625
883.136	20583
883.262	20396
883.388	20465
883.514	20590
883.64	20556
883.766	20541
883.892	20248
884.018	20476
884.143	20473
884.269	20541
884.395	20298
884.52	20210
884.646	20218
884.772	20233
884.897	20145
885.023	20408
885.148	20347
885.274	20400
885.399	20229
885.524	20221
885.65	20290
885.775	20195
885.9	20286
886.025	20317
886.15	20263
886.275	20145
886.4	20176
886.525	20142
886.65	20062
886.775	20157
886.9	20278
887.025	20423
887.149	20168
887.274	20119
887.399	19955
887.523	19963
887.648	20081
887.773	19841
887.897	20107
888.021	20100
888.146	19944
888.27	20081
888.395	20122
888.519	20065
888.643	20069
888.767	20050
888.891	19940
889.015	19860
889.139	19898
889.263	19944
889.387	19917
889.511	20027
889.635	19947
889.759	19997
889.883	19803
890.006	19791
890.13	19944
890.254	19784
890.377	19803
890.501	19624
890.624	19537
890.748	19594
890.871	19499
890.995	19301
891.118	19350
891.241	19422
891.364	19449
891.488	19468
891.611	19381
891.734	19502
891.857	19491
891.98	19358
892.103	19369
892.226	19350
892.349	19331
892.471	19263
892.594	19278
892.717	19457
892.839	19259
892.962	19327
893.085	19282
893.207	19365
893.33	19152
893.452	19228
893.575	19400
893.697	19365
893.819	19449
893.941	19369
894.064	19434
894.186	19316
894.308	19266
894.43	19297
894.552	19480
894.674	19373
894.796	19339
894.918	19324
895.04	19312
895.161	19388
895.283	19426
895.405	19221
895.526	19392
895.648	19316
895.769	19346
895.891	19403
896.012	19396
896.134	19316
896.255	19320
896.376	19324
896.498	19362
896.619	19346
896.74	19320
896.861	19460
896.982	19666
897.103	19871
897.224	19639
897.345	19616
897.466	19483
897.587	19552
897.708	19734
897.828	19590
897.949	19472
898.07	19514
898.19	19525
898.311	19590
898.431	19521
898.552	19548
898.672	19670
898.792	19696
898.913	19590
899.033	19495
899.153	19308
899.273	19312
899.393	19415
899.513	19343
899.633	19384
899.753	19316
899.873	19312
899.993	19289
900.113	19324
900.232	19251
900.352	19206
900.472	19263
900.591	19198
900.711	19198
900.83	19107
900.95	19240
901.069	19160
901.189	19042
901.308	18760
901.427	18741
901.546	18791
901.665	18658
901.784	18749
901.904	18642
902.023	18582
902.141	18399
902.26	18300
902.379	18353
902.498	18327
902.617	18235
902.735	18376
902.854	18186
902.973	18178
903.091	18003
903.21	18076
903.328	18011
903.446	17855
903.565	17691
903.683	17767
903.801	17767
903.919	17634
904.038	17718
904.156	17535
904.274	17630
904.392	17501
904.51	17532
904.627	17493
904.745	17634
904.863	17433
904.981	17296
905.098	17235
905.216	17204
905.334	17307
905.451	17239
905.569	17261
905.686	17318
905.803	17242
905.921	17003
906.038	17105
906.155	17006
906.272	16896
906.389	16877
906.506	16782
906.623	16702
906.74	16660
906.857	16622
906.974	16672
907.091	16748
907.208	16900
907.324	16759
907.441	16725
907.557	16470
907.674	16413
907.79	16432
907.907	16314
908.023	16421
908.139	16512
908.256	16371
908.372	16409
908.488	16333
908.604	16246
908.72	16230
908.836	16185
908.952	16185
909.068	16322
909.184	16280
909.3	16211
909.415	16196
909.531	16162
909.647	16006
909.762	15964
909.878	15819
909.993	15960
910.108	15899
910.224	15865
910.339	15922
910.454	15770
910.57	15644
910.685	15667
910.8	15941
910.915	15964
911.03	15648
911.145	15561
911.259	15561
911.374	15606
911.489	15416
911.604	15363
911.718	15264
911.833	15294
911.947	15256
912.062	15184
912.176	15344
912.291	15340
912.405	15287
912.519	15553
912.633	15424
912.748	15245
912.862	15348
912.976	15135
913.09	15001
913.204	15074
913.318	15051
913.431	15180
913.545	15184
913.659	15294
913.772	14929
913.886	14941
914	14891
914.113	15100
914.226	15028
914.34	14910
914.453	14792
914.566	14887
914.68	14735
914.793	14769
914.906	14610
915.019	14537
915.132	14461
915.245	14503
915.358	14571
915.47	14518
915.583	14556
915.696	14461
915.809	14655
915.921	14651
916.034	14431
916.146	14492
916.259	14465
916.371	14571
916.483	14602
916.595	14404
916.708	14442
916.82	14328
916.932	14412
917.044	14317
917.156	14282
917.268	14271
917.38	14202
917.491	14187
917.603	14202
917.715	14336
917.826	14351
917.938	14237
918.049	14107
918.161	14153
918.272	14256
918.384	14294
918.495	14138
918.606	13947
918.717	13875
918.828	13959
918.939	13959
919.05	13925
919.161	13909
919.272	13715
919.383	13833
919.494	13978
919.604	14145
919.715	13887
919.826	13822
919.936	13909
920.047	14065
920.157	13982
920.267	14103
920.378	13967
920.488	13978
920.598	14107
920.708	14237
920.818	14016
920.928	14058
921.038	14313
921.148	14130
921.258	13780
921.368	13814
921.477	13818
921.587	13746
921.697	13529
921.806	13670
921.916	13597
922.025	13362
922.134	13419
922.244	13293
922.353	13518
922.462	13266
922.571	13236
922.68	13053
922.789	12977
922.898	12966
923.007	13004
923.116	13069
923.224	13053
923.333	12954
923.442	12890
923.55	12795
923.659	12753
923.767	12856
923.876	12707
923.984	12882
924.092	12669
924.201	12772
924.309	12745
924.417	12711
924.525	12741
924.633	12719
924.741	13685
924.849	12540
924.956	12669
925.064	12547
925.172	12437
925.279	12460
925.387	12437
925.494	12445
925.602	12471
925.709	12483
925.816	12346
925.924	12418
926.031	12498
926.138	12380
926.245	12464
926.352	12353
926.459	12410
926.566	12445
926.673	12422
926.779	12178
926.886	12251
926.993	12144
927.099	12019
927.206	12038
927.312	11969
927.419	12110
927.525	12057
927.631	11988
927.737	11912
927.843	11859
927.95	11764
928.056	11836
928.162	11863
928.267	11927
928.373	12433
928.479	11908
928.585	11714
928.69	11832
928.796	11920
928.901	11634
929.007	11619
929.112	11718
929.218	11699
929.323	11623
929.428	11676
929.533	11760
929.638	11573
929.743	11558
929.848	11653
929.953	11497
930.058	11490
930.163	11254
930.267	11345
930.372	11402
930.477	11296
930.581	11436
930.685	11417
930.79	11208
930.894	11246
930.998	11155
931.103	11284
931.207	10946
931.311	10831
931.415	10820
931.519	10649
931.623	10527
