Data from test_V78500241_3424.txt Node
Date: Fri Mar 25 15:33:42 CST 2022
User: usil
Spectrometer: V785-0024
Trigger mode: 0
Integration Time (sec): 4.000000E-1
Scans to average: 1
Nonlinearity correction enabled: false
Boxcar width: 0
Storing dark spectrum: false
XAxis mode: Wavelengths
Number of Pixels in Spectrum: 1024
>>>>>Begin Spectral Data<<<<<
801.071	27249
801.214	27199
801.356	26933
801.499	26830
801.641	26693
801.783	26686
801.926	26834
802.068	26788
802.211	26724
802.353	26613
802.496	26492
802.638	26446
802.78	26343
802.923	26286
803.065	26240
803.208	26389
803.35	26412
803.492	26579
803.635	26602
803.777	26533
803.919	26583
804.061	26956
804.204	26651
804.346	26511
804.488	26366
804.63	26583
804.773	26358
804.915	26495
805.057	26819
805.199	26438
805.341	26606
805.483	26739
805.626	26552
805.768	26583
805.91	26693
806.052	26807
806.194	26545
806.336	26864
806.478	26648
806.62	26670
806.762	26705
806.904	26819
807.046	27203
807.188	27062
807.33	27184
807.472	27104
807.614	27077
807.756	27020
807.898	26971
808.04	26796
808.182	26921
808.324	26925
808.465	26956
808.607	27230
808.749	27146
808.891	27511
809.033	27420
809.174	27393
809.316	27294
809.458	27237
809.6	27218
809.741	27287
809.883	27370
810.025	27454
810.166	27564
810.308	27458
810.45	27576
810.591	27302
810.733	27268
810.875	27195
811.016	27089
811.158	27283
811.299	27306
811.441	27443
811.582	27427
811.724	27298
811.865	27096
812.007	27226
812.148	27294
812.29	27237
812.431	27325
812.573	27526
812.714	27648
812.855	27679
812.997	27720
813.138	27819
813.279	27899
813.421	27770
813.562	27671
813.703	27553
813.845	27382
813.986	27154
814.127	27077
814.268	26967
814.41	26834
814.551	26792
814.692	26925
814.833	26819
814.974	26918
815.115	26956
815.256	26708
815.397	26701
815.539	26636
815.68	26705
815.821	26659
815.962	26560
816.103	26507
816.244	26625
816.385	26427
816.526	26412
816.666	26267
816.807	26252
816.948	26157
817.089	26206
817.23	26233
817.371	26221
817.512	26248
817.653	26210
817.793	26001
817.934	26149
818.075	26259
818.216	26214
818.356	26065
818.497	26031
818.638	25970
818.778	25913
818.919	25917
819.06	25932
819.2	26126
819.341	26081
819.481	26088
819.622	26381
819.762	26431
819.903	26400
820.043	26393
820.184	26210
820.324	26183
820.465	26305
820.605	26218
820.746	26187
820.886	26096
821.026	26267
821.167	26183
821.307	26290
821.447	26180
821.588	26050
821.728	26088
821.868	25818
822.008	25575
822.149	25723
822.289	25540
822.429	25266
822.569	25247
822.709	25327
822.849	25061
822.99	25084
823.13	25103
823.27	25080
823.41	24882
823.55	24802
823.69	25076
823.83	25019
823.97	24886
824.11	24722
824.25	24646
824.389	24661
824.529	24867
824.669	24669
824.809	24817
824.949	24848
825.089	24821
825.228	24730
825.368	24563
825.508	24547
825.648	24559
825.787	24597
825.927	24623
826.067	24574
826.206	24528
826.346	24585
826.485	24639
826.625	24646
826.765	24677
826.904	24741
827.044	24418
827.183	24422
827.323	24285
827.462	24353
827.601	24357
827.741	24418
827.88	24369
828.02	24228
828.159	24304
828.298	24365
828.437	24433
828.577	24296
828.716	24525
828.855	24197
828.994	24049
829.134	24026
829.273	23961
829.412	24171
829.551	24068
829.69	24003
829.829	24026
829.968	24060
830.107	24110
830.246	24026
830.385	24018
830.524	24011
830.663	23984
830.802	23729
830.941	23710
831.08	23634
831.219	23699
831.357	23707
831.496	23885
831.635	23798
831.774	23611
831.913	23501
832.051	23459
832.19	23482
832.329	23356
832.467	23433
832.606	23334
832.744	23307
832.883	23284
833.022	23353
833.16	23311
833.299	23391
833.437	23429
833.576	23482
833.714	23334
833.852	23467
833.991	23410
834.129	23585
834.267	23509
834.406	23395
834.544	23391
834.682	23444
834.821	23379
834.959	23581
835.097	23360
835.235	23452
835.373	23566
835.511	23440
835.65	23185
835.788	23303
835.926	23231
836.064	23151
836.202	23185
836.34	23258
836.478	23273
836.615	23193
836.753	23254
836.891	23299
837.029	23421
837.167	23189
837.305	23086
837.443	23208
837.58	23025
837.718	23204
837.856	23113
837.993	23064
838.131	23083
838.269	22995
838.406	23159
838.544	22904
838.681	22831
838.819	22843
838.956	22645
839.094	22641
839.231	22683
839.369	22778
839.506	23010
839.643	22877
839.781	22702
839.918	22550
840.055	22577
840.193	22554
840.33	22478
840.467	22538
840.604	22592
840.742	22930
840.879	22519
841.016	22474
841.153	22356
841.29	22645
841.427	22504
841.564	22626
841.701	22493
841.838	22421
841.975	22565
842.112	22478
842.249	22341
842.385	22310
842.522	22481
842.659	22432
842.796	22295
842.933	22303
843.069	22223
843.206	22322
843.343	22280
843.479	22215
843.616	22329
843.752	22093
843.889	22185
844.025	22188
844.162	22105
844.298	22223
844.435	22128
844.571	21991
844.708	22059
844.844	22219
844.98	22154
845.117	22211
845.253	22029
845.389	21823
845.525	21930
845.661	21941
845.798	21690
845.934	21838
846.07	21755
846.206	21831
846.342	21918
846.478	21717
846.614	21591
846.75	21507
846.886	21515
847.022	21660
847.158	21591
847.294	21637
847.429	21504
847.565	21447
847.701	21713
847.837	21325
847.972	21252
848.108	21370
848.244	21313
848.379	21272
848.515	21169
848.65	21184
848.786	21123
848.921	21142
849.057	21214
849.192	21184
849.328	21169
849.463	21207
849.598	21112
849.734	20937
849.869	20910
850.004	20952
850.14	20918
850.275	21058
850.41	20895
850.545	20899
850.68	20887
850.815	20838
850.95	20982
851.085	20986
851.22	21066
851.355	20845
851.49	20960
851.625	20902
851.76	20811
851.895	20891
852.03	20845
852.165	20853
852.299	20765
852.434	20956
852.569	20902
852.703	20891
852.838	21009
852.973	21169
853.107	21062
853.242	20849
853.376	20746
853.511	20571
853.645	20705
853.78	20880
853.914	20762
854.048	20678
854.183	20735
854.317	20739
854.451	20906
854.585	20724
854.72	20788
854.854	20773
854.988	20781
855.122	20815
855.256	20571
855.39	20880
855.524	20769
855.658	20792
855.792	20769
855.926	20670
856.06	20708
856.194	20796
856.327	20720
856.461	20648
856.595	20651
856.729	20708
856.862	20701
856.996	20838
857.13	20807
857.263	20811
857.397	20811
857.53	20712
857.664	20735
857.797	20765
857.931	20815
858.064	20750
858.197	20796
858.331	20746
858.464	20670
858.597	20629
858.731	20678
858.864	20720
858.997	20568
859.13	20655
859.263	20693
859.396	20838
859.529	20720
859.662	20594
859.795	20705
859.928	20739
860.061	20868
860.194	20937
860.327	20765
860.46	20845
860.592	20781
860.725	20838
860.858	20830
860.99	20826
861.123	20682
861.256	20651
861.388	20811
861.521	21447
861.653	20556
861.786	20629
861.918	20568
862.05	20632
862.183	20606
862.315	20720
862.447	20727
862.58	20655
862.712	20423
862.844	20370
862.976	20590
863.108	20526
863.24	20868
863.372	20381
863.504	20415
863.636	20408
863.768	20374
863.9	20492
864.032	20412
864.164	20301
864.296	20415
864.428	20545
864.559	20545
864.691	20427
864.823	20457
864.954	20404
865.086	20396
865.217	20396
865.349	20240
865.48	20393
865.612	20370
865.743	20389
865.875	20423
866.006	20259
866.137	20396
866.269	20385
866.4	20301
866.531	20275
866.662	20278
866.793	20294
866.924	20199
867.055	20248
867.186	20282
867.317	20324
867.448	20119
867.579	20370
867.71	20142
867.841	20202
867.972	20259
868.103	20263
868.233	20278
868.364	20153
868.495	20415
868.625	20423
868.756	20609
868.886	20465
869.017	20450
869.147	20663
869.278	20552
869.408	20545
869.539	20530
869.669	20606
869.799	20568
869.929	20724
870.06	20598
870.19	20762
870.32	20800
870.45	20960
870.58	20788
870.71	20994
870.84	21055
870.97	20956
871.1	20986
871.23	21142
871.36	21058
871.489	21009
871.619	21112
871.749	21233
871.879	21116
872.008	21249
872.138	21051
872.267	21096
872.397	20986
872.526	20933
872.656	20998
872.785	20967
872.915	21062
873.044	21291
873.173	21116
873.303	21233
873.432	21222
873.561	21218
873.69	21161
873.819	21100
873.948	21237
874.077	21211
874.206	21142
874.335	21066
874.464	21306
874.593	21367
874.722	21298
874.851	21405
874.979	21450
875.108	21485
875.237	21359
875.365	21294
875.494	21348
875.623	21412
875.751	21348
875.88	21473
876.008	21572
876.136	21595
876.265	21842
876.393	22006
876.521	21876
876.65	21949
876.778	21762
876.906	21728
877.034	21781
877.162	21732
877.29	21774
877.418	21857
877.546	21804
877.674	21846
877.802	21770
877.93	21785
878.058	21667
878.185	21606
878.313	21606
878.441	21644
878.568	21572
878.696	21667
878.824	21911
878.951	21797
879.079	21781
879.206	21953
879.333	22013
879.461	21884
879.588	21846
879.715	21915
879.842	22025
879.97	21926
880.097	21618
880.224	21553
880.351	21606
880.478	21652
880.605	21644
880.732	21622
880.859	21854
880.986	21469
881.112	21622
881.239	21454
881.366	21363
881.493	21222
881.619	21195
881.746	21173
881.872	21096
881.999	21176
882.125	21112
882.252	21173
882.378	21058
882.505	21211
882.631	21009
882.757	20716
882.883	20902
883.01	20910
883.136	20800
883.262	20792
883.388	20686
883.514	20906
883.64	20963
883.766	20697
883.892	20621
884.018	20522
884.143	20807
884.269	20857
884.395	20549
884.52	20461
884.646	20590
884.772	20408
884.897	20415
885.023	20484
885.148	20545
885.274	20587
885.399	20636
885.524	20655
885.65	20484
885.775	20549
885.9	20549
886.025	20606
886.15	20541
886.275	20377
886.4	20522
886.525	20427
886.65	20328
886.775	20484
886.9	20579
887.025	20648
887.149	20473
887.274	20358
887.399	20210
887.523	20275
887.648	20122
887.773	20317
887.897	20427
888.021	20286
888.146	20176
888.27	20461
888.395	20374
888.519	20347
888.643	20278
888.767	20454
888.891	20191
889.015	20126
889.139	20252
889.263	20062
889.387	20115
889.511	20240
889.635	20164
889.759	20084
889.883	20096
890.006	19997
890.13	20237
890.254	20134
890.377	20039
890.501	19860
890.624	19951
890.748	19928
890.871	19799
890.995	19704
891.118	19582
891.241	19704
891.364	19666
891.488	19776
891.611	19594
891.734	19628
891.857	19647
891.98	19624
892.103	19662
892.226	19689
892.349	19601
892.471	19586
892.594	19521
892.717	19704
892.839	19510
892.962	19544
893.085	19605
893.207	19552
893.33	19518
893.452	19571
893.575	19624
893.697	19540
893.819	19731
893.941	19700
894.064	19761
894.186	19597
894.308	19400
894.43	19719
894.552	19712
894.674	19700
894.796	19460
894.918	19556
895.04	19499
895.161	19655
895.283	19613
895.405	19514
895.526	19616
895.648	19655
895.769	19586
895.891	19613
896.012	19693
896.134	19605
896.255	19693
896.376	19525
896.498	19624
896.619	19647
896.74	19655
896.861	19655
896.982	19967
897.103	20122
897.224	19932
897.345	19799
897.466	19772
897.587	19761
897.708	19989
897.828	19803
897.949	19788
898.07	19651
898.19	19818
898.311	19887
898.431	19795
898.552	19799
898.672	19864
898.792	19928
898.913	19685
899.033	19719
899.153	19632
899.273	19434
899.393	19662
899.513	19548
899.633	19575
899.753	19575
899.873	19563
899.993	19620
900.113	19453
900.232	19567
900.352	19544
900.472	19468
900.591	19297
900.711	19403
900.83	19228
900.95	19346
901.069	19464
901.189	19285
901.308	18996
901.427	18928
901.546	18909
901.665	18966
901.784	18924
901.904	18753
902.023	18719
902.141	18563
902.26	18467
902.379	18502
902.498	18498
902.617	18391
902.735	18502
902.854	18350
902.973	18422
903.091	18098
903.21	18129
903.328	18083
903.446	18152
903.565	17908
903.683	17988
903.801	17870
903.919	17901
904.038	17920
904.156	17722
904.274	17866
904.392	17676
904.51	17710
904.627	17707
904.745	17809
904.863	17672
904.981	17467
905.098	17376
905.216	17402
905.334	17455
905.451	17452
905.569	17395
905.686	17436
905.803	17307
905.921	17212
906.038	17261
906.155	17227
906.272	17037
906.389	17045
906.506	17067
906.623	16892
906.74	16919
906.857	16831
906.974	16824
907.091	17060
907.208	17033
907.324	16938
907.441	16862
907.557	16752
907.674	16767
907.79	16675
907.907	16622
908.023	16592
908.139	16668
908.256	16698
908.372	16558
908.488	16596
908.604	16333
908.72	16405
908.836	16379
908.952	16394
909.068	16417
909.184	16451
909.3	16356
909.415	16379
909.531	16394
909.647	16154
909.762	16086
909.878	16112
909.993	16112
910.108	15945
910.224	16040
910.339	16025
910.454	16017
910.57	15915
910.685	15880
910.8	16040
910.915	16059
911.03	15968
911.145	15781
911.259	15667
911.374	15603
911.489	15625
911.604	15599
911.718	15466
911.833	15488
911.947	15408
912.062	15237
912.176	15496
912.291	15408
912.405	15473
912.519	15686
912.633	15629
912.748	15435
912.862	15435
912.976	15272
913.09	15195
913.204	15237
913.318	15435
913.431	15485
913.545	15386
913.659	15359
913.772	15252
913.886	15131
914	15142
914.113	15230
914.226	15081
914.34	15123
914.453	15039
914.566	15085
914.68	14872
914.793	14929
914.906	14857
915.019	14754
915.132	14629
915.245	14708
915.358	14587
915.47	14785
915.583	14602
915.696	14670
915.809	14838
915.921	14845
916.034	14720
916.146	14640
916.259	14606
916.371	14769
916.483	14625
916.595	14473
916.708	14507
916.82	14492
916.932	14518
917.044	14507
917.156	14530
917.268	14374
917.38	14408
917.491	14317
917.603	14336
917.715	14545
917.826	14393
917.938	14305
918.049	14225
918.161	14434
918.272	14507
918.384	14366
918.495	14339
918.606	14176
918.717	14043
918.828	14164
918.939	14126
919.05	14092
919.161	14096
919.272	13913
919.383	13944
919.494	14161
919.604	14351
919.715	14050
919.826	14027
919.936	14111
920.047	14259
920.157	14103
920.267	14328
920.378	14096
920.488	14065
920.598	14149
920.708	14351
920.818	14218
920.928	14221
921.038	14324
921.148	14301
921.258	14084
921.368	14024
921.477	13894
921.587	13822
921.697	13803
921.806	13826
921.916	13731
922.025	13521
922.134	13480
922.244	13487
922.353	13567
922.462	13381
922.571	13225
922.68	13160
922.789	13114
922.898	13145
923.007	13107
923.116	13179
923.224	13088
923.333	13061
923.442	12966
923.55	12909
923.659	12981
923.767	13004
923.876	12966
923.984	12977
924.092	12894
924.201	12928
924.309	12844
924.417	12909
924.525	12833
924.633	12837
924.741	13738
924.849	12585
924.956	12814
925.064	12585
925.172	12498
925.279	12654
925.387	12604
925.494	12623
925.602	12627
925.709	12722
925.816	12433
925.924	12563
926.031	12608
926.138	12559
926.245	12559
926.352	12407
926.459	12536
926.566	12623
926.673	12517
926.779	12266
926.886	12456
926.993	12175
927.099	12235
927.206	12178
927.312	12030
927.419	12140
927.525	12072
927.631	12213
927.737	11984
927.843	12003
927.95	11851
928.056	11958
928.162	11999
928.267	12026
928.373	12460
928.479	12098
928.585	11885
928.69	11893
928.796	11935
928.901	11794
929.007	11729
929.112	11866
929.218	11821
929.323	11828
929.428	11733
929.533	11859
929.638	11581
929.743	11703
929.848	11729
929.953	11661
930.058	11524
930.163	11364
930.267	11448
930.372	11592
930.477	11398
930.581	11672
930.685	11417
930.79	11258
930.894	11417
930.998	11311
931.103	11509
931.207	11048
931.311	11022
931.415	10881
931.519	10767
931.623	10622
