Data from test_V78500241_197.txt Node
Date: Fri Mar 25 15:11:13 CST 2022
User: usil
Spectrometer: V785-0024
Trigger mode: 0
Integration Time (sec): 4.000000E-1
Scans to average: 1
Nonlinearity correction enabled: false
Boxcar width: 0
Storing dark spectrum: false
XAxis mode: Wavelengths
Number of Pixels in Spectrum: 1024
>>>>>Begin Spectral Data<<<<<
801.071	28158
801.214	28074
801.356	27854
801.499	27743
801.641	27599
801.783	27568
801.926	27679
802.068	27660
802.211	27561
802.353	27572
802.496	27306
802.638	27329
802.78	27344
802.923	27188
803.065	27150
803.208	27032
803.35	27249
803.492	27386
803.635	27424
803.777	27302
803.919	27370
804.061	27770
804.204	27397
804.346	27268
804.488	27218
804.63	27359
804.773	27165
804.915	27370
805.057	27416
805.199	27245
805.341	27538
805.483	27401
805.626	27557
805.768	27374
805.91	27564
806.052	27492
806.194	27416
806.336	27622
806.478	27386
806.62	27332
806.762	27515
806.904	27553
807.046	27903
807.188	27804
807.33	27911
807.472	27918
807.614	27591
807.756	27698
807.898	27682
808.04	27603
808.182	27618
808.324	27701
808.465	27530
808.607	27907
808.749	27869
808.891	28002
809.033	28226
809.174	28139
809.316	27975
809.458	28128
809.6	27934
809.741	28051
809.883	28158
810.025	28246
810.166	28261
810.308	28223
810.45	28276
810.591	28131
810.733	28006
810.875	27994
811.016	27751
811.158	27751
811.299	28044
811.441	28086
811.582	27953
811.724	27911
811.865	27899
812.007	27873
812.148	27911
812.29	28032
812.431	28207
812.573	28105
812.714	28295
812.855	28394
812.997	28352
813.138	28752
813.279	28455
813.421	28436
813.562	28413
813.703	28322
813.845	28101
813.986	27854
814.127	27728
814.268	27610
814.41	27671
814.551	27488
814.692	27698
814.833	27515
814.974	27545
815.115	27466
815.256	27363
815.397	27553
815.539	27401
815.68	27405
815.821	27192
815.962	27363
816.103	27245
816.244	27275
816.385	26994
816.526	27233
816.666	26948
816.807	26648
816.948	26754
817.089	26944
817.23	26819
817.371	26796
817.512	26716
817.653	26712
817.793	26800
817.934	26754
818.075	26716
818.216	26773
818.356	26701
818.497	26609
818.638	26530
818.778	26552
818.919	26549
819.06	26686
819.2	26648
819.341	26594
819.481	26727
819.622	26804
819.762	27039
819.903	26971
820.043	26735
820.184	26773
820.324	26724
820.465	26739
820.605	26754
820.746	26724
820.886	26693
821.026	26655
821.167	26693
821.307	26682
821.447	26617
821.588	26442
821.728	26347
821.868	26328
822.008	26157
822.149	26054
822.289	26119
822.429	25932
822.569	25822
822.709	25887
822.849	25704
822.99	25460
823.13	25635
823.27	25457
823.41	25525
823.55	25419
823.69	25373
823.83	25365
823.97	25384
824.11	25187
824.25	25065
824.389	25152
824.529	25190
824.669	25217
824.809	25232
824.949	25282
825.089	25373
825.228	25114
825.368	24996
825.508	25050
825.648	24992
825.787	25095
825.927	25076
826.067	24992
826.206	25023
826.346	24985
826.485	25038
826.625	25080
826.765	25175
826.904	25019
827.044	24810
827.183	24673
827.323	24700
827.462	24798
827.601	24821
827.741	24684
827.88	24749
828.02	24479
828.159	24658
828.298	24757
828.437	24741
828.577	24673
828.716	24741
828.855	24749
828.994	24388
829.134	24422
829.273	24456
829.412	24388
829.551	24296
829.69	24365
829.829	24483
829.968	24414
830.107	24559
830.246	24399
830.385	24448
830.524	24194
830.663	24095
830.802	24030
830.941	23923
831.08	23775
831.219	23977
831.357	23988
831.496	24213
831.635	24003
831.774	23908
831.913	23748
832.051	23642
832.19	23771
832.329	23767
832.467	23668
832.606	23535
832.744	23531
832.883	23710
833.022	23707
833.16	23608
833.299	23653
833.437	23543
833.576	23653
833.714	23710
833.852	23836
833.991	23748
834.129	23657
834.267	23657
834.406	23623
834.544	23657
834.682	23703
834.821	23615
834.959	23714
835.097	23680
835.235	23775
835.373	23691
835.511	23611
835.65	23608
835.788	23566
835.926	23402
836.064	23280
836.202	23341
836.34	23497
836.478	23543
836.615	23421
836.753	23589
836.891	23524
837.029	23452
837.167	23284
837.305	23425
837.443	23322
837.58	23220
837.718	23212
837.856	23326
837.993	23410
838.131	23189
838.269	23124
838.406	23303
838.544	23025
838.681	22866
838.819	22896
838.956	22843
839.094	22809
839.231	22793
839.369	22847
839.506	23132
839.643	23025
839.781	22733
839.918	22706
840.055	22805
840.193	22717
840.33	22653
840.467	22683
840.604	22607
840.742	23071
840.879	22599
841.016	22516
841.153	22474
841.29	22694
841.427	22660
841.564	22672
841.701	22607
841.838	22542
841.975	22527
842.112	22478
842.249	22478
842.385	22348
842.522	22649
842.659	22470
842.796	22344
842.933	22436
843.069	22337
843.206	22337
843.343	22542
843.479	22363
843.616	22424
843.752	22234
843.889	22185
844.025	22352
844.162	22147
844.298	22356
844.435	22112
844.571	22070
844.708	22082
844.844	22268
844.98	22272
845.117	22276
845.253	21994
845.389	21998
845.525	21918
845.661	22074
845.798	21899
845.934	21823
846.07	21766
846.206	21907
846.342	22013
846.478	21778
846.614	21747
846.75	21488
846.886	21595
847.022	21667
847.158	21644
847.294	21557
847.429	21599
847.565	21553
847.701	21831
847.837	21249
847.972	21245
848.108	21329
848.244	21447
848.379	21112
848.515	21150
848.65	21222
848.786	21146
848.921	21207
849.057	21370
849.192	21211
849.328	21230
849.463	21161
849.598	21154
849.734	21043
849.869	20998
850.004	21081
850.14	20967
850.275	20891
850.41	20796
850.545	20807
850.68	20906
850.815	20979
850.95	20910
851.085	21119
851.22	21043
851.355	20876
851.49	20853
851.625	20948
851.76	20876
851.895	20735
852.03	20750
852.165	20800
852.299	20914
852.434	20914
852.569	20910
852.703	20910
852.838	20990
852.973	21028
853.107	21055
853.242	20773
853.376	20697
853.511	20533
853.645	20750
853.78	20788
853.914	20731
854.048	20651
854.183	20674
854.317	20663
854.451	20868
854.585	20720
854.72	20693
854.854	20785
854.988	20602
855.122	20659
855.256	20651
855.39	20746
855.524	20705
855.658	20712
855.792	20815
855.926	20724
856.06	20697
856.194	20765
856.327	20792
856.461	20541
856.595	20602
856.729	20796
856.862	20811
856.996	20651
857.13	20731
857.263	20834
857.397	20807
857.53	20769
857.664	20819
857.797	20785
857.931	20727
858.064	20701
858.197	20708
858.331	20712
858.464	20727
858.597	20583
858.731	20667
858.864	20697
858.997	20594
859.13	20674
859.263	20758
859.396	20765
859.529	20629
859.662	20492
859.795	20667
859.928	20705
860.061	20765
860.194	20792
860.327	20727
860.46	20655
860.592	20746
860.725	20781
860.858	20697
860.99	20632
861.123	20495
861.256	20469
861.388	20758
861.521	21408
861.653	20621
861.786	20454
861.918	20431
862.05	20480
862.183	20667
862.315	20617
862.447	20804
862.58	20693
862.712	20438
862.844	20305
862.976	20499
863.108	20488
863.24	20804
863.372	20248
863.504	20438
863.636	20347
863.768	20446
863.9	20366
864.032	20187
864.164	20259
864.296	20450
864.428	20385
864.559	20484
864.691	20400
864.823	20278
864.954	20366
865.086	20282
865.217	20370
865.349	20240
865.48	20290
865.612	20244
865.743	20476
865.875	20343
866.006	20199
866.137	20324
866.269	20233
866.4	20244
866.531	20176
866.662	20214
866.793	20130
866.924	20092
867.055	20256
867.186	20164
867.317	20202
867.448	20027
867.579	20024
867.71	20046
867.841	20062
867.972	20195
868.103	20069
868.233	20248
868.364	20145
868.495	20259
868.625	20457
868.756	20552
868.886	20278
869.017	20442
869.147	20560
869.278	20507
869.408	20495
869.539	20412
869.669	20450
869.799	20415
869.929	20629
870.06	20530
870.19	20625
870.32	20579
870.45	20648
870.58	20724
870.71	20967
870.84	20902
870.97	20788
871.1	20845
871.23	21039
871.36	21062
871.489	20982
871.619	20986
871.749	20952
871.879	21142
872.008	21165
872.138	21005
872.267	21039
872.397	20887
872.526	20781
872.656	20845
872.785	20853
872.915	20986
873.044	21093
873.173	21013
873.303	21066
873.432	20967
873.561	21119
873.69	21077
873.819	20982
873.948	21062
874.077	21039
874.206	21066
874.335	21070
874.464	21211
874.593	21218
874.722	21237
874.851	21435
874.979	21222
875.108	21374
875.237	21332
875.365	21207
875.494	21150
875.623	21496
875.751	21310
875.88	21291
876.008	21401
876.136	21469
876.265	21622
876.393	21846
876.521	21724
876.65	21705
876.778	21686
876.906	21614
877.034	21648
877.162	21778
877.29	21568
877.418	21667
877.546	21644
877.674	21625
877.802	21629
877.93	21724
878.058	21587
878.185	21542
878.313	21694
878.441	21610
878.568	21629
878.696	21656
878.824	21656
878.951	21694
879.079	21838
879.206	21922
879.333	21736
879.461	21785
879.588	21686
879.715	21724
879.842	21918
879.97	21766
880.097	21450
880.224	21431
880.351	21561
880.478	21526
880.605	21397
880.732	21477
880.859	21652
880.986	21504
881.112	21568
881.239	21332
881.366	21367
881.493	21272
881.619	21138
881.746	21157
881.872	21116
881.999	21009
882.125	20971
882.252	21051
882.378	21062
882.505	21241
882.631	20963
882.757	20727
882.883	20906
883.01	20800
883.136	20693
883.262	20697
883.388	20621
883.514	20842
883.64	20902
883.766	20739
883.892	20640
884.018	20655
884.143	20735
884.269	20910
884.395	20499
884.52	20431
884.646	20442
884.772	20488
884.897	20301
885.023	20469
885.148	20594
885.274	20644
885.399	20621
885.524	20461
885.65	20514
885.775	20434
885.9	20400
886.025	20434
886.15	20454
886.275	20290
886.4	20324
886.525	20355
886.65	20431
886.775	20343
886.9	20484
887.025	20651
887.149	20389
887.274	20263
887.399	20218
887.523	20305
887.648	19936
887.773	20134
887.897	20298
888.021	20164
888.146	20176
888.27	20309
888.395	20294
888.519	20218
888.643	20214
888.767	20324
888.891	20172
889.015	19963
889.139	20062
889.263	19967
889.387	20054
889.511	20294
889.635	20122
889.759	20050
889.883	19917
890.006	20081
890.13	20100
890.254	19932
890.377	19913
890.501	19833
890.624	19575
890.748	19860
890.871	19674
890.995	19521
891.118	19575
891.241	19518
891.364	19487
891.488	19674
891.611	19571
891.734	19563
891.857	19594
891.98	19605
892.103	19597
892.226	19514
892.349	19525
892.471	19373
892.594	19464
892.717	19483
892.839	19483
892.962	19597
893.085	19483
893.207	19396
893.33	19453
893.452	19449
893.575	19540
893.697	19411
893.819	19563
893.941	19791
894.064	19616
894.186	19396
894.308	19400
894.43	19552
894.552	19700
894.674	19510
894.796	19430
894.918	19426
895.04	19350
895.161	19578
895.283	19518
895.405	19445
895.526	19480
895.648	19346
895.769	19529
895.891	19613
896.012	19552
896.134	19533
896.255	19616
896.376	19510
896.498	19540
896.619	19609
896.74	19540
896.861	19544
896.982	19993
897.103	20138
897.224	19715
897.345	19704
897.466	19696
897.587	19818
897.708	19871
897.828	19780
897.949	19696
898.07	19605
898.19	19693
898.311	19833
898.431	19666
898.552	19738
898.672	19852
898.792	19852
898.913	19708
899.033	19571
899.153	19525
899.273	19438
899.393	19495
899.513	19518
899.633	19544
899.753	19449
899.873	19259
899.993	19540
900.113	19430
900.232	19415
900.352	19506
900.472	19381
900.591	19217
900.711	19251
900.83	19228
900.95	19308
901.069	19358
901.189	19194
901.308	19050
901.427	18878
901.546	18909
901.665	18909
901.784	18776
901.904	18753
902.023	18547
902.141	18433
902.26	18342
902.379	18445
902.498	18289
902.617	18243
902.735	18342
902.854	18327
902.973	18239
903.091	17958
903.21	17992
903.328	18011
903.446	17904
903.565	17722
903.683	17920
903.801	17824
903.919	17756
904.038	17798
904.156	17687
904.274	17752
904.392	17649
904.51	17532
904.627	17642
904.745	17547
904.863	17657
904.981	17440
905.098	17334
905.216	17265
905.334	17280
905.451	17189
905.569	17220
905.686	17326
905.803	17208
905.921	17102
906.038	17178
906.155	17140
906.272	16915
906.389	17086
906.506	16866
906.623	16877
906.74	16778
906.857	16656
906.974	16801
907.091	16900
907.208	16915
907.324	16763
907.441	16759
907.557	16577
907.674	16535
907.79	16497
907.907	16516
908.023	16546
908.139	16504
908.256	16470
908.372	16455
908.488	16394
908.604	16318
908.72	16219
908.836	16295
908.952	16013
909.068	16211
909.184	16322
909.3	16200
909.415	16173
909.531	16188
909.647	16048
909.762	15873
909.878	15991
909.993	15892
910.108	15827
910.224	15964
910.339	15804
910.454	15903
910.57	15781
910.685	15599
910.8	15941
910.915	15907
911.03	15739
911.145	15591
911.259	15603
911.374	15530
911.489	15504
911.604	15389
911.718	15256
911.833	15370
911.947	15169
912.062	15119
912.176	15279
912.291	15287
912.405	15237
912.519	15370
912.633	15370
912.748	15169
912.862	15252
912.976	15074
913.09	15077
913.204	15157
913.318	15127
913.431	15058
913.545	15161
913.659	15085
913.772	14921
913.886	14872
914	14811
914.113	14861
914.226	15066
914.34	14925
914.453	14769
914.566	14883
914.68	14895
914.793	14800
914.906	14575
915.019	14552
915.132	14484
915.245	14571
915.358	14552
915.47	14488
915.583	14385
915.696	14488
915.809	14689
915.921	14629
916.034	14514
916.146	14328
916.259	14461
916.371	14511
916.483	14503
916.595	14381
916.708	14358
916.82	14309
916.932	14317
917.044	14309
917.156	14313
917.268	14252
917.38	14191
917.491	14172
917.603	14115
917.715	14191
917.826	14218
917.938	14164
918.049	14187
918.161	14202
918.272	14233
918.384	14210
918.495	14161
918.606	14050
918.717	13936
918.828	13894
918.939	13986
919.05	13868
919.161	13902
919.272	13753
919.383	13803
919.494	13967
919.604	14180
919.715	13921
919.826	13894
919.936	13845
920.047	13982
920.157	13883
920.267	14119
920.378	13906
920.488	13811
920.598	14073
920.708	14187
920.818	14024
920.928	14039
921.038	14210
921.148	14206
921.258	13803
921.368	13746
921.477	13727
921.587	13700
921.697	13472
921.806	13674
921.916	13529
922.025	13274
922.134	13278
922.244	13240
922.353	13335
922.462	13194
922.571	13088
922.68	12928
922.789	12935
922.898	12905
923.007	12856
923.116	12996
923.224	12970
923.333	12928
923.442	12814
923.55	12738
923.659	12798
923.767	12829
923.876	12795
923.984	12825
924.092	12677
924.201	12696
924.309	12677
924.417	12612
924.525	12642
924.633	12555
924.741	13411
924.849	12460
924.956	12544
925.064	12399
925.172	12330
925.279	12350
925.387	12467
925.494	12407
925.602	12471
925.709	12429
925.816	12308
925.924	12365
926.031	12426
926.138	12323
926.245	12376
926.352	12273
926.459	12334
926.566	12433
926.673	12346
926.779	12178
926.886	12057
926.993	12030
927.099	12015
927.206	11931
927.312	11999
927.419	12007
927.525	11954
927.631	11965
927.737	11920
927.843	11847
927.95	11729
928.056	11775
928.162	11794
928.267	11965
928.373	12353
928.479	11973
928.585	11657
928.69	11802
928.796	11794
928.901	11627
929.007	11425
929.112	11733
929.218	11554
929.323	11577
929.428	11589
929.533	11688
929.638	11410
929.743	11463
929.848	11570
929.953	11452
930.058	11349
930.163	11147
930.267	11277
930.372	11391
930.477	11185
930.581	11379
930.685	11372
930.79	11166
930.894	11113
930.998	11086
931.103	11178
931.207	10869
931.311	10790
931.415	10694
931.519	10531
931.623	10500
