Data from test_V78500241_1335.txt Node
Date: Fri Mar 25 15:19:09 CST 2022
User: usil
Spectrometer: V785-0024
Trigger mode: 0
Integration Time (sec): 4.000000E-1
Scans to average: 1
Nonlinearity correction enabled: false
Boxcar width: 0
Storing dark spectrum: false
XAxis mode: Wavelengths
Number of Pixels in Spectrum: 1024
>>>>>Begin Spectral Data<<<<<
801.071	28029
801.214	27899
801.356	27652
801.499	27785
801.641	27732
801.783	27591
801.926	27553
802.068	27587
802.211	27351
802.353	27427
802.496	27260
802.638	27272
802.78	27066
802.923	27119
803.065	27089
803.208	27195
803.35	27161
803.492	27264
803.635	27386
803.777	27093
803.919	27401
804.061	27816
804.204	27492
804.346	27329
804.488	27146
804.63	27306
804.773	27283
804.915	27424
805.057	27424
805.199	27279
805.341	27405
805.483	27515
805.626	27485
805.768	27412
805.91	27424
806.052	27606
806.194	27393
806.336	27545
806.478	27439
806.62	27492
806.762	27492
806.904	27854
807.046	27972
807.188	27956
807.33	27949
807.472	27918
807.614	27778
807.756	27857
807.898	27694
808.04	27724
808.182	27675
808.324	27861
808.465	27888
808.607	27876
808.749	28063
808.891	28150
809.033	28219
809.174	28318
809.316	28078
809.458	28116
809.6	28067
809.741	28261
809.883	28265
810.025	28459
810.166	28318
810.308	28344
810.45	28344
810.591	28489
810.733	28162
810.875	28147
811.016	27991
811.158	27987
811.299	28131
811.441	28265
811.582	28223
811.724	28169
811.865	28120
812.007	28105
812.148	28150
812.29	28097
812.431	28398
812.573	28462
812.714	28603
812.855	28653
812.997	28854
813.138	28911
813.279	28946
813.421	28721
813.562	28725
813.703	28497
813.845	28325
813.986	28097
814.127	27911
814.268	28017
814.41	27964
814.551	27755
814.692	27907
814.833	27816
814.974	27709
815.115	27899
815.256	27797
815.397	27705
815.539	27641
815.68	27622
815.821	27519
815.962	27682
816.103	27686
816.244	27469
816.385	27504
816.526	27534
816.666	27268
816.807	27325
816.948	27233
817.089	27294
817.23	27146
817.371	27199
817.512	27192
817.653	27222
817.793	27123
817.934	27028
818.075	27108
818.216	27180
818.356	27192
818.497	26998
818.638	26872
818.778	26902
818.919	26861
819.06	26887
819.2	26994
819.341	27116
819.481	27043
819.622	27226
819.762	27473
819.903	27431
820.043	27264
820.184	27252
820.324	27370
820.465	27344
820.605	27272
820.746	27332
820.886	27081
821.026	27203
821.167	27283
821.307	27401
821.447	27176
821.588	27150
821.728	26933
821.868	26887
822.008	26651
822.149	26541
822.289	26583
822.429	26324
822.569	26400
822.709	26221
822.849	26088
822.99	26294
823.13	26073
823.27	26069
823.41	25925
823.55	25818
823.69	25917
823.83	25902
823.97	25856
824.11	25803
824.25	25689
824.389	25769
824.529	25765
824.669	25776
824.809	25818
824.949	25883
825.089	25856
825.228	25818
825.368	25708
825.508	25609
825.648	25571
825.787	25738
825.927	25776
826.067	25510
826.206	25639
826.346	25658
826.485	25575
826.625	25472
826.765	25693
826.904	25567
827.044	25422
827.183	25430
827.323	25293
827.462	25460
827.601	25460
827.741	25274
827.88	25225
828.02	25202
828.159	25316
828.298	25308
828.437	25377
828.577	25202
828.716	25460
828.855	25145
828.994	25099
829.134	25091
829.273	24973
829.412	25004
829.551	24989
829.69	25046
829.829	25031
829.968	25164
830.107	25179
830.246	25053
830.385	24947
830.524	25076
830.663	24852
830.802	24726
830.941	24688
831.08	24669
831.219	24783
831.357	24692
831.496	24913
831.635	24753
831.774	24734
831.913	24486
832.051	24395
832.19	24403
832.329	24388
832.467	24369
832.606	24296
832.744	24277
832.883	24448
833.022	24330
833.16	24315
833.299	24304
833.437	24346
833.576	24486
833.714	24380
833.852	24410
833.991	24330
834.129	24448
834.267	24437
834.406	24346
834.544	24418
834.682	24350
834.821	24342
834.959	24475
835.097	24380
835.235	24353
835.373	24418
835.511	24342
835.65	24232
835.788	24243
835.926	24133
836.064	24041
836.202	24034
836.34	24273
836.478	24395
836.615	24136
836.753	24232
836.891	24277
837.029	24209
837.167	24114
837.305	24083
837.443	24117
837.58	24087
837.718	24110
837.856	24034
837.993	24011
838.131	24034
838.269	23882
838.406	23874
838.544	23893
838.681	23589
838.819	23684
838.956	23509
839.094	23600
839.231	23463
839.369	23866
839.506	23961
839.643	23699
839.781	23558
839.918	23524
840.055	23463
840.193	23486
840.33	23547
840.467	23376
840.604	23490
840.742	23646
840.879	23292
841.016	23292
841.153	23379
841.29	23600
841.427	23425
841.564	23577
841.701	23539
841.838	23440
841.975	23345
842.112	23356
842.249	23288
842.385	23193
842.522	23288
842.659	23216
842.796	23185
842.933	23170
843.069	23185
843.206	23064
843.343	23277
843.479	23299
843.616	23083
843.752	23044
843.889	22968
844.025	23060
844.162	22965
844.298	23048
844.435	22915
844.571	22889
844.708	22984
844.844	23079
844.98	23124
845.117	23132
845.253	22942
845.389	22843
845.525	22850
845.661	22828
845.798	22763
845.934	22748
846.07	22615
846.206	22744
846.342	22698
846.478	22664
846.614	22565
846.75	22436
846.886	22356
847.022	22394
847.158	22512
847.294	22417
847.429	22382
847.565	22341
847.701	22759
847.837	22158
847.972	22268
848.108	22181
848.244	22249
848.379	22105
848.515	22036
848.65	21880
848.786	22044
848.921	22078
849.057	22139
849.192	22162
849.328	22074
849.463	22070
849.598	22010
849.734	21873
849.869	21869
850.004	21930
850.14	21804
850.275	21831
850.41	21762
850.545	21667
850.68	21800
850.815	21812
850.95	21625
851.085	21873
851.22	21915
851.355	21819
851.49	21656
851.625	21774
851.76	21766
851.895	21701
852.03	21705
852.165	21770
852.299	21835
852.434	21789
852.569	21857
852.703	21694
852.838	21861
852.973	21842
853.107	21899
853.242	21686
853.376	21713
853.511	21614
853.645	21561
853.78	21876
853.914	21656
854.048	21603
854.183	21561
854.317	21557
854.451	21675
854.585	21622
854.72	21587
854.854	21660
854.988	21530
855.122	21519
855.256	21530
855.39	21595
855.524	21625
855.658	21652
855.792	21523
855.926	21595
856.06	21618
856.194	21705
856.327	21580
856.461	21526
856.595	21519
856.729	21488
856.862	21724
856.996	21580
857.13	21698
857.263	21709
857.397	21698
857.53	21538
857.664	21618
857.797	21667
857.931	21705
858.064	21614
858.197	21732
858.331	21610
858.464	21488
858.597	21431
858.731	21542
858.864	21572
858.997	21488
859.13	21614
859.263	21637
859.396	21675
859.529	21633
859.662	21397
859.795	21523
859.928	21572
860.061	21720
860.194	21759
860.327	21591
860.46	21694
860.592	21720
860.725	21641
860.858	21728
860.99	21648
861.123	21561
861.256	21519
861.388	21648
861.521	22230
861.653	21447
861.786	21412
861.918	21447
862.05	21469
862.183	21515
862.315	21599
862.447	21530
862.58	21496
862.712	21344
862.844	21302
862.976	21378
863.108	21359
863.24	21553
863.372	21291
863.504	21325
863.636	21329
863.768	21313
863.9	21462
864.032	21294
864.164	21336
864.296	21287
864.428	21355
864.559	21332
864.691	21397
864.823	21298
864.954	21272
865.086	21275
865.217	21184
865.349	21089
865.48	21169
865.612	21230
865.743	21237
865.875	21367
866.006	21195
866.137	21131
866.269	21256
866.4	21218
866.531	21131
866.662	21074
866.793	21154
866.924	21207
867.055	21131
867.186	21055
867.317	21195
867.448	21017
867.579	21020
867.71	21089
867.841	21150
867.972	21199
868.103	21039
868.233	21112
868.364	21100
868.495	21226
868.625	21329
868.756	21462
868.886	21287
869.017	21359
869.147	21408
869.278	21515
869.408	21462
869.539	21279
869.669	21382
869.799	21275
869.929	21473
870.06	21420
870.19	21625
870.32	21625
870.45	21686
870.58	21751
870.71	21838
870.84	21835
870.97	21736
871.1	21724
871.23	21926
871.36	21911
871.489	21903
871.619	21956
871.749	21972
871.879	21991
872.008	22048
872.138	21869
872.267	21953
872.397	21743
872.526	21778
872.656	21804
872.785	21838
872.915	21937
873.044	22044
873.173	21941
873.303	22048
873.432	22067
873.561	22112
873.69	21983
873.819	22006
873.948	22093
874.077	21937
874.206	21865
874.335	21964
874.464	22059
874.593	22120
874.722	22055
874.851	22291
874.979	22162
875.108	22169
875.237	22173
875.365	21998
875.494	22093
875.623	22185
875.751	22051
875.88	22185
876.008	22295
876.136	22535
876.265	22592
876.393	22710
876.521	22626
876.65	22489
876.778	22523
876.906	22615
877.034	22504
877.162	22577
877.29	22443
877.418	22691
877.546	22641
877.674	22653
877.802	22489
877.93	22367
878.058	22584
878.185	22417
878.313	22497
878.441	22405
878.568	22295
878.696	22474
878.824	22683
878.951	22577
879.079	22725
879.206	22790
879.333	22664
879.461	22519
879.588	22649
879.715	22736
879.842	22782
879.97	22698
880.097	22375
880.224	22348
880.351	22409
880.478	22314
880.605	22284
880.732	22363
880.859	22497
880.986	22386
881.112	22261
881.239	22310
881.366	22093
881.493	21991
881.619	21918
881.746	21915
881.872	21945
881.999	21869
882.125	21876
882.252	21979
882.378	21953
882.505	22032
882.631	21888
882.757	21641
882.883	21679
883.01	21648
883.136	21595
883.262	21386
883.388	21511
883.514	21747
883.64	21618
883.766	21504
883.892	21393
884.018	21348
884.143	21572
884.269	21671
884.395	21351
884.52	21302
884.646	21195
884.772	21108
884.897	21184
885.023	21332
885.148	21485
885.274	21386
885.399	21355
885.524	21116
885.65	21287
885.775	21340
885.9	21104
886.025	21336
886.15	21173
886.275	21108
886.4	21138
886.525	21344
886.65	21161
886.775	21028
886.9	21313
887.025	21393
887.149	21237
887.274	20994
887.399	21005
887.523	20975
887.648	20998
887.773	21009
887.897	21138
888.021	21089
888.146	20998
888.27	21112
888.395	21176
888.519	21077
888.643	21070
888.767	20975
888.891	20921
889.015	20804
889.139	20868
889.263	20781
889.387	20960
889.511	21055
889.635	20952
889.759	20773
889.883	20811
890.006	20891
890.13	20944
890.254	20712
890.377	20731
890.501	20549
890.624	20461
890.748	20438
890.871	20484
890.995	20393
891.118	20275
891.241	20324
891.364	20355
891.488	20549
891.611	20473
891.734	20427
891.857	20465
891.98	20400
892.103	20393
892.226	20450
892.349	20358
892.471	20172
892.594	20271
892.717	20320
892.839	20286
892.962	20248
893.085	20313
893.207	20221
893.33	20153
893.452	20256
893.575	20267
893.697	20172
893.819	20480
893.941	20358
894.064	20473
894.186	20214
894.308	20244
894.43	20446
894.552	20408
894.674	20313
894.796	20176
894.918	20434
895.04	20221
895.161	20393
895.283	20355
895.405	20305
895.526	20176
895.648	20400
895.769	20370
895.891	20313
896.012	20290
896.134	20351
896.255	20240
896.376	20202
896.498	20347
896.619	20385
896.74	20237
896.861	20233
896.982	20621
897.103	20777
897.224	20533
897.345	20377
897.466	20484
897.587	20560
897.708	20625
897.828	20454
897.949	20518
898.07	20412
898.19	20476
898.311	20648
898.431	20514
898.552	20385
898.672	20518
898.792	20469
898.913	20492
899.033	20423
899.153	20221
899.273	20157
899.393	20298
899.513	20221
899.633	20298
899.753	20339
899.873	20233
899.993	20237
900.113	20210
900.232	20252
900.352	20263
900.472	20039
900.591	19967
900.711	19932
900.83	19967
900.95	20157
901.069	20138
901.189	19864
901.308	19639
901.427	19601
901.546	19670
901.665	19655
901.784	19693
901.904	19544
902.023	19396
902.141	19209
902.26	19088
902.379	19301
902.498	19168
902.617	19023
902.735	19126
902.854	19034
902.973	18993
903.091	18707
903.21	18829
903.328	18806
903.446	18661
903.565	18555
903.683	18601
903.801	18547
903.919	18608
904.038	18494
904.156	18399
904.274	18441
904.392	18330
904.51	18289
904.627	18357
904.745	18296
904.863	18452
904.981	18129
905.098	18053
905.216	17965
905.334	18007
905.451	18102
905.569	18076
905.686	18098
905.803	18102
905.921	17756
906.038	17817
906.155	17798
906.272	17714
906.389	17786
906.506	17547
906.623	17577
906.74	17554
906.857	17410
906.974	17406
907.091	17551
907.208	17699
907.324	17566
907.441	17452
907.557	17341
907.674	17277
907.79	17315
907.907	17318
908.023	17353
908.139	17189
908.256	17197
908.372	17216
908.488	17094
908.604	17048
908.72	16908
908.836	17079
908.952	16942
909.068	17025
909.184	17090
909.3	16934
909.415	16976
909.531	16949
909.647	16771
909.762	16622
909.878	16786
909.993	16634
910.108	16672
910.224	16634
910.339	16641
910.454	16573
910.57	16523
910.685	16485
910.8	16679
910.915	16584
911.03	16596
911.145	16382
911.259	16371
911.374	16367
911.489	16215
911.604	16169
911.718	16090
911.833	15964
911.947	15930
912.062	15739
912.176	15983
912.291	16040
912.405	16017
912.519	16204
912.633	16150
912.748	16120
912.862	15983
912.976	15850
913.09	15720
913.204	15728
913.318	15903
913.431	15972
913.545	15960
913.659	15956
913.772	15778
913.886	15743
914	15720
914.113	15705
914.226	15778
914.34	15736
914.453	15576
914.566	15660
914.68	15542
914.793	15435
914.906	15367
915.019	15275
915.132	15184
915.245	15173
915.358	15256
915.47	15294
915.583	15218
915.696	15283
915.809	15302
915.921	15424
916.034	15294
916.146	15184
916.259	15142
916.371	15260
916.483	15214
916.595	15024
916.708	15112
916.82	15066
916.932	15039
917.044	15009
917.156	14967
917.268	14891
917.38	14925
917.491	14857
917.603	14929
917.715	15036
917.826	14998
917.938	14765
918.049	14705
918.161	14777
918.272	14986
918.384	15005
918.495	14800
918.606	14602
918.717	14594
918.828	14617
918.939	14648
919.05	14492
919.161	14644
919.272	14438
919.383	14571
919.494	14674
919.604	14781
919.715	14663
919.826	14598
919.936	14492
920.047	14743
920.157	14587
920.267	14743
920.378	14636
920.488	14636
920.598	14765
920.708	14902
920.818	14777
920.928	14689
921.038	14887
921.148	14880
921.258	14621
921.368	14541
921.477	14385
921.587	14324
921.697	14259
921.806	14400
921.916	14256
922.025	14062
922.134	14005
922.244	13864
922.353	13940
922.462	13890
922.571	13788
922.68	13693
922.789	13597
922.898	13529
923.007	13499
923.116	13700
923.224	13636
923.333	13514
923.442	13491
923.55	13460
923.659	13438
923.767	13537
923.876	13301
923.984	13445
924.092	13358
924.201	13453
924.309	13396
924.417	13362
924.525	13152
924.633	13335
924.741	14218
924.849	13145
924.956	13259
925.064	12996
925.172	12954
925.279	13065
925.387	13023
925.494	13027
925.602	13232
925.709	13088
925.816	12916
925.924	12977
926.031	13042
926.138	12935
926.245	13057
926.352	12932
926.459	13088
926.566	13004
926.673	12916
926.779	12863
926.886	12772
926.993	12582
927.099	12612
927.206	12528
927.312	12722
927.419	12620
927.525	12521
927.631	12646
927.737	12525
927.843	12517
927.95	12338
928.056	12456
928.162	12426
928.267	12418
928.373	13023
928.479	12509
928.585	12201
928.69	12338
928.796	12414
928.901	12209
929.007	12121
929.112	12289
929.218	12155
929.323	12213
929.428	12079
929.533	12296
929.638	12038
929.743	12068
929.848	12102
929.953	12015
930.058	11946
930.163	11885
930.267	11889
930.372	11927
930.477	11855
930.581	11980
930.685	11885
930.79	11699
930.894	11714
930.998	11718
931.103	11843
931.207	11512
931.311	11410
931.415	11242
931.519	11041
931.623	11090
