Data from test_V78500241_2457.txt Node
Date: Fri Mar 25 15:26:58 CST 2022
User: usil
Spectrometer: V785-0024
Trigger mode: 0
Integration Time (sec): 4.000000E-1
Scans to average: 1
Nonlinearity correction enabled: false
Boxcar width: 0
Storing dark spectrum: false
XAxis mode: Wavelengths
Number of Pixels in Spectrum: 1024
>>>>>Begin Spectral Data<<<<<
801.071	26975
801.214	26918
801.356	26727
801.499	26564
801.641	26545
801.783	26492
801.926	26701
802.068	26492
802.211	26385
802.353	26286
802.496	26221
802.638	26161
802.78	26275
802.923	25940
803.065	26065
803.208	26077
803.35	26195
803.492	26263
803.635	26503
803.777	26035
803.919	26355
804.061	26552
804.204	26259
804.346	26221
804.488	26324
804.63	26328
804.773	26233
804.915	26317
805.057	26259
805.199	26172
805.341	26355
805.483	26366
805.626	26450
805.768	26434
805.91	26343
806.052	26450
806.194	26355
806.336	26537
806.478	26412
806.62	26351
806.762	26473
806.904	26636
807.046	26960
807.188	26857
807.33	26781
807.472	26853
807.614	26708
807.756	26883
807.898	26777
808.04	26568
808.182	26556
808.324	26594
808.465	26621
808.607	26792
808.749	27142
808.891	26994
809.033	27176
809.174	26925
809.316	26933
809.458	26944
809.6	26918
809.741	26933
809.883	27176
810.025	27226
810.166	27135
810.308	27161
810.45	27199
810.591	27173
810.733	26925
810.875	26986
811.016	26804
811.158	26861
811.299	27001
811.441	27142
811.582	26990
811.724	26872
811.865	26880
812.007	26963
812.148	26773
812.29	26891
812.431	27138
812.573	27176
812.714	27321
812.855	27401
812.997	27492
813.138	27698
813.279	27500
813.421	27420
813.562	27363
813.703	27287
813.845	27142
813.986	26845
814.127	26773
814.268	26682
814.41	26617
814.551	26488
814.692	26579
814.833	26587
814.974	26549
815.115	26442
815.256	26469
815.397	26587
815.539	26476
815.68	26389
815.821	26385
815.962	26404
816.103	26320
816.244	26252
816.385	26077
816.526	26298
816.666	25868
816.807	25868
816.948	25906
817.089	25902
817.23	26005
817.371	25803
817.512	25947
817.653	25742
817.793	25830
817.934	25928
818.075	25746
818.216	25978
818.356	25879
818.497	25761
818.638	25582
818.778	25681
818.919	25639
819.06	25776
819.2	25753
819.341	25898
819.481	25860
819.622	25902
819.762	26183
819.903	26126
820.043	26016
820.184	25982
820.324	25947
820.465	26039
820.605	25959
820.746	25974
820.886	25723
821.026	25959
821.167	25864
821.307	26020
821.447	26020
821.588	25693
821.728	25708
821.868	25639
822.008	25339
822.149	25388
822.289	25343
822.429	25091
822.569	25008
822.709	25069
822.849	24951
822.99	24928
823.13	24909
823.27	24753
823.41	24760
823.55	24620
823.69	24749
823.83	24707
823.97	24448
824.11	24448
824.25	24494
824.389	24540
824.529	24540
824.669	24445
824.809	24719
824.949	24658
825.089	24441
825.228	24467
825.368	24376
825.508	24334
825.648	24334
825.787	24216
825.927	24369
826.067	24376
826.206	24445
826.346	24334
826.485	24346
826.625	24353
826.765	24338
826.904	24384
827.044	24045
827.183	24091
827.323	24018
827.462	24091
827.601	24190
827.741	24038
827.88	24136
828.02	23878
828.159	24026
828.298	23999
828.437	24068
828.577	23969
828.716	24064
828.855	23882
828.994	23657
829.134	23824
829.273	23779
829.412	23733
829.551	23600
829.69	23805
829.829	23767
829.968	23901
830.107	23832
830.246	23775
830.385	23684
830.524	23760
830.663	23543
830.802	23459
830.941	23406
831.08	23318
831.219	23501
831.357	23376
831.496	23581
831.635	23440
831.774	23322
831.913	23056
832.051	23170
832.19	23083
832.329	23174
832.467	23109
832.606	22999
832.744	23018
832.883	23014
833.022	22984
833.16	22987
833.299	23075
833.437	23003
833.576	23193
833.714	22957
833.852	23128
833.991	23277
834.129	23185
834.267	23067
834.406	23018
834.544	23147
834.682	23037
834.821	22946
834.959	23303
835.097	23025
835.235	23181
835.373	23105
835.511	23071
835.65	22965
835.788	23048
835.926	22828
836.064	22820
836.202	22828
836.34	22911
836.478	22980
836.615	22930
836.753	22995
836.891	22972
837.029	22999
837.167	22961
837.305	22934
837.443	22755
837.58	22847
837.718	22923
837.856	22858
837.993	22675
838.131	22892
838.269	22713
838.406	22691
838.544	22656
838.681	22367
838.819	22523
838.956	22314
839.094	22188
839.231	22280
839.369	22557
839.506	22622
839.643	22527
839.781	22120
839.918	22226
840.055	22367
840.193	22265
840.33	22223
840.467	22230
840.604	22337
840.742	22531
840.879	21953
841.016	22150
841.153	22044
841.29	22253
841.427	22105
841.564	22295
841.701	22211
841.838	22158
841.975	22105
842.112	22185
842.249	22002
842.385	21941
842.522	22105
842.659	22032
842.796	21895
842.933	21941
843.069	21991
843.206	21835
843.343	22086
843.479	21998
843.616	21998
843.752	21812
843.889	21766
844.025	21865
844.162	21739
844.298	21682
844.435	21751
844.571	21603
844.708	21724
844.844	21956
844.98	21895
845.117	21857
845.253	21804
845.389	21717
845.525	21675
845.661	21622
845.798	21454
845.934	21530
846.07	21431
846.206	21542
846.342	21701
846.478	21401
846.614	21272
846.75	21188
846.886	21252
847.022	21245
847.158	21260
847.294	21192
847.429	21192
847.565	21226
847.701	21401
847.837	20952
847.972	20986
848.108	21066
848.244	20960
848.379	20887
848.515	20735
848.65	20731
848.786	20887
848.921	20781
849.057	20963
849.192	20933
849.328	20864
849.463	20785
849.598	20705
849.734	20739
849.869	20731
850.004	20575
850.14	20674
850.275	20495
850.41	20469
850.545	20587
850.68	20503
850.815	20670
850.95	20629
851.085	20750
851.22	20606
851.355	20587
851.49	20629
851.625	20476
851.76	20682
851.895	20423
852.03	20488
852.165	20507
852.299	20579
852.434	20678
852.569	20659
852.703	20640
852.838	20823
852.973	20731
853.107	20712
853.242	20522
853.376	20480
853.511	20313
853.645	20263
853.78	20473
853.914	20465
854.048	20385
854.183	20336
854.317	20507
854.451	20606
854.585	20408
854.72	20347
854.854	20522
854.988	20336
855.122	20526
855.256	20320
855.39	20332
855.524	20522
855.658	20454
855.792	20533
855.926	20450
856.06	20492
856.194	20511
856.327	20381
856.461	20393
856.595	20370
856.729	20533
856.862	20518
856.996	20461
857.13	20434
857.263	20507
857.397	20469
857.53	20457
857.664	20450
857.797	20511
857.931	20507
858.064	20545
858.197	20701
858.331	20305
858.464	20415
858.597	20286
858.731	20381
858.864	20381
858.997	20457
859.13	20552
859.263	20454
859.396	20518
859.529	20404
859.662	20381
859.795	20404
859.928	20427
860.061	20606
860.194	20602
860.327	20438
860.46	20450
860.592	20625
860.725	20583
860.858	20499
860.99	20431
861.123	20286
861.256	20396
861.388	20419
861.521	20971
861.653	20282
861.786	20195
861.918	20278
862.05	20275
862.183	20317
862.315	20305
862.447	20415
862.58	20495
862.712	20237
862.844	20073
862.976	20161
863.108	20164
863.24	20667
863.372	20111
863.504	20126
863.636	20092
863.768	20271
863.9	20168
864.032	20062
864.164	20180
864.296	20088
864.428	20233
864.559	20206
864.691	20195
864.823	20183
864.954	20164
865.086	20096
865.217	19970
865.349	20096
865.48	19936
865.612	20073
865.743	20130
865.875	20081
866.006	20054
866.137	20073
866.269	20062
866.4	19967
866.531	20122
866.662	20046
866.793	20027
866.924	20107
867.055	19955
867.186	19997
867.317	19989
867.448	19917
867.579	20043
867.71	19883
867.841	19917
867.972	19978
868.103	19947
868.233	19974
868.364	19974
868.495	20157
868.625	20229
868.756	20324
868.886	20199
869.017	20164
869.147	20275
869.278	20343
869.408	20161
869.539	20176
869.669	20351
869.799	20324
869.929	20240
870.06	20298
870.19	20583
870.32	20480
870.45	20530
870.58	20541
870.71	20750
870.84	20735
870.97	20693
871.1	20503
871.23	20845
871.36	20788
871.489	20678
871.619	20682
871.749	20765
871.879	20906
872.008	21009
872.138	20823
872.267	20743
872.397	20769
872.526	20701
872.656	20636
872.785	20716
872.915	20918
873.044	21024
873.173	20864
873.303	20937
873.432	20811
873.561	21024
873.69	20887
873.819	20883
873.948	20902
874.077	20887
874.206	20887
874.335	20925
874.464	21123
874.593	21089
874.722	21074
874.851	21009
874.979	21119
875.108	21207
875.237	21070
875.365	21028
875.494	20982
875.623	21218
875.751	20902
875.88	21123
876.008	21157
876.136	21302
876.265	21534
876.393	21660
876.521	21481
876.65	21656
876.778	21603
876.906	21504
877.034	21507
877.162	21447
877.29	21431
877.418	21511
877.546	21603
877.674	21511
877.802	21428
877.93	21351
878.058	21507
878.185	21389
878.313	21412
878.441	21526
878.568	21279
878.696	21428
878.824	21439
878.951	21557
879.079	21641
879.206	21778
879.333	21652
879.461	21393
879.588	21595
879.715	21671
879.842	21903
879.97	21652
880.097	21359
880.224	21279
880.351	21214
880.478	21272
880.605	21302
880.732	21302
880.859	21526
880.986	21344
881.112	21294
881.239	21104
881.366	21062
881.493	20967
881.619	20842
881.746	20914
881.872	20876
881.999	20823
882.125	20876
882.252	20826
882.378	20876
882.505	20842
882.631	20880
882.757	20659
882.883	20739
883.01	20689
883.136	20549
883.262	20541
883.388	20537
883.514	20568
883.64	20541
883.766	20511
883.892	20271
884.018	20461
884.143	20541
884.269	20568
884.395	20263
884.52	20248
884.646	20256
884.772	20225
884.897	20157
885.023	20122
885.148	20507
885.274	20408
885.399	20328
885.524	20214
885.65	20183
885.775	20336
885.9	20111
886.025	20446
886.15	20275
886.275	20142
886.4	20065
886.525	20176
886.65	20256
886.775	20119
886.9	20393
887.025	20396
887.149	20282
887.274	20092
887.399	20062
887.523	20005
887.648	19947
887.773	19898
887.897	20012
888.021	20145
888.146	19913
888.27	20130
888.395	20027
888.519	20149
888.643	20073
888.767	20062
888.891	19906
889.015	19841
889.139	19841
889.263	19841
889.387	19909
889.511	19944
889.635	19753
889.759	19803
889.883	19879
890.006	19917
890.13	19932
890.254	19750
890.377	19723
890.501	19613
890.624	19578
890.748	19715
890.871	19419
890.995	19304
891.118	19308
891.241	19392
891.364	19339
891.488	19419
891.611	19472
891.734	19400
891.857	19354
891.98	19502
892.103	19407
892.226	19396
892.349	19384
892.471	19103
892.594	19297
892.717	19343
892.839	19304
892.962	19407
893.085	19358
893.207	19354
893.33	19194
893.452	19282
893.575	19457
893.697	19133
893.819	19445
893.941	19426
894.064	19483
894.186	19274
894.308	19232
894.43	19343
894.552	19365
894.674	19480
894.796	19259
894.918	19350
895.04	19308
895.161	19502
895.283	19316
895.405	19358
895.526	19335
895.648	19384
895.769	19354
895.891	19377
896.012	19441
896.134	19285
896.255	19419
896.376	19278
896.498	19297
896.619	19373
896.74	19251
896.861	19354
896.982	19582
897.103	19932
897.224	19647
897.345	19571
897.466	19495
897.587	19601
897.708	19605
897.828	19590
897.949	19616
898.07	19453
898.19	19426
898.311	19780
898.431	19495
898.552	19586
898.672	19693
898.792	19525
898.913	19521
899.033	19396
899.153	19365
899.273	19263
899.393	19308
899.513	19403
899.633	19301
899.753	19411
899.873	19221
899.993	19346
900.113	19377
900.232	19259
900.352	19304
900.472	19190
900.591	19027
900.711	19255
900.83	19031
900.95	19110
901.069	19198
901.189	18973
901.308	18848
901.427	18738
901.546	18681
901.665	18814
901.784	18688
901.904	18582
902.023	18471
902.141	18296
902.26	18315
902.379	18258
902.498	18213
902.617	18243
902.735	18296
902.854	18174
902.973	18148
903.091	17988
903.21	17923
903.328	17927
903.446	17882
903.565	17707
903.683	17760
903.801	17585
903.919	17661
904.038	17691
904.156	17490
904.274	17611
904.392	17490
904.51	17516
904.627	17421
904.745	17581
904.863	17585
904.981	17322
905.098	17185
905.216	17265
905.334	17212
905.451	17307
905.569	17079
905.686	17216
905.803	17193
905.921	16987
906.038	16995
906.155	17006
906.272	16816
906.389	16839
906.506	16694
906.623	16717
906.74	16698
906.857	16584
906.974	16596
907.091	16767
907.208	16828
907.324	16702
907.441	16569
907.557	16470
907.674	16523
907.79	16428
907.907	16500
908.023	16538
908.139	16497
908.256	16390
908.372	16371
908.488	16268
908.604	16154
908.72	16116
908.836	16082
908.952	16219
909.068	16135
909.184	16253
909.3	16299
909.415	16154
909.531	16154
909.647	15987
909.762	15793
909.878	15880
909.993	15907
910.108	15911
910.224	15812
910.339	15793
910.454	15739
910.57	15675
910.685	15690
910.8	15915
910.915	15819
911.03	15747
911.145	15526
911.259	15492
911.374	15553
911.489	15389
911.604	15294
911.718	15195
911.833	15214
911.947	15116
912.062	15150
912.176	15386
912.291	15226
912.405	15283
912.519	15481
912.633	15386
912.748	15359
912.862	15154
912.976	15119
913.09	14941
913.204	15074
913.318	15058
913.431	15188
913.545	14994
913.659	15195
913.772	14990
913.886	14910
914	14921
914.113	15051
914.226	15009
914.34	14899
914.453	14777
914.566	14804
914.68	14731
914.793	14739
914.906	14602
915.019	14415
915.132	14374
915.245	14480
915.358	14434
915.47	14552
915.583	14564
915.696	14480
915.809	14648
915.921	14697
916.034	14396
916.146	14396
916.259	14419
916.371	14526
916.483	14339
916.595	14290
916.708	14358
916.82	14355
916.932	14317
917.044	14412
917.156	14221
917.268	14221
917.38	14164
917.491	14111
917.603	14119
917.715	14294
917.826	14172
917.938	14138
918.049	14115
918.161	14092
918.272	14351
918.384	14183
918.495	14164
918.606	14043
918.717	13909
918.828	13997
918.939	13925
919.05	13849
919.161	13921
919.272	13746
919.383	13696
919.494	14024
919.604	14123
919.715	14031
919.826	13807
919.936	13864
920.047	13967
920.157	13989
920.267	14084
920.378	13830
920.488	13807
920.598	14100
920.708	14252
920.818	14035
920.928	14103
921.038	14225
921.148	14180
921.258	13928
921.368	13765
921.477	13727
921.587	13616
921.697	13540
921.806	13700
921.916	13559
922.025	13396
922.134	13274
922.244	13320
922.353	13358
922.462	13206
922.571	13076
922.68	12962
922.789	12943
922.898	12954
923.007	12909
923.116	13061
923.224	13004
923.333	12958
923.442	12890
923.55	12817
923.659	12833
923.767	12833
923.876	12745
923.984	12875
924.092	12707
924.201	12753
924.309	12730
924.417	12798
924.525	12662
924.633	12814
924.741	13605
924.849	12532
924.956	12551
925.064	12547
925.172	12273
925.279	12433
925.387	12407
925.494	12391
925.602	12467
925.709	12475
925.816	12277
925.924	12369
926.031	12445
926.138	12433
926.245	12380
926.352	12262
926.459	12376
926.566	12441
926.673	12201
926.779	12155
926.886	12136
926.993	12038
927.099	11999
927.206	11980
927.312	11996
927.419	11988
927.525	11973
927.631	12098
927.737	11878
927.843	11824
927.95	11646
928.056	11798
928.162	11767
928.267	11851
928.373	12490
928.479	11935
928.585	11707
928.69	11798
928.796	11855
928.901	11703
929.007	11649
929.112	11703
929.218	11634
929.323	11585
929.428	11627
929.533	11615
929.638	11505
929.743	11471
929.848	11520
929.953	11448
930.058	11535
930.163	11284
930.267	11345
930.372	11417
930.477	11204
930.581	11482
930.685	11353
930.79	11140
930.894	11197
930.998	11086
931.103	11231
931.207	10915
931.311	10839
931.415	10767
931.519	10637
931.623	10588
