Data from test_V78500241_2069.txt Node
Date: Fri Mar 25 15:24:15 CST 2022
User: usil
Spectrometer: V785-0024
Trigger mode: 0
Integration Time (sec): 4.000000E-1
Scans to average: 1
Nonlinearity correction enabled: false
Boxcar width: 0
Storing dark spectrum: false
XAxis mode: Wavelengths
Number of Pixels in Spectrum: 1024
>>>>>Begin Spectral Data<<<<<
801.071	27816
801.214	27747
801.356	27519
801.499	27420
801.641	27218
801.783	27272
801.926	27431
802.068	27378
802.211	27405
802.353	27123
802.496	27089
802.638	26944
802.78	26933
802.923	26895
803.065	26876
803.208	26967
803.35	26918
803.492	27226
803.635	27195
803.777	27123
803.919	27119
804.061	27538
804.204	27233
804.346	27062
804.488	27085
804.63	27150
804.773	26979
804.915	27142
805.057	27386
805.199	27211
805.341	27272
805.483	27355
805.626	27275
805.768	27382
805.91	27340
806.052	27279
806.194	27184
806.336	27416
806.478	27321
806.62	27245
806.762	27374
806.904	27656
807.046	27857
807.188	27709
807.33	27747
807.472	27937
807.614	27504
807.756	27663
807.898	27553
808.04	27564
808.182	27595
808.324	27553
808.465	27701
808.607	27800
808.749	27960
808.891	28055
809.033	28124
809.174	27937
809.316	27968
809.458	27937
809.6	27865
809.741	27918
809.883	28082
810.025	28124
810.166	28120
810.308	28128
810.45	28112
810.591	28032
810.733	28006
810.875	27880
811.016	27880
811.158	27751
811.299	27884
811.441	27991
811.582	28120
811.724	27869
811.865	27934
812.007	27816
812.148	27854
812.29	27964
812.431	28124
812.573	28257
812.714	28265
812.855	28580
812.997	28519
813.138	28725
813.279	28565
813.421	28409
813.562	28409
813.703	28291
813.845	28105
813.986	27736
814.127	27774
814.268	27523
814.41	27603
814.551	27386
814.692	27656
814.833	27492
814.974	27500
815.115	27545
815.256	27477
815.397	27420
815.539	27447
815.68	27401
815.821	27283
815.962	27344
816.103	27336
816.244	27393
816.385	27138
816.526	27207
816.666	27001
816.807	26777
816.948	26792
817.089	26979
817.23	27013
817.371	26899
817.512	26807
817.653	26906
817.793	26864
817.934	26800
818.075	26921
818.216	26788
818.356	26838
818.497	26819
818.638	26568
818.778	26568
818.919	26602
819.06	26705
819.2	26788
819.341	26948
819.481	26921
819.622	26986
819.762	27294
819.903	27116
820.043	27062
820.184	27058
820.324	27051
820.465	27116
820.605	26979
820.746	26994
820.886	26659
821.026	27036
821.167	26971
821.307	27074
821.447	26895
821.588	26731
821.728	26731
821.868	26598
822.008	26332
822.149	26415
822.289	26404
822.429	26157
822.569	25940
822.709	26069
822.849	25750
822.99	25875
823.13	25902
823.27	25784
823.41	25693
823.55	25468
823.69	25852
823.83	25757
823.97	25491
824.11	25499
824.25	25533
824.389	25445
824.529	25491
824.669	25525
824.809	25613
824.949	25723
825.089	25582
825.228	25548
825.368	25438
825.508	25365
825.648	25419
825.787	25327
825.927	25605
826.067	25441
826.206	25388
826.346	25354
826.485	25453
826.625	25381
826.765	25571
826.904	25403
827.044	25228
827.183	25156
827.323	25160
827.462	25076
827.601	25133
827.741	25129
827.88	25168
828.02	24947
828.159	25122
828.298	25053
828.437	25164
828.577	25042
828.716	25179
828.855	24989
828.994	24829
829.134	24833
829.273	24753
829.412	24764
829.551	24768
829.69	24791
829.829	24757
829.968	24924
830.107	24894
830.246	24779
830.385	24722
830.524	24757
830.663	24658
830.802	24490
830.941	24441
831.08	24357
831.219	24471
831.357	24464
831.496	24688
831.635	24467
831.774	24388
831.913	24285
832.051	24159
832.19	24235
832.329	24102
832.467	24152
832.606	24091
832.744	24076
832.883	24194
833.022	24041
833.16	24224
833.299	24045
833.437	24064
833.576	24091
833.714	24197
833.852	24155
833.991	24232
834.129	24277
834.267	24338
834.406	24167
834.544	24270
834.682	24003
834.821	24121
834.959	24201
835.097	24095
835.235	24194
835.373	24091
835.511	24041
835.65	23984
835.788	24041
835.926	23779
836.064	23745
836.202	23752
836.34	24007
836.478	24053
836.615	23866
836.753	23836
836.891	23965
837.029	23893
837.167	24053
837.305	23843
837.443	23821
837.58	23836
837.718	23946
837.856	23764
837.993	23714
838.131	23889
838.269	23619
838.406	23733
838.544	23592
838.681	23417
838.819	23467
838.956	23269
839.094	23246
839.231	23402
839.369	23535
839.506	23707
839.643	23539
839.781	23254
839.918	23326
840.055	23288
840.193	23147
840.33	23204
840.467	23360
840.604	23174
840.742	23425
840.879	23041
841.016	23071
841.153	23064
841.29	23246
841.427	23197
841.564	23166
841.701	23235
841.838	23086
841.975	23147
842.112	23132
842.249	22991
842.385	22877
842.522	23162
842.659	22984
842.796	22919
842.933	22858
843.069	22930
843.206	22869
843.343	22976
843.479	22881
843.616	22984
843.752	22744
843.889	22748
844.025	22824
844.162	22691
844.298	22930
844.435	22675
844.571	22679
844.708	22759
844.844	23029
844.98	22805
845.117	22793
845.253	22580
845.389	22645
845.525	22584
845.661	22531
845.798	22459
845.934	22428
846.07	22432
846.206	22497
846.342	22588
846.478	22519
846.614	22101
846.75	22226
846.886	22219
847.022	22204
847.158	22219
847.294	22325
847.429	22211
847.565	22246
847.701	22413
847.837	21865
847.972	21934
848.108	21930
848.244	21953
848.379	21903
848.515	21709
848.65	21808
848.786	21698
848.921	21865
849.057	21861
849.192	21895
849.328	21778
849.463	21686
849.598	21728
849.734	21778
849.869	21679
850.004	21488
850.14	21424
850.275	21682
850.41	21389
850.545	21466
850.68	21488
850.815	21473
850.95	21504
851.085	21732
851.22	21576
851.355	21545
851.49	21564
851.625	21420
851.76	21466
851.895	21587
852.03	21443
852.165	21583
852.299	21580
852.434	21705
852.569	21500
852.703	21561
852.838	21663
852.973	21526
853.107	21576
853.242	21469
853.376	21462
853.511	21321
853.645	21313
853.78	21462
853.914	21405
854.048	21389
854.183	21405
854.317	21321
854.451	21583
854.585	21519
854.72	21310
854.854	21428
854.988	21268
855.122	21408
855.256	21195
855.39	21428
855.524	21405
855.658	21534
855.792	21431
855.926	21393
856.06	21279
856.194	21412
856.327	21306
856.461	21321
856.595	21249
856.729	21374
856.862	21515
856.996	21370
857.13	21325
857.263	21496
857.397	21450
857.53	21294
857.664	21359
857.797	21428
857.931	21435
858.064	21386
858.197	21511
858.331	21363
858.464	21363
858.597	21222
858.731	21386
858.864	21348
858.997	21389
859.13	21466
859.263	21340
859.396	21351
859.529	21424
859.662	21359
859.795	21336
859.928	21321
860.061	21389
860.194	21492
860.327	21447
860.46	21313
860.592	21439
860.725	21481
860.858	21553
860.99	21378
861.123	21264
861.256	21332
861.388	21329
861.521	21953
861.653	21233
861.786	21081
861.918	21043
862.05	21241
862.183	21389
862.315	21329
862.447	21397
862.58	21321
862.712	21074
862.844	21089
862.976	21138
863.108	21055
863.24	21370
863.372	20925
863.504	21043
863.636	20914
863.768	21123
863.9	21096
864.032	21108
864.164	20982
864.296	21096
864.428	21207
864.559	20921
864.691	21096
864.823	21070
864.954	21043
865.086	21085
865.217	20994
865.349	20823
865.48	20929
865.612	20971
865.743	21173
865.875	20967
866.006	20910
866.137	20956
866.269	20925
866.4	20986
866.531	20834
866.662	20823
866.793	20838
866.924	20990
867.055	20937
867.186	20895
867.317	20857
867.448	20807
867.579	20902
867.71	20743
867.841	20891
867.972	20868
868.103	20819
868.233	20872
868.364	20921
868.495	20979
868.625	21112
868.756	21154
868.886	20956
869.017	21066
869.147	21211
869.278	21283
869.408	21161
869.539	21085
869.669	21211
869.799	21188
869.929	21154
870.06	21180
870.19	21389
870.32	21405
870.45	21466
870.58	21591
870.71	21648
870.84	21610
870.97	21625
871.1	21587
871.23	21663
871.36	21808
871.489	21625
871.619	21690
871.749	21587
871.879	21770
872.008	21960
872.138	21728
872.267	21641
872.397	21538
872.526	21431
872.656	21717
872.785	21530
872.915	21755
873.044	21846
873.173	21755
873.303	21717
873.432	21823
873.561	21770
873.69	21713
873.819	21743
873.948	21690
874.077	21648
874.206	21808
874.335	21899
874.464	21819
874.593	22006
874.722	22006
874.851	22002
874.979	21975
875.108	21956
875.237	21869
875.365	21831
875.494	21979
875.623	22029
875.751	21949
875.88	21823
876.008	21998
876.136	22109
876.265	22299
876.393	22474
876.521	22466
876.65	22421
876.778	22234
876.906	22356
877.034	22341
877.162	22451
877.29	22287
877.418	22394
877.546	22356
877.674	22246
877.802	22128
877.93	22219
878.058	22371
878.185	22272
878.313	22242
878.441	22299
878.568	21991
878.696	22261
878.824	22329
878.951	22405
879.079	22508
879.206	22622
879.333	22402
879.461	22379
879.588	22516
879.715	22459
879.842	22607
879.97	22249
880.097	22188
880.224	22093
880.351	22253
880.478	22169
880.605	22181
880.732	22078
880.859	22375
880.986	22112
881.112	22150
881.239	21979
881.366	21861
881.493	21789
881.619	21583
881.746	21743
881.872	21789
881.999	21675
882.125	21542
882.252	21808
882.378	21781
882.505	21846
882.631	21641
882.757	21424
882.883	21443
883.01	21412
883.136	21439
883.262	21272
883.388	21218
883.514	21344
883.64	21534
883.766	21336
883.892	21138
884.018	21146
884.143	21332
884.269	21363
884.395	21176
884.52	21036
884.646	21127
884.772	20967
884.897	20982
885.023	20979
885.148	21249
885.274	21211
885.399	21157
885.524	21089
885.65	21058
885.775	21112
885.9	21036
886.025	21150
886.15	21070
886.275	21070
886.4	20849
886.525	21100
886.65	20982
886.775	21005
886.9	21131
887.025	21146
887.149	20933
887.274	20899
887.399	20788
887.523	20838
887.648	20788
887.773	20830
887.897	20834
888.021	20952
888.146	20796
888.27	20925
888.395	20838
888.519	20853
888.643	20861
888.767	20777
888.891	20724
889.015	20701
889.139	20644
889.263	20678
889.387	20613
889.511	20788
889.635	20651
889.759	20556
889.883	20663
890.006	20617
890.13	20811
890.254	20469
890.377	20495
890.501	20263
890.624	20298
890.748	20332
890.871	20256
890.995	20016
891.118	20111
891.241	20252
891.364	20256
891.488	20385
891.611	20096
891.734	20046
891.857	20290
891.98	20142
892.103	20161
892.226	20164
892.349	20062
892.471	19887
892.594	20027
892.717	20062
892.839	20134
892.962	20062
893.085	20191
893.207	20221
893.33	20050
893.452	19989
893.575	20081
893.697	20039
893.819	20183
893.941	20237
894.064	20218
894.186	20084
894.308	19997
894.43	20233
894.552	20218
894.674	20092
894.796	20012
894.918	20077
895.04	20138
895.161	20077
895.283	20081
895.405	19997
895.526	20092
895.648	19997
895.769	20001
895.891	20054
896.012	20210
896.134	20084
896.255	20065
896.376	20020
896.498	20065
896.619	20107
896.74	20008
896.861	20024
896.982	20396
897.103	20518
897.224	20328
897.345	20290
897.466	20187
897.587	20305
897.708	20507
897.828	20309
897.949	20176
898.07	20115
898.19	20195
898.311	20240
898.431	20355
898.552	20290
898.672	20336
898.792	20282
898.913	20320
899.033	20221
899.153	20092
899.273	19959
899.393	20016
899.513	20043
899.633	20115
899.753	20058
899.873	19951
899.993	20149
900.113	19959
900.232	20027
900.352	19993
900.472	19875
900.591	19826
900.711	19909
900.83	19689
900.95	19837
901.069	19841
901.189	19753
901.308	19430
901.427	19320
901.546	19533
901.665	19415
901.784	19426
901.904	19259
902.023	19225
902.141	18981
902.26	18951
902.379	19065
902.498	18909
902.617	18935
902.735	18977
902.854	18909
902.973	18856
903.091	18612
903.21	18525
903.328	18460
903.446	18452
903.565	18391
903.683	18407
903.801	18353
903.919	18410
904.038	18342
904.156	18216
904.274	18304
904.392	18220
904.51	18209
904.627	18178
904.745	18197
904.863	18197
904.981	17980
905.098	17817
905.216	17912
905.334	17901
905.451	17851
905.569	17809
905.686	17939
905.803	17832
905.921	17676
906.038	17783
906.155	17672
906.272	17566
906.389	17615
906.506	17353
906.623	17436
906.74	17326
906.857	17250
906.974	17372
907.091	17478
907.208	17520
907.324	17395
907.441	17220
907.557	17239
907.674	17098
907.79	17064
907.907	17151
908.023	17140
908.139	17102
908.256	17052
908.372	17010
908.488	16976
908.604	16881
908.72	16782
908.836	16725
908.952	16774
909.068	16774
909.184	16984
909.3	16801
909.415	16847
909.531	16820
909.647	16561
909.762	16504
909.878	16470
909.993	16470
910.108	16466
910.224	16382
910.339	16459
910.454	16428
910.57	16333
910.685	16215
910.8	16512
910.915	16398
911.03	16352
911.145	16147
911.259	16029
911.374	16131
911.489	16051
911.604	15892
911.718	15907
911.833	15827
911.947	15675
912.062	15660
912.176	15812
912.291	15892
912.405	15869
912.519	16048
912.633	16086
912.748	15884
912.862	15785
912.976	15705
913.09	15504
913.204	15576
913.318	15781
913.431	15808
913.545	15682
913.659	15789
913.772	15614
913.886	15545
914	15500
914.113	15614
914.226	15561
914.34	15557
914.453	15367
914.566	15591
914.68	15306
914.793	15359
914.906	15058
915.019	15089
915.132	14982
915.245	15131
915.358	15119
915.47	15032
915.583	15184
915.696	15009
915.809	15127
915.921	15192
916.034	14967
916.146	15062
916.259	15009
916.371	15036
916.483	15108
916.595	14998
916.708	15009
916.82	14906
916.932	14800
917.044	14826
917.156	14823
917.268	14785
917.38	14777
917.491	14765
917.603	14739
917.715	14857
917.826	14823
917.938	14754
918.049	14560
918.161	14625
918.272	14773
918.384	14792
918.495	14678
918.606	14476
918.717	14396
918.828	14518
918.939	14431
919.05	14454
919.161	14427
919.272	14168
919.383	14339
919.494	14533
919.604	14629
919.715	14495
919.826	14434
919.936	14469
920.047	14583
920.157	14404
920.267	14682
920.378	14541
920.488	14366
920.598	14575
920.708	14811
920.818	14511
920.928	14556
921.038	14876
921.148	14739
921.258	14484
921.368	14301
921.477	14278
921.587	14084
921.697	14103
921.806	14271
921.916	14008
922.025	13887
922.134	13837
922.244	13757
922.353	13784
922.462	13715
922.571	13674
922.68	13544
922.789	13552
922.898	13419
923.007	13396
923.116	13480
923.224	13510
923.333	13430
923.442	13312
923.55	13324
923.659	13346
923.767	13327
923.876	13270
923.984	13400
924.092	13175
924.201	13251
924.309	13297
924.417	13156
924.525	13118
924.633	13065
924.741	13890
924.849	12916
924.956	13099
925.064	12844
925.172	12814
925.279	12905
925.387	12958
925.494	12840
925.602	13050
925.709	12977
925.816	12837
925.924	12863
926.031	12856
926.138	12821
926.245	12878
926.352	12791
926.459	12920
926.566	12878
926.673	12703
926.779	12673
926.886	12665
926.993	12490
927.099	12437
927.206	12403
927.312	12414
927.419	12445
927.525	12456
927.631	12422
927.737	12369
927.843	12323
927.95	12228
928.056	12182
928.162	12289
928.267	12388
928.373	12932
928.479	12380
928.585	12110
928.69	12224
928.796	12311
928.901	12186
929.007	11939
929.112	12136
929.218	12106
929.323	12068
929.428	12072
929.533	12182
929.638	11965
929.743	11973
929.848	12003
929.953	11988
930.058	11836
930.163	11691
930.267	11668
930.372	11748
930.477	11718
930.581	11889
930.685	11847
930.79	11615
930.894	11661
930.998	11520
931.103	11661
931.207	11318
931.311	11326
931.415	11208
931.519	10980
931.623	10965
