Data from test_V78500241_1503.txt Node
Date: Fri Mar 25 15:20:19 CST 2022
User: usil
Spectrometer: V785-0024
Trigger mode: 0
Integration Time (sec): 4.000000E-1
Scans to average: 1
Nonlinearity correction enabled: false
Boxcar width: 0
Storing dark spectrum: false
XAxis mode: Wavelengths
Number of Pixels in Spectrum: 1024
>>>>>Begin Spectral Data<<<<<
801.071	28219
801.214	28006
801.356	27690
801.499	27751
801.641	27625
801.783	27587
801.926	27587
802.068	27496
802.211	27481
802.353	27500
802.496	27454
802.638	27291
802.78	27302
802.923	27180
803.065	27218
803.208	27146
803.35	27169
803.492	27321
803.635	27526
803.777	27431
803.919	27526
804.061	27827
804.204	27561
804.346	27389
804.488	27488
804.63	27424
804.773	27427
804.915	27583
805.057	27595
805.199	27485
805.341	27595
805.483	27762
805.626	27709
805.768	27618
805.91	27663
806.052	27641
806.194	27629
806.336	27778
806.478	27610
806.62	27663
806.762	27751
806.904	27789
807.046	28078
807.188	28010
807.33	28131
807.472	28211
807.614	28048
807.756	27994
807.898	27926
808.04	27918
808.182	27808
808.324	28002
808.465	27941
808.607	28154
808.749	28295
808.891	28280
809.033	28538
809.174	28303
809.316	28284
809.458	28196
809.6	28230
809.741	28424
809.883	28325
810.025	28584
810.166	28485
810.308	28577
810.45	28413
810.591	28405
810.733	28360
810.875	28280
811.016	28394
811.158	28082
811.299	28291
811.441	28500
811.582	28394
811.724	28158
811.865	28196
812.007	28131
812.148	28200
812.29	28325
812.431	28428
812.573	28672
812.714	28736
812.855	28801
812.997	28793
813.138	29159
813.279	28923
813.421	28828
813.562	28839
813.703	28554
813.845	28432
813.986	28150
814.127	28017
814.268	28051
814.41	27979
814.551	27975
814.692	28162
814.833	27888
814.974	27994
815.115	28013
815.256	27774
815.397	27907
815.539	27819
815.68	27667
815.821	27648
815.962	27774
816.103	27945
816.244	27739
816.385	27572
816.526	27504
816.666	27424
816.807	27241
816.948	27363
817.089	27287
817.23	27447
817.371	27188
817.512	27237
817.653	27325
817.793	27256
817.934	27268
818.075	27302
818.216	27351
818.356	27249
818.497	27230
818.638	27024
818.778	26937
818.919	27032
819.06	27173
819.2	27123
819.341	27233
819.481	27233
819.622	27389
819.762	27526
819.903	27462
820.043	27496
820.184	27348
820.324	27435
820.465	27424
820.605	27454
820.746	27431
820.886	27222
821.026	27325
821.167	27294
821.307	27329
821.447	27218
821.588	27275
821.728	27070
821.868	26929
822.008	26975
822.149	26788
822.289	26667
822.429	26438
822.569	26366
822.709	26377
822.849	26332
822.99	26138
823.13	26244
823.27	26180
823.41	26050
823.55	25940
823.69	26062
823.83	26122
823.97	26077
824.11	25959
824.25	25605
824.389	25887
824.529	26024
824.669	25803
824.809	26088
824.949	26077
825.089	26043
825.228	25734
825.368	25742
825.508	25704
825.648	25746
825.787	25894
825.927	25860
826.067	25632
826.206	25628
826.346	25769
826.485	25700
826.625	25689
826.765	25803
826.904	25913
827.044	25510
827.183	25518
827.323	25582
827.462	25468
827.601	25388
827.741	25426
827.88	25544
828.02	25362
828.159	25438
828.298	25495
828.437	25518
828.577	25438
828.716	25506
828.855	25426
828.994	25126
829.134	25145
829.273	25168
829.412	25080
829.551	25168
829.69	25301
829.829	25274
829.968	25308
830.107	25263
830.246	25088
830.385	25126
830.524	25023
830.663	24897
830.802	24924
830.941	24665
831.08	24764
831.219	24894
831.357	24703
831.496	24932
831.635	24791
831.774	24578
831.913	24703
832.051	24517
832.19	24445
832.329	24544
832.467	24479
832.606	24384
832.744	24239
832.883	24429
833.022	24426
833.16	24509
833.299	24547
833.437	24486
833.576	24620
833.714	24460
833.852	24563
833.991	24601
834.129	24509
834.267	24578
834.406	24547
834.544	24604
834.682	24528
834.821	24521
834.959	24620
835.097	24441
835.235	24582
835.373	24384
835.511	24422
835.65	24308
835.788	24334
835.926	24178
836.064	24018
836.202	24114
836.34	24292
836.478	24262
836.615	24323
836.753	24319
836.891	24486
837.029	24296
837.167	24213
837.305	24041
837.443	24216
837.58	24277
837.718	24311
837.856	24174
837.993	24064
838.131	24072
838.269	23950
838.406	23980
838.544	23916
838.681	23775
838.819	23691
838.956	23630
839.094	23596
839.231	23524
839.369	23786
839.506	23958
839.643	23821
839.781	23680
839.918	23539
840.055	23634
840.193	23551
840.33	23471
840.467	23528
840.604	23604
840.742	23729
840.879	23467
841.016	23398
841.153	23402
841.29	23528
841.427	23543
841.564	23524
841.701	23619
841.838	23425
841.975	23417
842.112	23501
842.249	23220
842.385	23246
842.522	23471
842.659	23273
842.796	23235
842.933	23299
843.069	23356
843.206	23258
843.343	23277
843.479	23208
843.616	23246
843.752	23098
843.889	23052
844.025	23273
844.162	23075
844.298	23121
844.435	22991
844.571	23090
844.708	23113
844.844	23132
844.98	23155
845.117	23140
845.253	22946
845.389	22873
845.525	22953
845.661	22908
845.798	22748
845.934	22873
846.07	22706
846.206	22877
846.342	22675
846.478	22675
846.614	22622
846.75	22413
846.886	22531
847.022	22672
847.158	22535
847.294	22466
847.429	22538
847.565	22462
847.701	22702
847.837	22257
847.972	22131
848.108	22333
848.244	22390
848.379	22143
848.515	22032
848.65	22105
848.786	22067
848.921	22143
849.057	22181
849.192	22093
849.328	22150
849.463	22109
849.598	22139
849.734	21968
849.869	21937
850.004	21827
850.14	21991
850.275	21838
850.41	21720
850.545	21857
850.68	21850
850.815	21911
850.95	21850
851.085	22055
851.22	21941
851.355	21800
851.49	21903
851.625	21759
851.76	21823
851.895	21660
852.03	21762
852.165	21827
852.299	21781
852.434	22021
852.569	21987
852.703	21831
852.838	21861
852.973	21945
853.107	21937
853.242	21831
853.376	21785
853.511	21473
853.645	21686
853.78	21679
853.914	21785
854.048	21557
854.183	21618
854.317	21583
854.451	21739
854.585	21743
854.72	21644
854.854	21892
854.988	21580
855.122	21770
855.256	21660
855.39	21641
855.524	21778
855.658	21686
855.792	21633
855.926	21690
856.06	21751
856.194	21637
856.327	21629
856.461	21504
856.595	21629
856.729	21675
856.862	21949
856.996	21595
857.13	21842
857.263	21778
857.397	21762
857.53	21667
857.664	21739
857.797	21743
857.931	21816
858.064	21736
858.197	21720
858.331	21610
858.464	21690
858.597	21519
858.731	21633
858.864	21633
858.997	21576
859.13	21644
859.263	21713
859.396	21778
859.529	21686
859.662	21618
859.795	21568
859.928	21644
860.061	21755
860.194	21835
860.327	21641
860.46	21663
860.592	21964
860.725	21899
860.858	21747
860.99	21675
861.123	21481
861.256	21561
861.388	21778
861.521	22287
861.653	21545
861.786	21462
861.918	21439
862.05	21500
862.183	21439
862.315	21614
862.447	21709
862.58	21625
862.712	21351
862.844	21355
862.976	21416
863.108	21504
863.24	21804
863.372	21344
863.504	21370
863.636	21435
863.768	21389
863.9	21351
864.032	21378
864.164	21302
864.296	21382
864.428	21526
864.559	21416
864.691	21580
864.823	21336
864.954	21469
865.086	21317
865.217	21336
865.349	21226
865.48	21135
865.612	21195
865.743	21355
865.875	21329
866.006	21252
866.137	21317
866.269	21355
866.4	21249
866.531	21165
866.662	21104
866.793	21142
866.924	21135
867.055	21237
867.186	21180
867.317	21108
867.448	21074
867.579	21199
867.71	21112
867.841	21032
867.972	21268
868.103	21260
868.233	21245
868.364	21161
868.495	21310
868.625	21424
868.756	21519
868.886	21363
869.017	21420
869.147	21526
869.278	21458
869.408	21466
869.539	21405
869.669	21580
869.799	21439
869.929	21542
870.06	21466
870.19	21671
870.32	21819
870.45	21641
870.58	21930
870.71	21934
870.84	21884
870.97	21797
871.1	21774
871.23	22044
871.36	21937
871.489	21899
871.619	21964
871.749	22010
871.879	21983
872.008	22158
872.138	22006
872.267	22082
872.397	21899
872.526	21922
872.656	21880
872.785	21728
872.915	22086
873.044	22200
873.173	21994
873.303	22070
873.432	22025
873.561	22192
873.69	22086
873.819	22029
873.948	22109
874.077	22067
874.206	21991
874.335	22063
874.464	22051
874.593	22322
874.722	22147
874.851	22356
874.979	22257
875.108	22265
875.237	22143
875.365	22097
875.494	22200
875.623	22295
875.751	22246
875.88	22166
876.008	22242
876.136	22428
876.265	22713
876.393	22679
876.521	22653
876.65	22664
876.778	22573
876.906	22611
877.034	22634
877.162	22649
877.29	22527
877.418	22611
877.546	22584
877.674	22626
877.802	22538
877.93	22569
878.058	22550
878.185	22436
878.313	22577
878.441	22546
878.568	22512
878.696	22535
878.824	22596
878.951	22702
879.079	22820
879.206	22908
879.333	22927
879.461	22580
879.588	22656
879.715	22683
879.842	22900
879.97	22626
880.097	22421
880.224	22363
880.351	22451
880.478	22466
880.605	22287
880.732	22344
880.859	22641
880.986	22352
881.112	22504
881.239	22158
881.366	22173
881.493	22169
881.619	22025
881.746	22044
881.872	22036
881.999	21960
882.125	21956
882.252	21972
882.378	21934
882.505	22093
882.631	21797
882.757	21728
882.883	21675
883.01	21755
883.136	21686
883.262	21686
883.388	21564
883.514	21694
883.64	21709
883.766	21564
883.892	21462
884.018	21363
884.143	21595
884.269	21755
884.395	21435
884.52	21355
884.646	21408
884.772	21279
884.897	21245
885.023	21272
885.148	21477
885.274	21378
885.399	21473
885.524	21378
885.65	21447
885.775	21287
885.9	21260
886.025	21462
886.15	21397
886.275	21363
886.4	21207
886.525	21325
886.65	21302
886.775	21252
886.9	21389
887.025	21389
887.149	21344
887.274	21085
887.399	21207
887.523	21089
887.648	21036
887.773	21017
887.897	21222
888.021	21119
888.146	20864
888.27	21199
888.395	21089
888.519	21146
888.643	21108
888.767	21150
888.891	20933
889.015	20982
889.139	20838
889.263	20868
889.387	20910
889.511	21135
889.635	21154
889.759	20845
889.883	20899
890.006	20979
890.13	20986
890.254	20853
890.377	20842
890.501	20644
890.624	20590
890.748	20758
890.871	20579
890.995	20473
891.118	20446
891.241	20476
891.364	20446
891.488	20579
891.611	20381
891.734	20602
891.857	20476
891.98	20499
892.103	20495
892.226	20438
892.349	20370
892.471	20305
892.594	20362
892.717	20412
892.839	20419
892.962	20404
893.085	20469
893.207	20298
893.33	20347
893.452	20233
893.575	20355
893.697	20351
893.819	20549
893.941	20594
894.064	20514
894.186	20271
894.308	20233
894.43	20431
894.552	20533
894.674	20294
894.796	20328
894.918	20298
895.04	20149
895.161	20199
895.283	20412
895.405	20191
895.526	20370
895.648	20278
895.769	20263
895.891	20267
896.012	20366
896.134	20351
896.255	20393
896.376	20244
896.498	20305
896.619	20324
896.74	20358
896.861	20442
896.982	20602
897.103	20823
897.224	20663
897.345	20602
897.466	20541
897.587	20549
897.708	20606
897.828	20648
897.949	20461
898.07	20320
898.19	20511
898.311	20632
898.431	20522
898.552	20533
898.672	20613
898.792	20579
898.913	20556
899.033	20393
899.153	20400
899.273	20199
899.393	20271
899.513	20492
899.633	20244
899.753	20233
899.873	20221
899.993	20248
900.113	20233
900.232	20347
900.352	20126
900.472	20115
900.591	20027
900.711	20062
900.83	20088
900.95	20126
901.069	20153
901.189	19986
901.308	19731
901.427	19696
901.546	19635
901.665	19708
901.784	19696
901.904	19533
902.023	19457
902.141	19282
902.26	19114
902.379	19266
902.498	19179
902.617	19247
902.735	19160
902.854	19095
902.973	18993
903.091	18825
903.21	18707
903.328	18741
903.446	18677
903.565	18768
903.683	18642
903.801	18540
903.919	18525
904.038	18578
904.156	18448
904.274	18414
904.392	18448
904.51	18376
904.627	18334
904.745	18460
904.863	18372
904.981	18262
905.098	18026
905.216	18098
905.334	18038
905.451	18121
905.569	18136
905.686	18068
905.803	17996
905.921	17859
906.038	17885
906.155	17783
906.272	17802
906.389	17790
906.506	17608
906.623	17661
906.74	17608
906.857	17520
906.974	17474
907.091	17672
907.208	17779
907.324	17646
907.441	17368
907.557	17383
907.674	17311
907.79	17242
907.907	17349
908.023	17410
908.139	17288
908.256	17387
908.372	17330
908.488	17128
908.604	17140
908.72	17025
908.836	17029
908.952	17010
909.068	17212
909.184	17193
909.3	17037
909.415	17075
909.531	17079
909.647	16752
909.762	16774
909.878	16580
909.993	16782
910.108	16637
910.224	16592
910.339	16660
910.454	16550
910.57	16497
910.685	16527
910.8	16740
910.915	16668
911.03	16561
911.145	16337
911.259	16306
911.374	16325
911.489	16322
911.604	16337
911.718	16029
911.833	16097
911.947	16013
912.062	15926
912.176	15987
912.291	15987
912.405	15994
912.519	16169
912.633	16204
912.748	16162
912.862	16002
912.976	15835
913.09	15751
913.204	15880
913.318	15915
913.431	15911
913.545	16006
913.659	16006
913.772	15793
913.886	15747
914	15633
914.113	15808
914.226	15857
914.34	15812
914.453	15576
914.566	15667
914.68	15545
914.793	15553
914.906	15405
915.019	15256
915.132	15184
915.245	15260
915.358	15291
915.47	15230
915.583	15287
915.696	15268
915.809	15340
915.921	15344
916.034	15272
916.146	15142
916.259	15184
916.371	15165
916.483	15135
916.595	15074
916.708	15192
916.82	15154
916.932	15123
917.044	15032
917.156	14982
917.268	14998
917.38	14872
917.491	14895
917.603	14849
917.715	14982
917.826	15036
917.938	14883
918.049	14701
918.161	14796
918.272	15005
918.384	15058
918.495	14864
918.606	14621
918.717	14648
918.828	14678
918.939	14773
919.05	14636
919.161	14625
919.272	14495
919.383	14499
919.494	14777
919.604	14796
919.715	14689
919.826	14518
919.936	14610
920.047	14769
920.157	14659
920.267	14758
920.378	14693
920.488	14545
920.598	14891
920.708	14838
920.818	14849
920.928	14800
921.038	14963
921.148	14910
921.258	14606
921.368	14602
921.477	14393
921.587	14393
921.697	14286
921.806	14358
921.916	14145
922.025	14039
922.134	14073
922.244	13970
922.353	14069
922.462	13837
922.571	13784
922.68	13693
922.789	13677
922.898	13559
923.007	13647
923.116	13715
923.224	13605
923.333	13723
923.442	13506
923.55	13483
923.659	13514
923.767	13525
923.876	13377
923.984	13487
924.092	13308
924.201	13449
924.309	13384
924.417	13346
924.525	13266
924.633	13343
924.741	14069
924.849	13133
924.956	13259
925.064	13171
925.172	12996
925.279	13031
925.387	13069
925.494	13099
925.602	13171
925.709	13110
925.816	12901
925.924	12970
926.031	13137
926.138	12935
926.245	13034
926.352	12867
926.459	12993
926.566	13046
926.673	12913
926.779	12875
926.886	12867
926.993	12639
927.099	12612
927.206	12521
927.312	12532
927.419	12662
927.525	12627
927.631	12574
927.737	12456
927.843	12464
927.95	12380
928.056	12437
928.162	12422
928.267	12479
928.373	13061
928.479	12513
928.585	12243
928.69	12429
928.796	12445
928.901	12289
929.007	12121
929.112	12270
929.218	12258
929.323	12155
929.428	12102
929.533	12342
929.638	12106
929.743	12053
929.848	12186
929.953	12072
930.058	11980
930.163	11832
930.267	11897
930.372	11999
930.477	11828
930.581	12076
930.685	11935
930.79	11760
930.894	11817
930.998	11737
931.103	11802
931.207	11486
931.311	11406
931.415	11261
931.519	11151
931.623	11136
