Data from test_V78500241_2604.txt Node
Date: Fri Mar 25 15:27:59 CST 2022
User: usil
Spectrometer: V785-0024
Trigger mode: 0
Integration Time (sec): 4.000000E-1
Scans to average: 1
Nonlinearity correction enabled: false
Boxcar width: 0
Storing dark spectrum: false
XAxis mode: Wavelengths
Number of Pixels in Spectrum: 1024
>>>>>Begin Spectral Data<<<<<
801.071	27127
801.214	27074
801.356	26883
801.499	26906
801.641	26648
801.783	26727
801.926	26861
802.068	26800
802.211	26689
802.353	26537
802.496	26575
802.638	26385
802.78	26385
802.923	26362
803.065	26225
803.208	26229
803.35	26313
803.492	26461
803.635	26579
803.777	26385
803.919	26632
804.061	26876
804.204	26625
804.346	26503
804.488	26450
804.63	26461
804.773	26377
804.915	26488
805.057	26587
805.199	26560
805.341	26541
805.483	26621
805.626	26670
805.768	26533
805.91	26644
806.052	26693
806.194	26571
806.336	26655
806.478	26564
806.62	26659
806.762	26762
806.904	26921
807.046	27184
807.188	27089
807.33	27043
807.472	27062
807.614	26914
807.756	27135
807.898	26876
808.04	26815
808.182	26804
808.324	26979
808.465	27032
808.607	27093
808.749	27249
808.891	27332
809.033	27374
809.174	27397
809.316	27180
809.458	27226
809.6	27157
809.741	27264
809.883	27264
810.025	27492
810.166	27427
810.308	27408
810.45	27450
810.591	27329
810.733	27249
810.875	27180
811.016	27169
811.158	26960
811.299	27370
811.441	27519
811.582	27523
811.724	27211
811.865	27233
812.007	27013
812.148	27036
812.29	27207
812.431	27454
812.573	27530
812.714	27618
812.855	27648
812.997	27785
813.138	27876
813.279	27888
813.421	27789
813.562	27660
813.703	27492
813.845	27245
813.986	27104
814.127	27024
814.268	26940
814.41	26899
814.551	26887
814.692	27013
814.833	26800
814.974	26724
815.115	26849
815.256	26621
815.397	26727
815.539	26659
815.68	26670
815.821	26613
815.962	26617
816.103	26697
816.244	26438
816.385	26522
816.526	26537
816.666	26282
816.807	26195
816.948	26092
817.089	26305
817.23	26153
817.371	26225
817.512	26237
817.653	25978
817.793	26077
817.934	26168
818.075	26191
818.216	26046
818.356	26107
818.497	26103
818.638	25826
818.778	25906
818.919	25868
819.06	25959
819.2	26024
819.341	26111
819.481	26202
819.622	26278
819.762	26328
819.903	26423
820.043	26237
820.184	26214
820.324	26142
820.465	26343
820.605	26221
820.746	26138
820.886	26183
821.026	26259
821.167	26278
821.307	26130
821.447	26111
821.588	25993
821.728	25845
821.868	25822
822.008	25597
822.149	25575
822.289	25575
822.429	25312
822.569	25335
822.709	25358
822.849	25202
822.99	25080
823.13	25095
823.27	25046
823.41	24764
823.55	24920
823.69	24814
823.83	24905
823.97	24837
824.11	24696
824.25	24627
824.389	24734
824.529	24867
824.669	24623
824.809	24894
824.949	24882
825.089	24760
825.228	24688
825.368	24582
825.508	24582
825.648	24536
825.787	24566
825.927	24661
826.067	24684
826.206	24597
826.346	24631
826.485	24597
826.625	24601
826.765	24806
826.904	24665
827.044	24380
827.183	24304
827.323	24353
827.462	24365
827.601	24311
827.741	24372
827.88	24380
828.02	24163
828.159	24342
828.298	24285
828.437	24365
828.577	24243
828.716	24502
828.855	24125
828.994	24026
829.134	24026
829.273	23942
829.412	23992
829.551	23927
829.69	23973
829.829	24053
829.968	24148
830.107	24121
830.246	24038
830.385	23954
830.524	23939
830.663	23908
830.802	23828
830.941	23741
831.08	23657
831.219	23775
831.357	23687
831.496	23973
831.635	23680
831.774	23577
831.913	23455
832.051	23497
832.19	23376
832.329	23296
832.467	23292
832.606	23387
832.744	23258
832.883	23288
833.022	23311
833.16	23250
833.299	23372
833.437	23467
833.576	23463
833.714	23383
833.852	23376
833.991	23497
834.129	23581
834.267	23497
834.406	23497
834.544	23463
834.682	23330
834.821	23455
834.959	23531
835.097	23318
835.235	23512
835.373	23212
835.511	23360
835.65	23235
835.788	23185
835.926	23174
836.064	22972
836.202	23086
836.34	23261
836.478	23334
836.615	23121
836.753	23292
836.891	23337
837.029	23220
837.167	23227
837.305	23113
837.443	23071
837.58	23098
837.718	23181
837.856	23105
837.993	23067
838.131	23025
838.269	22976
838.406	22949
838.544	22949
838.681	22729
838.819	22630
838.956	22592
839.094	22485
839.231	22691
839.369	22668
839.506	22942
839.643	22896
839.781	22523
839.918	22493
840.055	22634
840.193	22569
840.33	22630
840.467	22451
840.604	22569
840.742	22793
840.879	22443
841.016	22409
841.153	22470
841.29	22535
841.427	22455
841.564	22546
841.701	22535
841.838	22466
841.975	22436
842.112	22459
842.249	22348
842.385	22367
842.522	22493
842.659	22432
842.796	22112
842.933	22371
843.069	22169
843.206	22295
843.343	22462
843.479	22150
843.616	22257
843.752	22051
843.889	22067
844.025	22207
844.162	22105
844.298	22143
844.435	22059
844.571	22032
844.708	22040
844.844	22268
844.98	22169
845.117	22124
845.253	21998
845.389	21956
845.525	21987
845.661	22044
845.798	21747
845.934	21857
846.07	21648
846.206	21842
846.342	21865
846.478	21789
846.614	21595
846.75	21530
846.886	21534
847.022	21545
847.158	21428
847.294	21564
847.429	21496
847.565	21568
847.701	21736
847.837	21241
847.972	21279
848.108	21351
848.244	21302
848.379	21104
848.515	21089
848.65	21093
848.786	21154
848.921	21017
849.057	21252
849.192	21325
849.328	21013
849.463	21108
849.598	21093
849.734	20929
849.869	20975
850.004	20906
850.14	20895
850.275	20902
850.41	20727
850.545	20864
850.68	20864
850.815	20845
850.95	20887
851.085	21039
851.22	20971
851.355	20902
851.49	20910
851.625	20921
851.76	20849
851.895	20876
852.03	20678
852.165	20960
852.299	20868
852.434	20941
852.569	20887
852.703	20956
852.838	21009
852.973	21093
853.107	20921
853.242	20804
853.376	20731
853.511	20552
853.645	20556
853.78	20765
853.914	20663
854.048	20674
854.183	20769
854.317	20720
854.451	20906
854.585	20724
854.72	20773
854.854	20750
854.988	20579
855.122	20697
855.256	20587
855.39	20655
855.524	20792
855.658	20800
855.792	20708
855.926	20651
856.06	20705
856.194	20819
856.327	20609
856.461	20727
856.595	20663
856.729	20560
856.862	20712
856.996	20769
857.13	20739
857.263	20918
857.397	20864
857.53	20621
857.664	20743
857.797	20830
857.931	20750
858.064	20754
858.197	20842
858.331	20625
858.464	20712
858.597	20617
858.731	20743
858.864	20594
858.997	20609
859.13	20743
859.263	20613
859.396	20826
859.529	20659
859.662	20670
859.795	20537
859.928	20693
860.061	20788
860.194	20906
860.327	20727
860.46	20701
860.592	20800
860.725	20861
860.858	20853
860.99	20693
861.123	20594
861.256	20632
861.388	20659
861.521	21294
861.653	20541
861.786	20549
861.918	20495
862.05	20621
862.183	20621
862.315	20663
862.447	20598
862.58	20609
862.712	20469
862.844	20328
862.976	20465
863.108	20431
863.24	20834
863.372	20362
863.504	20320
863.636	20374
863.768	20507
863.9	20389
864.032	20351
864.164	20473
864.296	20404
864.428	20495
864.559	20488
864.691	20537
864.823	20381
864.954	20431
865.086	20336
865.217	20332
865.349	20240
865.48	20427
865.612	20370
865.743	20389
865.875	20324
866.006	20408
866.137	20423
866.269	20415
866.4	20362
866.531	20301
866.662	20313
866.793	20286
866.924	20229
867.055	20298
867.186	20248
867.317	20221
867.448	20180
867.579	20199
867.71	20271
867.841	20233
867.972	20252
868.103	20214
868.233	20286
868.364	20237
868.495	20328
868.625	20495
868.756	20644
868.886	20484
869.017	20434
869.147	20537
869.278	20682
869.408	20579
869.539	20552
869.669	20697
869.799	20560
869.929	20640
870.06	20537
870.19	20887
870.32	20724
870.45	20754
870.58	20891
870.71	20975
870.84	21047
870.97	21013
871.1	20891
871.23	20906
871.36	21017
871.489	21024
871.619	21013
871.749	21104
871.879	21146
872.008	21218
872.138	21184
872.267	21009
872.397	21017
872.526	21017
872.656	20944
872.785	21009
872.915	21104
873.044	21291
873.173	21184
873.303	21195
873.432	21233
873.561	21207
873.69	21051
873.819	21119
873.948	21138
874.077	21199
874.206	21108
874.335	21081
874.464	21252
874.593	21405
874.722	21291
874.851	21283
874.979	21321
875.108	21325
875.237	21294
875.365	21230
875.494	21279
875.623	21378
875.751	21332
875.88	21420
876.008	21496
876.136	21557
876.265	21827
876.393	22013
876.521	21774
876.65	21778
876.778	21774
876.906	21747
877.034	21770
877.162	21595
877.29	21660
877.418	21637
877.546	21720
877.674	21732
877.802	21656
877.93	21690
878.058	21698
878.185	21603
878.313	21663
878.441	21774
878.568	21603
878.696	21690
878.824	21641
878.951	21762
879.079	21934
879.206	21922
879.333	21747
879.461	21736
879.588	21774
879.715	22036
879.842	21922
879.97	21736
880.097	21686
880.224	21485
880.351	21496
880.478	21572
880.605	21408
880.732	21523
880.859	21846
880.986	21572
881.112	21622
881.239	21412
881.366	21420
881.493	21249
881.619	21123
881.746	21165
881.872	21135
881.999	21142
882.125	21001
882.252	21180
882.378	21062
882.505	21195
882.631	20815
882.757	20842
882.883	21017
883.01	20918
883.136	20792
883.262	20571
883.388	20640
883.514	20830
883.64	20982
883.766	20845
883.892	20564
884.018	20549
884.143	20800
884.269	20800
884.395	20552
884.52	20389
884.646	20423
884.772	20328
884.897	20313
885.023	20514
885.148	20590
885.274	20606
885.399	20579
885.524	20560
885.65	20549
885.775	20469
885.9	20556
886.025	20499
886.15	20659
886.275	20404
886.4	20355
886.525	20385
886.65	20431
886.775	20412
886.9	20613
887.025	20632
887.149	20480
887.274	20324
887.399	20313
887.523	20210
887.648	20282
887.773	20134
887.897	20252
888.021	20370
888.146	20157
888.27	20324
888.395	20385
888.519	20214
888.643	20301
888.767	20332
888.891	20183
889.015	20054
889.139	20073
889.263	20008
889.387	20035
889.511	20229
889.635	20084
889.759	19989
889.883	19997
890.006	20157
890.13	20134
890.254	20069
890.377	19963
890.501	19769
890.624	19765
890.748	19814
890.871	19765
890.995	19666
891.118	19502
891.241	19639
891.364	19670
891.488	19822
891.611	19685
891.734	19700
891.857	19704
891.98	19597
892.103	19693
892.226	19571
892.349	19567
892.471	19502
892.594	19689
892.717	19506
892.839	19575
892.962	19647
893.085	19628
893.207	19548
893.33	19419
893.452	19445
893.575	19563
893.697	19540
893.819	19776
893.941	19712
894.064	19632
894.186	19521
894.308	19403
894.43	19674
894.552	19712
894.674	19655
894.796	19495
894.918	19533
895.04	19396
895.161	19518
895.283	19685
895.405	19495
895.526	19540
895.648	19605
895.769	19556
895.891	19567
896.012	19651
896.134	19624
896.255	19765
896.376	19533
896.498	19540
896.619	19776
896.74	19643
896.861	19628
896.982	19955
897.103	20065
897.224	20046
897.345	19811
897.466	19750
897.587	19811
897.708	19890
897.828	19925
897.949	19727
898.07	19738
898.19	19833
898.311	19883
898.431	19826
898.552	19944
898.672	19921
898.792	19936
898.913	19769
899.033	19742
899.153	19594
899.273	19495
899.393	19445
899.513	19693
899.633	19567
899.753	19540
899.873	19575
899.993	19575
900.113	19438
900.232	19537
900.352	19457
900.472	19464
900.591	19263
900.711	19369
900.83	19308
900.95	19578
901.069	19438
901.189	19282
901.308	19080
901.427	18897
901.546	18871
901.665	18916
901.784	18905
901.904	18890
902.023	18738
902.141	18574
902.26	18513
902.379	18642
902.498	18490
902.617	18486
902.735	18528
902.854	18475
902.973	18437
903.091	18022
903.21	18159
903.328	18163
903.446	18155
903.565	18034
903.683	18022
903.801	17783
903.919	17904
904.038	17908
904.156	17760
904.274	17775
904.392	17764
904.51	17718
904.627	17745
904.745	17840
904.863	17699
904.981	17528
905.098	17505
905.216	17345
905.334	17486
905.451	17429
905.569	17402
905.686	17463
905.803	17452
905.921	17220
906.038	17330
906.155	17128
906.272	17041
906.389	17124
906.506	16980
906.623	16961
906.74	17014
906.857	16957
906.974	16752
907.091	16995
907.208	17064
907.324	16896
907.441	16755
907.557	16675
907.674	16702
907.79	16706
907.907	16725
908.023	16698
908.139	16660
908.256	16565
908.372	16462
908.488	16554
908.604	16500
908.72	16436
908.836	16375
908.952	16291
909.068	16485
909.184	16478
909.3	16352
909.415	16470
909.531	16314
909.647	16055
909.762	16082
909.878	16097
909.993	16097
910.108	16109
910.224	15998
910.339	16082
910.454	16013
910.57	15934
910.685	15812
910.8	16090
910.915	16071
911.03	15945
911.145	15800
911.259	15648
911.374	15663
911.489	15808
911.604	15587
911.718	15504
911.833	15469
911.947	15439
912.062	15386
912.176	15526
912.291	15485
912.405	15504
912.519	15713
912.633	15667
912.748	15450
912.862	15481
912.976	15275
913.09	15222
913.204	15245
913.318	15237
913.431	15374
913.545	15359
913.659	15397
913.772	15218
913.886	15123
914	15085
914.113	15100
914.226	15161
914.34	15291
914.453	14986
914.566	15203
914.68	14914
914.793	14952
914.906	14788
915.019	14735
915.132	14670
915.245	14648
915.358	14762
915.47	14712
915.583	14705
915.696	14743
915.809	14785
915.921	14895
916.034	14705
916.146	14705
916.259	14629
916.371	14674
916.483	14594
916.595	14545
916.708	14549
916.82	14545
916.932	14503
917.044	14492
917.156	14484
917.268	14358
917.38	14400
917.491	14347
917.603	14347
917.715	14347
917.826	14412
917.938	14305
918.049	14229
918.161	14404
918.272	14507
918.384	14484
918.495	14313
918.606	14176
918.717	14130
918.828	14077
918.939	14240
919.05	14050
919.161	14054
919.272	13925
919.383	13928
919.494	14225
919.604	14370
919.715	14058
919.826	14001
919.936	14161
920.047	14111
920.157	14176
920.267	14267
920.378	14134
920.488	14134
920.598	14233
920.708	14396
920.818	14244
920.928	14237
921.038	14461
921.148	14332
921.258	14069
921.368	13864
921.477	13925
921.587	13932
921.697	13727
921.806	13791
921.916	13723
922.025	13540
922.134	13544
922.244	13548
922.353	13609
922.462	13472
922.571	13358
922.68	13213
922.789	13050
922.898	13137
923.007	13141
923.116	13179
923.224	13209
923.333	13152
923.442	12905
923.55	12913
923.659	12985
923.767	12989
923.876	12989
923.984	12977
924.092	12985
924.201	12977
924.309	12924
924.417	12875
924.525	12814
924.633	12821
924.741	13856
924.849	12642
924.956	12719
925.064	12681
925.172	12498
925.279	12509
925.387	12517
925.494	12608
925.602	12730
925.709	12642
925.816	12479
925.924	12563
926.031	12650
926.138	12502
926.245	12578
926.352	12475
926.459	12654
926.566	12604
926.673	12540
926.779	12292
926.886	12319
926.993	12209
927.099	12205
927.206	12243
927.312	12102
927.419	12243
927.525	12235
927.631	12247
927.737	12068
927.843	12011
927.95	12015
928.056	12030
928.162	12117
928.267	11984
928.373	12551
928.479	12060
928.585	11828
928.69	11980
928.796	11958
928.901	11874
929.007	11805
929.112	11840
929.218	11851
929.323	11775
929.428	11752
929.533	11832
929.638	11726
929.743	11760
929.848	11786
929.953	11718
930.058	11566
930.163	11372
930.267	11459
930.372	11562
930.477	11425
930.581	11562
930.685	11452
930.79	11383
930.894	11315
930.998	11296
931.103	11440
931.207	11094
931.311	11033
931.415	10991
931.519	10721
931.623	10797
