Data from test_V78500241_1965.txt Node
Date: Fri Mar 25 15:23:32 CST 2022
User: usil
Spectrometer: V785-0024
Trigger mode: 0
Integration Time (sec): 4.000000E-1
Scans to average: 1
Nonlinearity correction enabled: false
Boxcar width: 0
Storing dark spectrum: false
XAxis mode: Wavelengths
Number of Pixels in Spectrum: 1024
>>>>>Begin Spectral Data<<<<<
801.071	27774
801.214	27572
801.356	27477
801.499	27378
801.641	27325
801.783	27332
801.926	27359
802.068	27397
802.211	27199
802.353	27207
802.496	26876
802.638	26921
802.78	26902
802.923	26849
803.065	26823
803.208	26788
803.35	26910
803.492	27017
803.635	27291
803.777	27058
803.919	27142
804.061	27348
804.204	27188
804.346	27001
804.488	27058
804.63	27272
804.773	27039
804.915	27161
805.057	27252
805.199	27024
805.341	27310
805.483	27279
805.626	27241
805.768	27241
805.91	27252
806.052	27222
806.194	27157
806.336	27424
806.478	27268
806.62	27165
806.762	27439
806.904	27580
807.046	27762
807.188	27519
807.33	27679
807.472	27656
807.614	27625
807.756	27633
807.898	27561
808.04	27572
808.182	27427
808.324	27572
808.465	27587
808.607	27724
808.749	27846
808.891	27903
809.033	28021
809.174	27873
809.316	27838
809.458	27789
809.6	27850
809.741	27914
809.883	28002
810.025	28223
810.166	28097
810.308	28116
810.45	28124
810.591	28017
810.733	27838
810.875	27842
811.016	27633
811.158	27698
811.299	27819
811.441	28017
811.582	28086
811.724	27857
811.865	27724
812.007	27911
812.148	27797
812.29	28036
812.431	27998
812.573	28188
812.714	28333
812.855	28401
812.997	28455
813.138	28736
813.279	28523
813.421	28565
813.562	28344
813.703	28246
813.845	28105
813.986	27770
814.127	27705
814.268	27641
814.41	27587
814.551	27572
814.692	27770
814.833	27515
814.974	27507
815.115	27561
815.256	27606
815.397	27500
815.539	27549
815.68	27332
815.821	27344
815.962	27329
816.103	27291
816.244	27195
816.385	27176
816.526	27028
816.666	26902
816.807	26788
816.948	26857
817.089	26956
817.23	26960
817.371	26826
817.512	26746
817.653	26960
817.793	26659
817.934	26754
818.075	26883
818.216	26804
818.356	26823
818.497	26590
818.638	26518
818.778	26526
818.919	26697
819.06	26697
819.2	26834
819.341	26804
819.481	26857
819.622	26982
819.762	27230
819.903	27051
820.043	27131
820.184	26975
820.324	26986
820.465	26883
820.605	26933
820.746	26853
820.886	26857
821.026	26990
821.167	26853
821.307	26910
821.447	26785
821.588	26750
821.728	26587
821.868	26339
822.008	26328
822.149	26290
822.289	26396
822.429	26035
822.569	26054
822.709	25959
822.849	25986
822.99	25833
823.13	25723
823.27	25772
823.41	25632
823.55	25632
823.69	25776
823.83	25746
823.97	25518
824.11	25499
824.25	25460
824.389	25400
824.529	25510
824.669	25506
824.809	25582
824.949	25476
825.089	25651
825.228	25582
825.368	25392
825.508	25141
825.648	25430
825.787	25438
825.927	25358
826.067	25285
826.206	25278
826.346	25331
826.485	25324
826.625	25198
826.765	25403
826.904	25304
827.044	25091
827.183	25110
827.323	24962
827.462	25190
827.601	25050
827.741	25084
827.88	24958
828.02	24859
828.159	25019
828.298	25034
828.437	25076
828.577	24932
828.716	25099
828.855	25008
828.994	24753
829.134	24757
829.273	24814
829.412	24677
829.551	24681
829.69	24684
829.829	24665
829.968	24772
830.107	24795
830.246	24745
830.385	24726
830.524	24684
830.663	24551
830.802	24414
830.941	24388
831.08	24330
831.219	24433
831.357	24418
831.496	24608
831.635	24384
831.774	24361
831.913	24289
832.051	24182
832.19	24083
832.329	24171
832.467	23984
832.606	24003
832.744	23980
832.883	24060
833.022	23935
833.16	24026
833.299	23996
833.437	24155
833.576	24041
833.714	23999
833.852	24091
833.991	24049
834.129	24254
834.267	24011
834.406	24216
834.544	24125
834.682	24045
834.821	24018
834.959	24232
835.097	24045
835.235	24216
835.373	24060
835.511	24129
835.65	23870
835.788	23908
835.926	23794
836.064	23847
836.202	23813
836.34	23851
836.478	24041
836.615	23961
836.753	23866
836.891	24011
837.029	23882
837.167	23885
837.305	23798
837.443	23859
837.58	23668
837.718	23870
837.856	23901
837.993	23699
838.131	23779
838.269	23676
838.406	23684
838.544	23566
838.681	23452
838.819	23402
838.956	23181
839.094	23372
839.231	23334
839.369	23474
839.506	23748
839.643	23551
839.781	23220
839.918	23197
840.055	23204
840.193	23220
840.33	23288
840.467	23307
840.604	23208
840.742	23608
840.879	23029
841.016	23155
841.153	22991
841.29	23204
841.427	23143
841.564	23212
841.701	23083
841.838	23022
841.975	23044
842.112	23121
842.249	22995
842.385	22919
842.522	23025
842.659	22908
842.796	22892
842.933	22949
843.069	22949
843.206	22961
843.343	22904
843.479	23003
843.616	22877
843.752	22801
843.889	22557
844.025	22843
844.162	22778
844.298	22717
844.435	22683
844.571	22755
844.708	22812
844.844	22896
844.98	22778
845.117	22748
845.253	22592
845.389	22554
845.525	22550
845.661	22596
845.798	22352
845.934	22489
846.07	22432
846.206	22352
846.342	22535
846.478	22443
846.614	22360
846.75	22219
846.886	22162
847.022	22276
847.158	22265
847.294	22223
847.429	22173
847.565	22093
847.701	22382
847.837	21869
847.972	21755
848.108	21903
848.244	22124
848.379	21934
848.515	21755
848.65	21671
848.786	21732
848.921	21667
849.057	21880
849.192	21915
849.328	21869
849.463	21785
849.598	21732
849.734	21709
849.869	21606
850.004	21511
850.14	21656
850.275	21576
850.41	21412
850.545	21549
850.68	21500
850.815	21644
850.95	21488
851.085	21762
851.22	21599
851.355	21553
851.49	21435
851.625	21515
851.76	21553
851.895	21538
852.03	21500
852.165	21561
852.299	21591
852.434	21564
852.569	21625
852.703	21595
852.838	21580
852.973	21606
853.107	21698
853.242	21534
853.376	21321
853.511	21237
853.645	21408
853.78	21443
853.914	21329
854.048	21256
854.183	21332
854.317	21329
854.451	21561
854.585	21454
854.72	21424
854.854	21382
854.988	21256
855.122	21325
855.256	21279
855.39	21298
855.524	21355
855.658	21405
855.792	21389
855.926	21389
856.06	21447
856.194	21454
856.327	21176
856.461	21173
856.595	21294
856.729	21272
856.862	21435
856.996	21340
857.13	21424
857.263	21454
857.397	21298
857.53	21340
857.664	21401
857.797	21462
857.931	21397
858.064	21542
858.197	21428
858.331	21264
858.464	21401
858.597	21108
858.731	21336
858.864	21435
858.997	21180
859.13	21336
859.263	21389
859.396	21367
859.529	21264
859.662	21188
859.795	21188
859.928	21462
860.061	21500
860.194	21534
860.327	21405
860.46	21336
860.592	21545
860.725	21492
860.858	21397
860.99	21431
861.123	21100
861.256	21317
861.388	21321
861.521	22013
861.653	21222
861.786	21062
861.918	21176
862.05	21165
862.183	21275
862.315	21275
862.447	21321
862.58	21241
862.712	21203
862.844	21028
862.976	21081
863.108	21070
863.24	21633
863.372	20921
863.504	21028
863.636	21020
863.768	21100
863.9	21009
864.032	21062
864.164	21135
864.296	21036
864.428	21116
864.559	21131
864.691	21089
864.823	21096
864.954	21028
865.086	20971
865.217	21032
865.349	20967
865.48	20975
865.612	21055
865.743	21013
865.875	20998
866.006	20910
866.137	21043
866.269	20921
866.4	20994
866.531	20838
866.662	20883
866.793	20868
866.924	20880
867.055	20902
867.186	20895
867.317	20800
867.448	20861
867.579	20887
867.71	20758
867.841	20842
867.972	20914
868.103	20811
868.233	20883
868.364	21001
868.495	20883
868.625	21169
868.756	21241
868.886	21161
869.017	21135
869.147	21195
869.278	21203
869.408	21123
869.539	21214
869.669	21184
869.799	21123
869.929	21241
870.06	21230
870.19	21454
870.32	21519
870.45	21389
870.58	21538
870.71	21595
870.84	21663
870.97	21538
871.1	21507
871.23	21614
871.36	21766
871.489	21515
871.619	21637
871.749	21800
871.879	21835
872.008	21766
872.138	21652
872.267	21755
872.397	21523
872.526	21564
872.656	21534
872.785	21473
872.915	21698
873.044	21846
873.173	21667
873.303	21766
873.432	21846
873.561	21785
873.69	21709
873.819	21679
873.948	21861
874.077	21778
874.206	21686
874.335	21606
874.464	21785
874.593	21922
874.722	21941
874.851	21998
874.979	21975
875.108	21922
875.237	21930
875.365	21838
875.494	21903
875.623	22055
875.751	22013
875.88	22006
876.008	22116
876.136	22185
876.265	22428
876.393	22497
876.521	22409
876.65	22573
876.778	22417
876.906	22306
877.034	22249
877.162	22314
877.29	22314
877.418	22409
877.546	22223
877.674	22367
877.802	22352
877.93	22318
878.058	22223
878.185	22177
878.313	22249
878.441	22276
878.568	22234
878.696	22154
878.824	22390
878.951	22379
879.079	22478
879.206	22569
879.333	22447
879.461	22474
879.588	22542
879.715	22592
879.842	22607
879.97	22348
880.097	22112
880.224	22196
880.351	22135
880.478	22310
880.605	22116
880.732	22211
880.859	22204
880.986	22166
881.112	22135
881.239	22078
881.366	21880
881.493	21781
881.619	21686
881.746	21751
881.872	21682
881.999	21625
882.125	21660
882.252	21713
882.378	21747
882.505	21751
882.631	21557
882.757	21568
882.883	21595
883.01	21447
883.136	21287
883.262	21313
883.388	21165
883.514	21458
883.64	21511
883.766	21325
883.892	21146
884.018	21264
884.143	21264
884.269	21496
884.395	21028
884.52	20986
884.646	21093
884.772	21051
884.897	20944
885.023	21173
885.148	21169
885.274	21161
885.399	20990
885.524	21036
885.65	21039
885.775	21047
885.9	21024
886.025	21154
886.15	21173
886.275	20979
886.4	20887
886.525	20982
886.65	20887
886.775	20948
886.9	21264
887.025	21226
887.149	20998
887.274	20861
887.399	20724
887.523	20773
887.648	20693
887.773	20678
887.897	20853
888.021	20796
888.146	20750
888.27	20921
888.395	20948
888.519	20750
888.643	20880
888.767	20826
888.891	20788
889.015	20617
889.139	20674
889.263	20587
889.387	20724
889.511	20686
889.635	20815
889.759	20579
889.883	20617
890.006	20693
890.13	20758
890.254	20533
890.377	20602
890.501	20366
890.624	20358
890.748	20454
890.871	20218
890.995	20183
891.118	20126
891.241	20240
891.364	20328
891.488	20286
891.611	20172
891.734	20229
891.857	20134
891.98	20172
892.103	20221
892.226	20100
892.349	20145
892.471	19989
892.594	20126
892.717	20054
892.839	20088
892.962	20043
893.085	20111
893.207	20122
893.33	20001
893.452	20024
893.575	20122
893.697	20043
893.819	20275
893.941	20225
894.064	20240
894.186	20054
894.308	20039
894.43	20157
894.552	20164
894.674	20183
894.796	19955
894.918	20187
895.04	20100
895.161	20168
895.283	20016
895.405	19974
895.526	20050
895.648	20145
895.769	20111
895.891	20103
896.012	20142
896.134	20130
896.255	20149
896.376	19997
896.498	20024
896.619	20145
896.74	20024
896.861	20145
896.982	20381
897.103	20621
897.224	20412
897.345	20336
897.466	20199
897.587	20259
897.708	20495
897.828	20320
897.949	20275
898.07	20111
898.19	20256
898.311	20381
898.431	20328
898.552	20294
898.672	20286
898.792	20313
898.913	20355
899.033	20317
899.153	20183
899.273	19974
899.393	20100
899.513	20024
899.633	20081
899.753	20016
899.873	20016
899.993	20039
900.113	20073
900.232	19974
900.352	19947
900.472	19928
900.591	19818
900.711	19807
900.83	19757
900.95	19902
901.069	19955
901.189	19761
901.308	19495
901.427	19373
901.546	19480
901.665	19381
901.784	19468
901.904	19369
902.023	19126
902.141	18939
902.26	18947
902.379	19012
902.498	18996
902.617	18833
902.735	18966
902.854	18833
902.973	18844
903.091	18616
903.21	18658
903.328	18540
903.446	18540
903.565	18243
903.683	18365
903.801	18266
903.919	18403
904.038	18456
904.156	18270
904.274	18251
904.392	18144
904.51	18148
904.627	18019
904.745	18171
904.863	18239
904.981	17961
905.098	17821
905.216	17889
905.334	17927
905.451	17882
905.569	17786
905.686	17821
905.803	17863
905.921	17608
906.038	17733
906.155	17802
906.272	17570
906.389	17478
906.506	17410
906.623	17364
906.74	17486
906.857	17261
906.974	17337
907.091	17398
907.208	17490
907.324	17387
907.441	17273
907.557	17094
907.674	17132
907.79	17003
907.907	16991
908.023	17079
908.139	17075
908.256	16995
908.372	17033
908.488	16942
908.604	16881
908.72	16736
908.836	16774
908.952	16816
909.068	16877
909.184	16953
909.3	16854
909.415	16843
909.531	16809
909.647	16493
909.762	16504
909.878	16580
909.993	16588
910.108	16493
910.224	16436
910.339	16428
910.454	16421
910.57	16379
910.685	16192
910.8	16531
910.915	16497
911.03	16272
911.145	16131
911.259	16093
911.374	16093
911.489	15998
911.604	15903
911.718	15888
911.833	15930
911.947	15793
912.062	15686
912.176	15861
912.291	15865
912.405	15899
912.519	16021
912.633	15998
912.748	15869
912.862	15827
912.976	15694
913.09	15625
913.204	15660
913.318	15698
913.431	15728
913.545	15724
913.659	15819
913.772	15637
913.886	15568
914	15397
914.113	15492
914.226	15679
914.34	15507
914.453	15412
914.566	15492
914.68	15321
914.793	15351
914.906	15119
915.019	15150
915.132	14952
915.245	15138
915.358	15116
915.47	15097
915.583	15176
915.696	15127
915.809	15188
915.921	15249
916.034	14990
916.146	15028
916.259	14982
916.371	15081
916.483	14971
916.595	14918
916.708	14937
916.82	14960
916.932	14933
917.044	14845
917.156	14838
917.268	14724
917.38	14765
917.491	14693
917.603	14876
917.715	14746
917.826	14800
917.938	14708
918.049	14564
918.161	14670
918.272	14765
918.384	14640
918.495	14629
918.606	14556
918.717	14385
918.828	14511
918.939	14514
919.05	14377
919.161	14492
919.272	14305
919.383	14412
919.494	14434
919.604	14746
919.715	14492
919.826	14366
919.936	14370
920.047	14454
920.157	14476
920.267	14575
920.378	14408
920.488	14438
920.598	14659
920.708	14731
920.818	14522
920.928	14579
921.038	14705
921.148	14613
921.258	14518
921.368	14336
921.477	14195
921.587	14157
921.697	14081
921.806	14233
921.916	14130
922.025	13841
922.134	13845
922.244	13811
922.353	13944
922.462	13750
922.571	13670
922.68	13552
922.789	13495
922.898	13453
923.007	13373
923.116	13502
923.224	13400
923.333	13525
923.442	13438
923.55	13438
923.659	13285
923.767	13384
923.876	13217
923.984	13327
924.092	13175
924.201	13160
924.309	13251
924.417	13266
924.525	13160
924.633	13133
924.741	13894
924.849	12913
924.956	13038
925.064	12920
925.172	12764
925.279	12848
925.387	12848
925.494	12954
925.602	13019
925.709	13000
925.816	12821
925.924	12779
926.031	12920
926.138	12825
926.245	12829
926.352	12745
926.459	12852
926.566	12867
926.673	12779
926.779	12563
926.886	12608
926.993	12544
927.099	12464
927.206	12369
927.312	12452
927.419	12490
927.525	12452
927.631	12563
927.737	12308
927.843	12380
927.95	12232
928.056	12232
928.162	12304
928.267	12350
928.373	12871
928.479	12350
928.585	12201
928.69	12239
928.796	12285
928.901	12178
929.007	11973
929.112	12106
929.218	12129
929.323	12057
929.428	12011
929.533	12079
929.638	11973
929.743	11973
929.848	12003
929.953	11969
930.058	11916
930.163	11684
930.267	11733
930.372	11828
930.477	11634
930.581	11874
930.685	11817
930.79	11570
930.894	11604
930.998	11562
931.103	11741
931.207	11334
931.311	11250
931.415	11261
931.519	10934
931.623	10968
