Data from test_V78500241_620.txt Node
Date: Fri Mar 25 15:14:10 CST 2022
User: usil
Spectrometer: V785-0024
Trigger mode: 0
Integration Time (sec): 4.000000E-1
Scans to average: 1
Nonlinearity correction enabled: false
Boxcar width: 0
Storing dark spectrum: false
XAxis mode: Wavelengths
Number of Pixels in Spectrum: 1024
>>>>>Begin Spectral Data<<<<<
801.071	27770
801.214	27496
801.356	27389
801.499	27268
801.641	27256
801.783	27222
801.926	27230
802.068	27176
802.211	27116
802.353	27100
802.496	26861
802.638	26929
802.78	26944
802.923	26807
803.065	26952
803.208	26883
803.35	26796
803.492	26937
803.635	26956
803.777	26845
803.919	27047
804.061	27348
804.204	27047
804.346	26948
804.488	27074
804.63	26960
804.773	26895
804.915	27074
805.057	27188
805.199	27070
805.341	27123
805.483	27093
805.626	27150
805.768	26963
805.91	27195
806.052	27001
806.194	27100
806.336	27405
806.478	27321
806.62	27093
806.762	27264
806.904	27378
807.046	27713
807.188	27682
807.33	27557
807.472	27622
807.614	27462
807.756	27515
807.898	27359
808.04	27473
808.182	27416
808.324	27397
808.465	27538
808.607	27545
808.749	27698
808.891	27732
809.033	27968
809.174	27808
809.316	27800
809.458	27736
809.6	27774
809.741	27949
809.883	27930
810.025	28097
810.166	28097
810.308	28143
810.45	27983
810.591	28109
810.733	27835
810.875	27785
811.016	27705
811.158	27720
811.299	27983
811.441	27918
811.582	27953
811.724	27857
811.865	27682
812.007	27827
812.148	27789
812.29	27850
812.431	27972
812.573	28101
812.714	28287
812.855	28356
812.997	28421
813.138	28447
813.279	28401
813.421	28379
813.562	28356
813.703	28074
813.845	28063
813.986	27766
814.127	27686
814.268	27583
814.41	27416
814.551	27561
814.692	27603
814.833	27477
814.974	27389
815.115	27393
815.256	27374
815.397	27348
815.539	27511
815.68	27344
815.821	27237
815.962	27355
816.103	27275
816.244	27093
816.385	27169
816.526	26963
816.666	26929
816.807	26830
816.948	26746
817.089	26880
817.23	26853
817.371	26887
817.512	26861
817.653	26773
817.793	26804
817.934	26815
818.075	26804
818.216	26724
818.356	26811
818.497	26571
818.638	26499
818.778	26442
818.919	26488
819.06	26632
819.2	26606
819.341	26792
819.481	26861
819.622	26845
819.762	26975
819.903	26937
820.043	26853
820.184	26811
820.324	26925
820.465	26967
820.605	26940
820.746	26853
820.886	26857
821.026	26796
821.167	26895
821.307	26948
821.447	26785
821.588	26640
821.728	26575
821.868	26457
822.008	26256
822.149	26191
822.289	26164
822.429	26031
822.569	26016
822.709	25852
822.849	25780
822.99	25917
823.13	25685
823.27	25651
823.41	25483
823.55	25430
823.69	25483
823.83	25567
823.97	25559
824.11	25468
824.25	25365
824.389	25441
824.529	25422
824.669	25350
824.809	25559
824.949	25457
825.089	25468
825.228	25335
825.368	25133
825.508	25206
825.648	25324
825.787	25190
825.927	25324
826.067	25126
826.206	25255
826.346	25331
826.485	25320
826.625	25297
826.765	25445
826.904	25468
827.044	25019
827.183	25069
827.323	24981
827.462	24985
827.601	24958
827.741	24958
827.88	25012
828.02	24939
828.159	24951
828.298	24992
828.437	24973
828.577	24905
828.716	25076
828.855	24947
828.994	24665
829.134	24635
829.273	24646
829.412	24707
829.551	24608
829.69	24840
829.829	24722
829.968	24798
830.107	24856
830.246	24612
830.385	24669
830.524	24608
830.663	24525
830.802	24441
830.941	24292
831.08	24277
831.219	24441
831.357	24403
831.496	24502
831.635	24292
831.774	24338
831.913	24182
832.051	24121
832.19	23984
832.329	24254
832.467	24057
832.606	23927
832.744	23954
832.883	23988
833.022	23999
833.16	24079
833.299	23958
833.437	24121
833.576	24011
833.714	24072
833.852	24091
833.991	24102
834.129	24114
834.267	24178
834.406	24133
834.544	24129
834.682	24098
834.821	24045
834.959	24323
835.097	24018
835.235	24083
835.373	24007
835.511	24076
835.65	24038
835.788	23855
835.926	23882
836.064	23760
836.202	23733
836.34	23809
836.478	23980
836.615	23923
836.753	23912
836.891	23927
837.029	23954
837.167	23809
837.305	23870
837.443	23855
837.58	23771
837.718	23885
837.856	23703
837.993	23828
838.131	23729
838.269	23649
838.406	23558
838.544	23531
838.681	23330
838.819	23246
838.956	23250
839.094	23235
839.231	23250
839.369	23417
839.506	23668
839.643	23478
839.781	23166
839.918	23155
840.055	23258
840.193	23162
840.33	23044
840.467	23216
840.604	23064
840.742	23299
840.879	22946
841.016	23102
841.153	22919
841.29	23223
841.427	23124
841.564	23231
841.701	23242
841.838	23117
841.975	22991
842.112	22980
842.249	22957
842.385	22786
842.522	23113
842.659	22991
842.796	22889
842.933	22892
843.069	22820
843.206	22816
843.343	23022
843.479	22869
843.616	22911
843.752	22649
843.889	22679
844.025	22839
844.162	22561
844.298	22717
844.435	22573
844.571	22664
844.708	22713
844.844	22824
844.98	22793
845.117	22771
845.253	22634
845.389	22535
845.525	22489
845.661	22561
845.798	22360
845.934	22424
846.07	22360
846.206	22371
846.342	22569
846.478	22329
846.614	22185
846.75	22097
846.886	22090
847.022	22192
847.158	22166
847.294	22173
847.429	22238
847.565	22173
847.701	22432
847.837	21724
847.972	21835
848.108	22021
848.244	21918
848.379	21739
848.515	21728
848.65	21652
848.786	21713
848.921	21698
849.057	21857
849.192	21774
849.328	21724
849.463	21808
849.598	21720
849.734	21679
849.869	21606
850.004	21443
850.14	21545
850.275	21469
850.41	21424
850.545	21557
850.68	21313
850.815	21469
850.95	21507
851.085	21720
851.22	21599
851.355	21519
851.49	21523
851.625	21496
851.76	21496
851.895	21439
852.03	21496
852.165	21466
852.299	21519
852.434	21641
852.569	21595
852.703	21450
852.838	21583
852.973	21614
853.107	21622
853.242	21443
853.376	21344
853.511	21298
853.645	21230
853.78	21363
853.914	21363
854.048	21249
854.183	21382
854.317	21325
854.451	21485
854.585	21317
854.72	21363
854.854	21363
854.988	21199
855.122	21359
855.256	21336
855.39	21203
855.524	21344
855.658	21325
855.792	21363
855.926	21351
856.06	21382
856.194	21302
856.327	21450
856.461	21329
856.595	21161
856.729	21359
856.862	21408
856.996	21241
857.13	21401
857.263	21382
857.397	21447
857.53	21237
857.664	21416
857.797	21389
857.931	21401
858.064	21173
858.197	21469
858.331	21237
858.464	21416
858.597	21218
858.731	21279
858.864	21275
858.997	21249
859.13	21306
859.263	21443
859.396	21435
859.529	21268
859.662	21256
859.795	21199
859.928	21298
860.061	21439
860.194	21610
860.327	21329
860.46	21325
860.592	21462
860.725	21458
860.858	21355
860.99	21249
861.123	21173
861.256	21184
861.388	21313
861.521	22139
861.653	21135
861.786	21108
861.918	21070
862.05	21157
862.183	21264
862.315	21317
862.447	21351
862.58	21241
862.712	21028
862.844	21123
862.976	21123
863.108	21184
863.24	21443
863.372	20994
863.504	20933
863.636	21077
863.768	21013
863.9	21119
864.032	20952
864.164	20918
864.296	20933
864.428	21173
864.559	21104
864.691	21028
864.823	20948
864.954	21085
865.086	21157
865.217	20792
865.349	20845
865.48	20918
865.612	20944
865.743	21020
865.875	20906
866.006	20921
866.137	20929
866.269	20921
866.4	20895
866.531	20735
866.662	20929
866.793	20845
866.924	20857
867.055	20769
867.186	20853
867.317	20781
867.448	20727
867.579	20864
867.71	20739
867.841	20883
867.972	20769
868.103	20712
868.233	20758
868.364	20811
868.495	20849
868.625	21077
868.756	21211
868.886	20975
869.017	21074
869.147	21169
869.278	21176
869.408	21169
869.539	21013
869.669	21051
869.799	21184
869.929	21214
870.06	21245
870.19	21245
870.32	21454
870.45	21511
870.58	21420
870.71	21504
870.84	21599
870.97	21515
871.1	21515
871.23	21606
871.36	21800
871.489	21564
871.619	21865
871.749	21667
871.879	21629
872.008	21739
872.138	21660
872.267	21705
872.397	21526
872.526	21443
872.656	21526
872.785	21610
872.915	21739
873.044	21774
873.173	21606
873.303	21690
873.432	21759
873.561	21747
873.69	21724
873.819	21466
873.948	21797
874.077	21698
874.206	21724
874.335	21629
874.464	21793
874.593	21899
874.722	21983
874.851	21880
874.979	22021
875.108	21960
875.237	21903
875.365	21865
875.494	21899
875.623	22105
875.751	21865
875.88	21880
876.008	22036
876.136	22067
876.265	22310
876.393	22337
876.521	22409
876.65	22394
876.778	22230
876.906	22261
877.034	22234
877.162	22299
877.29	22124
877.418	22249
877.546	22443
877.674	22097
877.802	22219
877.93	22246
878.058	22200
878.185	22192
878.313	22211
878.441	22150
878.568	22044
878.696	22120
878.824	22352
878.951	22341
879.079	22451
879.206	22508
879.333	22394
879.461	22306
879.588	22390
879.715	22493
879.842	22634
879.97	22360
880.097	22078
880.224	22086
880.351	22177
880.478	22013
880.605	22040
880.732	21915
880.859	22299
880.986	22013
881.112	22124
881.239	21994
881.366	21793
881.493	21743
881.619	21698
881.746	21713
881.872	21717
881.999	21572
882.125	21557
882.252	21656
882.378	21732
882.505	21690
882.631	21523
882.757	21420
882.883	21367
883.01	21416
883.136	21439
883.262	21264
883.388	21237
883.514	21336
883.64	21447
883.766	21279
883.892	21096
884.018	21138
884.143	21195
884.269	21332
884.395	21005
884.52	21036
884.646	20937
884.772	21024
884.897	20925
885.023	21028
885.148	21047
885.274	21062
885.399	21096
885.524	21028
885.65	21039
885.775	20887
885.9	20845
886.025	21142
886.15	21062
886.275	20853
886.4	20921
886.525	21020
886.65	20952
886.775	20895
886.9	21146
887.025	21207
887.149	20891
887.274	20883
887.399	20823
887.523	20918
887.648	20750
887.773	20758
887.897	20883
888.021	20686
888.146	20640
888.27	20861
888.395	20842
888.519	20792
888.643	20921
888.767	20864
888.891	20670
889.015	20564
889.139	20743
889.263	20514
889.387	20815
889.511	20670
889.635	20842
889.759	20511
889.883	20434
890.006	20552
890.13	20724
890.254	20583
890.377	20461
890.501	20351
890.624	20412
890.748	20370
890.871	20237
890.995	20130
891.118	20122
891.241	20153
891.364	20286
891.488	20313
891.611	20164
891.734	20046
891.857	20271
891.98	20058
892.103	20149
892.226	20081
892.349	20119
892.471	19963
892.594	20046
892.717	20142
892.839	19993
892.962	20035
893.085	20111
893.207	20157
893.33	19902
893.452	19963
893.575	20062
893.697	20046
893.819	20149
893.941	20187
894.064	20145
894.186	19993
894.308	20065
894.43	20046
894.552	20183
894.674	20122
894.796	20031
894.918	20024
895.04	20088
895.161	20126
895.283	20084
895.405	19955
895.526	20031
895.648	20065
895.769	20096
895.891	20088
896.012	20001
896.134	20130
896.255	20161
896.376	20031
896.498	20016
896.619	20039
896.74	19974
896.861	20119
896.982	20339
897.103	20461
897.224	20309
897.345	20229
897.466	20130
897.587	20210
897.708	20358
897.828	20271
897.949	20286
898.07	20100
898.19	20191
898.311	20324
898.431	20233
898.552	20343
898.672	20343
898.792	20305
898.913	20237
899.033	20168
899.153	20046
899.273	20024
899.393	20103
899.513	19947
899.633	19932
899.753	19974
899.873	19913
899.993	20012
900.113	19894
900.232	19894
900.352	19963
900.472	19894
900.591	19731
900.711	19860
900.83	19746
900.95	19769
901.069	19890
901.189	19712
901.308	19464
901.427	19445
901.546	19373
901.665	19472
901.784	19392
901.904	19221
902.023	19122
902.141	19091
902.26	18943
902.379	18875
902.498	18943
902.617	18859
902.735	18985
902.854	18886
902.973	18749
903.091	18669
903.21	18532
903.328	18658
903.446	18521
903.565	18426
903.683	18311
903.801	18323
903.919	18251
904.038	18270
904.156	18087
904.274	18327
904.392	18144
904.51	18106
904.627	18201
904.745	18209
904.863	18178
904.981	17946
905.098	17866
905.216	17748
905.334	17798
905.451	17969
905.569	17756
905.686	17923
905.803	17885
905.921	17638
906.038	17832
906.155	17627
906.272	17589
906.389	17471
906.506	17436
906.623	17379
906.74	17353
906.857	17326
906.974	17242
907.091	17478
907.208	17463
907.324	17376
907.441	17280
907.557	17151
907.674	17109
907.79	17010
907.907	17155
908.023	17075
908.139	17105
908.256	16984
908.372	17102
908.488	16991
908.604	16782
908.72	16771
908.836	16771
908.952	16854
909.068	16869
909.184	16850
909.3	16858
909.415	16858
909.531	16797
909.647	16409
909.762	16500
909.878	16508
909.993	16447
910.108	16561
910.224	16485
910.339	16527
910.454	16447
910.57	16394
910.685	16367
910.8	16493
910.915	16470
911.03	16325
911.145	16204
911.259	16097
911.374	16124
911.489	16021
911.604	15949
911.718	15770
911.833	15842
911.947	15698
912.062	15603
912.176	15785
912.291	15785
912.405	15850
912.519	15979
912.633	16002
912.748	15903
912.862	15895
912.976	15663
913.09	15572
913.204	15625
913.318	15629
913.431	15915
913.545	15804
913.659	15728
913.772	15652
913.886	15500
914	15458
914.113	15553
914.226	15614
914.34	15519
914.453	15397
914.566	15580
914.68	15393
914.793	15313
914.906	15169
915.019	15085
915.132	15070
915.245	15058
915.358	15089
915.47	15131
915.583	15097
915.696	15165
915.809	15131
915.921	15298
916.034	15119
916.146	15013
916.259	15051
916.371	15039
916.483	14975
916.595	15028
916.708	14925
916.82	14804
916.932	14845
917.044	14883
917.156	14823
917.268	14785
917.38	14682
917.491	14785
917.603	14746
917.715	14731
917.826	14857
917.938	14697
918.049	14549
918.161	14632
918.272	14781
918.384	14861
918.495	14731
918.606	14560
918.717	14362
918.828	14511
918.939	14640
919.05	14511
919.161	14465
919.272	14187
919.383	14309
919.494	14480
919.604	14720
919.715	14552
919.826	14355
919.936	14438
920.047	14579
920.157	14427
920.267	14659
920.378	14476
920.488	14389
920.598	14667
920.708	14693
920.818	14632
920.928	14613
921.038	14750
921.148	14720
921.258	14400
921.368	14252
921.477	14252
921.587	14180
921.697	14020
921.806	14206
921.916	14024
922.025	13925
922.134	13833
922.244	13788
922.353	13803
922.462	13742
922.571	13708
922.68	13510
922.789	13495
922.898	13590
923.007	13411
923.116	13521
923.224	13529
923.333	13514
923.442	13419
923.55	13289
923.659	13217
923.767	13381
923.876	13247
923.984	13358
924.092	13194
924.201	13381
924.309	13217
924.417	13228
924.525	13164
924.633	13168
924.741	13974
924.849	12939
924.956	13072
925.064	12973
925.172	12867
925.279	12852
925.387	12939
925.494	12951
925.602	13103
925.709	12882
925.816	12738
925.924	12886
926.031	12913
926.138	12844
926.245	12882
926.352	12741
926.459	12939
926.566	12939
926.673	12722
926.779	12662
926.886	12654
926.993	12467
927.099	12528
927.206	12429
927.312	12376
927.419	12544
927.525	12467
927.631	12536
927.737	12437
927.843	12273
927.95	12175
928.056	12243
928.162	12353
928.267	12369
928.373	13038
928.479	12338
928.585	12148
928.69	12243
928.796	12346
928.901	12213
929.007	12045
929.112	12114
929.218	12155
929.323	12095
929.428	12034
929.533	12171
929.638	11969
929.743	12026
929.848	12003
929.953	12045
930.058	11885
930.163	11737
930.267	11718
930.372	11809
930.477	11729
930.581	11920
930.685	11718
930.79	11642
930.894	11672
930.998	11551
931.103	11665
931.207	11356
931.311	11337
931.415	11208
931.519	11083
931.623	10968
