Data from test_V78500241_1464.txt Node
Date: Fri Mar 25 15:20:03 CST 2022
User: usil
Spectrometer: V785-0024
Trigger mode: 0
Integration Time (sec): 4.000000E-1
Scans to average: 1
Nonlinearity correction enabled: false
Boxcar width: 0
Storing dark spectrum: false
XAxis mode: Wavelengths
Number of Pixels in Spectrum: 1024
>>>>>Begin Spectral Data<<<<<
801.071	28147
801.214	27991
801.356	27751
801.499	27629
801.641	27610
801.783	27393
801.926	27538
802.068	27622
802.211	27386
802.353	27310
802.496	27275
802.638	27260
802.78	27180
802.923	27096
803.065	27100
803.208	27188
803.35	27252
803.492	27310
803.635	27348
803.777	27150
803.919	27302
804.061	27618
804.204	27332
804.346	27272
804.488	27332
804.63	27450
804.773	27214
804.915	27439
805.057	27576
805.199	27416
805.341	27355
805.483	27587
805.626	27488
805.768	27443
805.91	27545
806.052	27523
806.194	27587
806.336	27717
806.478	27652
806.62	27488
806.762	27747
806.904	27759
807.046	28010
807.188	27991
807.33	28006
807.472	28059
807.614	27759
807.756	27949
807.898	27838
808.04	27884
808.182	27884
808.324	27804
808.465	27949
808.607	28116
808.749	28230
808.891	28299
809.033	28291
809.174	28158
809.316	28063
809.458	28086
809.6	28074
809.741	28249
809.883	28417
810.025	28740
810.166	28481
810.308	28485
810.45	28398
810.591	28318
810.733	28150
810.875	28105
811.016	28105
811.158	28101
811.299	28200
811.441	28230
811.582	28379
811.724	28131
811.865	28211
812.007	28124
812.148	28128
812.29	28154
812.431	28409
812.573	28618
812.714	28672
812.855	28611
812.997	28763
813.138	28820
813.279	28835
813.421	28740
813.562	28809
813.703	28618
813.845	28204
813.986	28169
814.127	28032
814.268	27960
814.41	27972
814.551	27873
814.692	27873
814.833	27739
814.974	27892
815.115	27873
815.256	27739
815.397	27831
815.539	27713
815.68	27743
815.821	27686
815.962	27781
816.103	27572
816.244	27515
816.385	27416
816.526	27485
816.666	27241
816.807	27039
816.948	27211
817.089	27317
817.23	27165
817.371	27112
817.512	27241
817.653	27161
817.793	27199
817.934	27233
818.075	27138
818.216	27146
818.356	27047
818.497	26967
818.638	26845
818.778	26804
818.919	27005
819.06	27138
819.2	27096
819.341	27199
819.481	27093
819.622	27321
819.762	27492
819.903	27359
820.043	27302
820.184	27313
820.324	27230
820.465	27264
820.605	27348
820.746	27306
820.886	27112
821.026	27176
821.167	27211
821.307	27214
821.447	27291
821.588	27142
821.728	27013
821.868	26724
822.008	26648
822.149	26606
822.289	26602
822.429	26511
822.569	26423
822.709	26332
822.849	26282
822.99	26134
823.13	26081
823.27	26145
823.41	25940
823.55	25887
823.69	25986
823.83	25940
823.97	25959
824.11	25651
824.25	25811
824.389	25712
824.529	25830
824.669	25860
824.809	25890
824.949	25974
825.089	25883
825.228	25890
825.368	25639
825.508	25708
825.648	25723
825.787	25677
825.927	25723
826.067	25571
826.206	25666
826.346	25693
826.485	25651
826.625	25769
826.765	25731
826.904	25670
827.044	25476
827.183	25419
827.323	25274
827.462	25274
827.601	25324
827.741	25384
827.88	25324
828.02	25289
828.159	25381
828.298	25259
828.437	25339
828.577	25255
828.716	25514
828.855	25312
828.994	25046
829.134	25050
829.273	25168
829.412	24973
829.551	24951
829.69	24932
829.829	24935
829.968	25232
830.107	25065
830.246	25065
830.385	24989
830.524	24932
830.663	24856
830.802	24764
830.941	24741
831.08	24654
831.219	24745
831.357	24642
831.496	24806
831.635	24757
831.774	24517
831.913	24494
832.051	24498
832.19	24464
832.329	24441
832.467	24395
832.606	24155
832.744	24247
832.883	24365
833.022	24243
833.16	24334
833.299	24460
833.437	24338
833.576	24471
833.714	24467
833.852	24513
833.991	24509
834.129	24547
834.267	24471
834.406	24410
834.544	24410
834.682	24380
834.821	24304
834.959	24563
835.097	24429
835.235	24441
835.373	24384
835.511	24376
835.65	24270
835.788	24194
835.926	24049
836.064	23904
836.202	24190
836.34	24167
836.478	24216
836.615	24235
836.753	24289
836.891	24239
837.029	24201
837.167	24076
837.305	24102
837.443	24053
837.58	23931
837.718	24174
837.856	24114
837.993	23859
838.131	24045
838.269	23790
838.406	23946
838.544	23805
838.681	23657
838.819	23615
838.956	23425
839.094	23516
839.231	23554
839.369	23665
839.506	23878
839.643	23653
839.781	23467
839.918	23501
840.055	23440
840.193	23558
840.33	23463
840.467	23311
840.604	23501
840.742	23630
840.879	23311
841.016	23311
841.153	23280
841.29	23551
841.427	23356
841.564	23455
841.701	23425
841.838	23254
841.975	23212
842.112	23269
842.249	23212
842.385	23033
842.522	23448
842.659	23204
842.796	23155
842.933	23113
843.069	23102
843.206	23113
843.343	23208
843.479	23079
843.616	23086
843.752	23006
843.889	22873
844.025	23041
844.162	23037
844.298	23022
844.435	22949
844.571	22896
844.708	22976
844.844	23151
844.98	23098
845.117	22968
845.253	22847
845.389	22702
845.525	22847
845.661	22790
845.798	22615
845.934	22805
846.07	22713
846.206	22691
846.342	22805
846.478	22641
846.614	22447
846.75	22344
846.886	22519
847.022	22508
847.158	22424
847.294	22500
847.429	22500
847.565	22432
847.701	22653
847.837	22059
847.972	22097
848.108	22287
848.244	22223
848.379	21975
848.515	21918
848.65	21899
848.786	22051
848.921	22044
849.057	21991
849.192	22147
849.328	22067
849.463	21854
849.598	21838
849.734	21926
849.869	21854
850.004	21873
850.14	21781
850.275	21755
850.41	21743
850.545	21652
850.68	21720
850.815	21789
850.95	21690
851.085	21915
851.22	21831
851.355	21713
851.49	21797
851.625	21736
851.76	21751
851.895	21629
852.03	21595
852.165	21717
852.299	21724
852.434	21823
852.569	21690
852.703	21827
852.838	21892
852.973	21831
853.107	21846
853.242	21648
853.376	21523
853.511	21500
853.645	21557
853.78	21739
853.914	21504
854.048	21538
854.183	21564
854.317	21591
854.451	21717
854.585	21572
854.72	21583
854.854	21610
854.988	21549
855.122	21603
855.256	21439
855.39	21507
855.524	21625
855.658	21549
855.792	21644
855.926	21622
856.06	21690
856.194	21804
856.327	21538
856.461	21576
856.595	21549
856.729	21580
856.862	21709
856.996	21625
857.13	21557
857.263	21838
857.397	21739
857.53	21724
857.664	21690
857.797	21660
857.931	21774
858.064	21530
858.197	21656
858.331	21606
858.464	21485
858.597	21424
858.731	21481
858.864	21549
858.997	21629
859.13	21538
859.263	21606
859.396	21751
859.529	21633
859.662	21603
859.795	21545
859.928	21553
860.061	21717
860.194	21724
860.327	21660
860.46	21564
860.592	21793
860.725	21804
860.858	21819
860.99	21545
861.123	21504
861.256	21603
861.388	21629
861.521	22082
861.653	21420
861.786	21431
861.918	21462
862.05	21428
862.183	21576
862.315	21447
862.447	21538
862.58	21530
862.712	21313
862.844	21249
862.976	21317
863.108	21332
863.24	21739
863.372	21226
863.504	21313
863.636	21233
863.768	21294
863.9	21252
864.032	21150
864.164	21329
864.296	21188
864.428	21401
864.559	21344
864.691	21447
864.823	21359
864.954	21351
865.086	21344
865.217	21093
865.349	21154
865.48	21211
865.612	21302
865.743	21294
865.875	21169
866.006	21157
866.137	21123
866.269	21241
866.4	21180
866.531	21024
866.662	21055
866.793	21161
866.924	21192
867.055	21317
867.186	21127
867.317	21108
867.448	21085
867.579	21142
867.71	20979
867.841	21127
867.972	21157
868.103	21100
868.233	21081
868.364	21161
868.495	21249
868.625	21348
868.756	21488
868.886	21317
869.017	21412
869.147	21450
869.278	21389
869.408	21355
869.539	21393
869.669	21447
869.799	21344
869.929	21663
870.06	21397
870.19	21728
870.32	21656
870.45	21675
870.58	21770
870.71	21766
870.84	21857
870.97	21701
871.1	21713
871.23	21899
871.36	21880
871.489	21975
871.619	21968
871.749	22086
871.879	22082
872.008	22086
872.138	22006
872.267	21926
872.397	21850
872.526	21736
872.656	21850
872.785	21869
872.915	22017
873.044	22063
873.173	21994
873.303	22010
873.432	22116
873.561	22044
873.69	22055
873.819	21930
873.948	22135
874.077	21968
874.206	21907
874.335	21979
874.464	22109
874.593	22268
874.722	22173
874.851	22310
874.979	22097
875.108	22207
875.237	22284
875.365	21964
875.494	22253
875.623	22135
875.751	22101
875.88	22135
876.008	22207
876.136	22314
876.265	22546
876.393	22573
876.521	22622
876.65	22573
876.778	22733
876.906	22443
877.034	22611
877.162	22535
877.29	22485
877.418	22500
877.546	22474
877.674	22504
877.802	22531
877.93	22398
878.058	22542
878.185	22474
878.313	22538
878.441	22550
878.568	22348
878.696	22398
878.824	22557
878.951	22706
879.079	22725
879.206	22839
879.333	22710
879.461	22645
879.588	22554
879.715	22717
879.842	22805
879.97	22683
880.097	22318
880.224	22356
880.351	22352
880.478	22402
880.605	22314
880.732	22306
880.859	22462
880.986	22337
881.112	22341
881.239	22181
881.366	22059
881.493	22032
881.619	21945
881.746	21968
881.872	21941
881.999	21888
882.125	21804
882.252	21987
882.378	21975
882.505	22055
882.631	21770
882.757	21599
882.883	21606
883.01	21679
883.136	21553
883.262	21428
883.388	21488
883.514	21622
883.64	21641
883.766	21652
883.892	21355
884.018	21393
884.143	21610
884.269	21679
884.395	21340
884.52	21260
884.646	21249
884.772	21325
884.897	21074
885.023	21268
885.148	21553
885.274	21408
885.399	21450
885.524	21348
885.65	21214
885.775	21302
885.9	21131
886.025	21389
886.15	21329
886.275	21142
886.4	21150
886.525	21207
886.65	21222
886.775	21142
886.9	21370
887.025	21401
887.149	21131
887.274	20990
887.399	20971
887.523	20979
887.648	20994
887.773	20899
887.897	21066
888.021	21028
888.146	20952
888.27	21150
888.395	21203
888.519	20990
888.643	21108
888.767	21058
888.891	20975
889.015	20960
889.139	20963
889.263	20792
889.387	20910
889.511	20960
889.635	20990
889.759	20693
889.883	20864
890.006	20861
890.13	20895
890.254	20735
890.377	20727
890.501	20632
890.624	20393
890.748	20674
890.871	20434
890.995	20377
891.118	20221
891.241	20263
891.364	20385
891.488	20530
891.611	20434
891.734	20366
891.857	20400
891.98	20415
892.103	20473
892.226	20431
892.349	20271
892.471	20168
892.594	20427
892.717	20298
892.839	20404
892.962	20305
893.085	20431
893.207	20286
893.33	20164
893.452	20187
893.575	20381
893.697	20317
893.819	20385
893.941	20370
894.064	20374
894.186	20122
894.308	20202
894.43	20385
894.552	20370
894.674	20263
894.796	20157
894.918	20309
895.04	20271
895.161	20324
895.283	20351
895.405	20191
895.526	20309
895.648	20225
895.769	20271
895.891	20290
896.012	20400
896.134	20404
896.255	20218
896.376	20221
896.498	20298
896.619	20259
896.74	20301
896.861	20271
896.982	20579
897.103	20708
897.224	20522
897.345	20507
897.466	20427
897.587	20495
897.708	20606
897.828	20503
897.949	20473
898.07	20317
898.19	20396
898.311	20530
898.431	20503
898.552	20438
898.672	20427
898.792	20571
898.913	20473
899.033	20259
899.153	20355
899.273	20191
899.393	20172
899.513	20328
899.633	20122
899.753	20202
899.873	20172
899.993	20202
900.113	20161
900.232	20271
900.352	20126
900.472	20020
900.591	19986
900.711	20122
900.83	20016
900.95	20161
901.069	20267
901.189	19795
901.308	19750
901.427	19590
901.546	19738
901.665	19628
901.784	19597
901.904	19453
902.023	19259
902.141	19168
902.26	19194
902.379	19304
902.498	19042
902.617	19046
902.735	19175
902.854	19084
902.973	19053
903.091	18817
903.21	18779
903.328	18905
903.446	18707
903.565	18551
903.683	18681
903.801	18448
903.919	18536
904.038	18566
904.156	18445
904.274	18410
904.392	18342
904.51	18346
904.627	18285
904.745	18270
904.863	18361
904.981	18174
905.098	17973
905.216	18072
905.334	18117
905.451	18045
905.569	17977
905.686	18114
905.803	18030
905.921	17737
906.038	17920
906.155	17805
906.272	17813
906.389	17638
906.506	17592
906.623	17539
906.74	17604
906.857	17482
906.974	17501
907.091	17554
907.208	17687
907.324	17554
907.441	17318
907.557	17296
907.674	17231
907.79	17178
907.907	17277
908.023	17277
908.139	17341
908.256	17220
908.372	17174
908.488	17170
908.604	16953
908.72	16949
908.836	16991
908.952	16987
909.068	17014
909.184	17022
909.3	16949
909.415	17003
909.531	16972
909.647	16656
909.762	16736
909.878	16702
909.993	16736
910.108	16599
910.224	16512
910.339	16573
910.454	16538
910.57	16546
910.685	16409
910.8	16679
910.915	16755
911.03	16428
911.145	16360
911.259	16246
911.374	16196
911.489	16204
911.604	16147
911.718	16048
911.833	16025
911.947	15880
912.062	15846
912.176	16017
912.291	15880
912.405	16002
912.519	16147
912.633	16261
912.748	16116
912.862	15968
912.976	15873
913.09	15732
913.204	15728
913.318	15793
913.431	16040
913.545	15903
913.659	15903
913.772	15831
913.886	15724
914	15720
914.113	15633
914.226	15793
914.34	15656
914.453	15481
914.566	15660
914.68	15496
914.793	15523
914.906	15393
915.019	15279
915.132	15135
915.245	15237
915.358	15188
915.47	15268
915.583	15233
915.696	15298
915.809	15363
915.921	15401
916.034	15192
916.146	15108
916.259	15077
916.371	15222
916.483	15093
916.595	15085
916.708	15081
916.82	15009
916.932	14979
917.044	14914
917.156	14967
917.268	14864
917.38	14872
917.491	14750
917.603	14826
917.715	15032
917.826	14975
917.938	14804
918.049	14689
918.161	14868
918.272	14941
918.384	15009
918.495	14838
918.606	14644
918.717	14571
918.828	14590
918.939	14648
919.05	14552
919.161	14545
919.272	14377
919.383	14526
919.494	14750
919.604	14861
919.715	14560
919.826	14583
919.936	14552
920.047	14720
920.157	14682
920.267	14883
920.378	14663
920.488	14556
920.598	14651
920.708	14960
920.818	14845
920.928	14708
921.038	14895
921.148	14735
921.258	14655
921.368	14454
921.477	14278
921.587	14267
921.697	14180
921.806	14324
921.916	14267
922.025	14027
922.134	13928
922.244	13928
922.353	14039
922.462	13818
922.571	13700
922.68	13715
922.789	13620
922.898	13613
923.007	13662
923.116	13696
923.224	13727
923.333	13563
923.442	13510
923.55	13491
923.659	13514
923.767	13441
923.876	13426
923.984	13460
924.092	13362
924.201	13308
924.309	13381
924.417	13377
924.525	13232
924.633	13240
924.741	14012
924.849	13084
924.956	13171
925.064	13095
925.172	13015
925.279	13034
925.387	13076
925.494	13038
925.602	13164
925.709	13065
925.816	12951
925.924	12943
926.031	13019
926.138	13031
926.245	12989
926.352	12856
926.459	13015
926.566	13107
926.673	12882
926.779	12711
926.886	12745
926.993	12662
927.099	12566
927.206	12582
927.312	12540
927.419	12658
927.525	12585
927.631	12677
927.737	12544
927.843	12410
927.95	12395
928.056	12460
928.162	12414
928.267	12418
928.373	12947
928.479	12490
928.585	12171
928.69	12388
928.796	12490
928.901	12319
929.007	12178
929.112	12319
929.218	12285
929.323	12194
929.428	12133
929.533	12281
929.638	12072
929.743	12114
929.848	12110
929.953	12060
930.058	12011
930.163	11821
930.267	11790
930.372	11927
930.477	11714
930.581	12026
930.685	11912
930.79	11710
930.894	11748
930.998	11756
931.103	11882
931.207	11459
931.311	11341
931.415	11246
931.519	11060
931.623	11083
