Data from test_V78500241_1512.txt Node
Date: Fri Mar 25 15:20:23 CST 2022
User: usil
Spectrometer: V785-0024
Trigger mode: 0
Integration Time (sec): 4.000000E-1
Scans to average: 1
Nonlinearity correction enabled: false
Boxcar width: 0
Storing dark spectrum: false
XAxis mode: Wavelengths
Number of Pixels in Spectrum: 1024
>>>>>Begin Spectral Data<<<<<
801.071	27857
801.214	27857
801.356	27603
801.499	27504
801.641	27420
801.783	27401
801.926	27340
802.068	27294
802.211	27386
802.353	27424
802.496	27005
802.638	27112
802.78	26967
802.923	26982
803.065	26883
803.208	26944
803.35	27058
803.492	27184
803.635	27287
803.777	27108
803.919	27199
804.061	27530
804.204	27382
804.346	27355
804.488	27100
804.63	27154
804.773	27070
804.915	27089
805.057	27336
805.199	27127
805.341	27363
805.483	27363
805.626	27321
805.768	27348
805.91	27393
806.052	27401
806.194	27241
806.336	27492
806.478	27534
806.62	27462
806.762	27511
806.904	27492
807.046	27918
807.188	27736
807.33	27789
807.472	27854
807.614	27812
807.756	27778
807.898	27530
808.04	27732
808.182	27743
808.324	27492
808.465	27728
808.607	27804
808.749	28048
808.891	28078
809.033	28048
809.174	28059
809.316	28013
809.458	27918
809.6	27903
809.741	28166
809.883	28257
810.025	28401
810.166	28169
810.308	28284
810.45	28242
810.591	28074
810.733	28090
810.875	27953
811.016	27869
811.158	27854
811.299	28002
811.441	28112
811.582	28181
811.724	28143
811.865	27945
812.007	27994
812.148	27994
812.29	28276
812.431	28234
812.573	28432
812.714	28356
812.855	28538
812.997	28653
813.138	28759
813.279	28554
813.421	28421
813.562	28637
813.703	28287
813.845	28306
813.986	27998
814.127	27861
814.268	27732
814.41	27755
814.551	27679
814.692	27842
814.833	27739
814.974	27641
815.115	27732
815.256	27637
815.397	27603
815.539	27637
815.68	27477
815.821	27397
815.962	27542
816.103	27469
816.244	27370
816.385	27245
816.526	27302
816.666	27058
816.807	26952
816.948	27176
817.089	27089
817.23	27085
817.371	26933
817.512	26986
817.653	27017
817.793	26876
817.934	26880
818.075	26952
818.216	26979
818.356	27047
818.497	26876
818.638	26716
818.778	26845
818.919	26716
819.06	26754
819.2	27043
819.341	27085
819.481	26948
819.622	27291
819.762	27214
819.903	27233
820.043	27157
820.184	27104
820.324	27203
820.465	27233
820.605	26956
820.746	27043
820.886	27043
821.026	27009
821.167	26925
821.307	27013
821.447	26952
821.588	26887
821.728	26689
821.868	26549
822.008	26480
822.149	26404
822.289	26381
822.429	26244
822.569	26161
822.709	26065
822.849	26024
822.99	26035
823.13	25788
823.27	25909
823.41	25799
823.55	25769
823.69	25879
823.83	25727
823.97	25681
824.11	25586
824.25	25556
824.389	25495
824.529	25708
824.669	25552
824.809	25731
824.949	25624
825.089	25696
825.228	25677
825.368	25472
825.508	25521
825.648	25559
825.787	25457
825.927	25403
826.067	25350
826.206	25434
826.346	25392
826.485	25422
826.625	25495
826.765	25578
826.904	25563
827.044	25110
827.183	25194
827.323	25228
827.462	25282
827.601	25327
827.741	25217
827.88	25217
828.02	25061
828.159	25133
828.298	25209
828.437	25209
828.577	25209
828.716	25350
828.855	24913
828.994	24909
829.134	24703
829.273	24810
829.412	24916
829.551	24947
829.69	24958
829.829	24973
829.968	25076
830.107	24928
830.246	24863
830.385	24787
830.524	24939
830.663	24711
830.802	24547
830.941	24502
831.08	24433
831.219	24551
831.357	24604
831.496	24646
831.635	24391
831.774	24384
831.913	24395
832.051	24194
832.19	24266
832.329	24353
832.467	24133
832.606	24098
832.744	24095
832.883	24076
833.022	24076
833.16	24079
833.299	24064
833.437	24102
833.576	24186
833.714	24186
833.852	24228
833.991	24228
834.129	24281
834.267	24228
834.406	24300
834.544	24289
834.682	24262
834.821	24155
834.959	24365
835.097	24182
835.235	24239
835.373	24152
835.511	24228
835.65	23999
835.788	24155
835.926	24018
836.064	23958
836.202	23912
836.34	24072
836.478	24152
836.615	23904
836.753	24095
836.891	24011
837.029	23939
837.167	23984
837.305	23965
837.443	23809
837.58	23855
837.718	23935
837.856	23942
837.993	23847
838.131	23817
838.269	23680
838.406	23752
838.544	23684
838.681	23478
838.819	23547
838.956	23311
839.094	23246
839.231	23292
839.369	23505
839.506	23646
839.643	23478
839.781	23334
839.918	23360
840.055	23239
840.193	23273
840.33	23269
840.467	23303
840.604	23235
840.742	23558
840.879	23155
841.016	23208
841.153	23181
841.29	23315
841.427	23273
841.564	23417
841.701	23132
841.838	23143
841.975	23185
842.112	23132
842.249	23022
842.385	23041
842.522	23056
842.659	22949
842.796	23071
842.933	23037
843.069	23003
843.206	23006
843.343	23060
843.479	22999
843.616	22984
843.752	22763
843.889	22790
844.025	22900
844.162	22694
844.298	22782
844.435	22820
844.571	22755
844.708	22744
844.844	22854
844.98	22927
845.117	22873
845.253	22767
845.389	22603
845.525	22649
845.661	22637
845.798	22512
845.934	22413
846.07	22462
846.206	22459
846.342	22542
846.478	22485
846.614	22226
846.75	22314
846.886	22230
847.022	22284
847.158	22215
847.294	22379
847.429	22272
847.565	22211
847.701	22462
847.837	21991
847.972	21991
848.108	22059
848.244	21991
848.379	21861
848.515	21823
848.65	21797
848.786	21800
848.921	21903
849.057	21911
849.192	21968
849.328	21915
849.463	21823
849.598	21812
849.734	21732
849.869	21709
850.004	21504
850.14	21576
850.275	21564
850.41	21614
850.545	21424
850.68	21496
850.815	21614
850.95	21595
851.085	21713
851.22	21728
851.355	21606
851.49	21599
851.625	21576
851.76	21538
851.895	21542
852.03	21469
852.165	21511
852.299	21656
852.434	21667
852.569	21606
852.703	21545
852.838	21580
852.973	21671
853.107	21705
853.242	21591
853.376	21405
853.511	21370
853.645	21435
853.78	21500
853.914	21450
854.048	21386
854.183	21355
854.317	21420
854.451	21545
854.585	21408
854.72	21374
854.854	21545
854.988	21370
855.122	21424
855.256	21180
855.39	21401
855.524	21447
855.658	21523
855.792	21515
855.926	21348
856.06	21439
856.194	21454
856.327	21416
856.461	21378
856.595	21268
856.729	21291
856.862	21526
856.996	21450
857.13	21504
857.263	21473
857.397	21431
857.53	21325
857.664	21340
857.797	21481
857.931	21523
858.064	21351
858.197	21450
858.331	21481
858.464	21336
858.597	21233
858.731	21344
858.864	21382
858.997	21317
859.13	21370
859.263	21329
859.396	21420
859.529	21515
859.662	21389
859.795	21214
859.928	21393
860.061	21526
860.194	21641
860.327	21424
860.46	21386
860.592	21523
860.725	21671
860.858	21519
860.99	21348
861.123	21321
861.256	21462
861.388	21424
861.521	22059
861.653	21241
861.786	21184
861.918	21096
862.05	21275
862.183	21279
862.315	21382
862.447	21313
862.58	21325
862.712	21116
862.844	21131
862.976	21241
863.108	21157
863.24	21538
863.372	20975
863.504	20979
863.636	21062
863.768	21135
863.9	21222
864.032	20982
864.164	21077
864.296	21119
864.428	21173
864.559	21119
864.691	21173
864.823	21055
864.954	21001
865.086	20986
865.217	21024
865.349	20899
865.48	21020
865.612	20944
865.743	21157
865.875	20986
866.006	20891
866.137	20986
866.269	21013
866.4	21009
866.531	20982
866.662	20845
866.793	21024
866.924	20887
867.055	20975
867.186	20819
867.317	20849
867.448	20819
867.579	20998
867.71	20792
867.841	20910
867.972	20956
868.103	20941
868.233	20895
868.364	20876
868.495	21020
868.625	21214
868.756	21233
868.886	21195
869.017	21203
869.147	21131
869.278	21336
869.408	21161
869.539	21211
869.669	21275
869.799	21268
869.929	21302
870.06	21127
870.19	21614
870.32	21473
870.45	21488
870.58	21549
870.71	21679
870.84	21614
870.97	21622
871.1	21660
871.23	21739
871.36	21762
871.489	21759
871.619	21774
871.749	21679
871.879	21812
872.008	21911
872.138	21720
872.267	21831
872.397	21641
872.526	21557
872.656	21610
872.785	21637
872.915	21720
873.044	21949
873.173	21690
873.303	21831
873.432	21831
873.561	21899
873.69	21804
873.819	21789
873.948	21926
874.077	21804
874.206	21736
874.335	21648
874.464	21930
874.593	22032
874.722	21964
874.851	21991
874.979	22070
875.108	22070
875.237	21972
875.365	21865
875.494	21991
875.623	22059
875.751	21945
875.88	22124
876.008	22131
876.136	22154
876.265	22409
876.393	22462
876.521	22443
876.65	22455
876.778	22257
876.906	22451
877.034	22363
877.162	22424
877.29	22188
877.418	22363
877.546	22337
877.674	22352
877.802	22318
877.93	22367
878.058	22398
878.185	22192
878.313	22363
878.441	22257
878.568	22185
878.696	22230
878.824	22402
878.951	22512
879.079	22470
879.206	22626
879.333	22432
879.461	22356
879.588	22436
879.715	22519
879.842	22485
879.97	22382
880.097	22207
880.224	22268
880.351	22196
880.478	22109
880.605	22078
880.732	22074
880.859	22428
880.986	22268
881.112	22162
881.239	22010
881.366	21838
881.493	21888
881.619	21770
881.746	21713
881.872	21743
881.999	21720
882.125	21766
882.252	21717
882.378	21698
882.505	21884
882.631	21606
882.757	21450
882.883	21618
883.01	21481
883.136	21500
883.262	21302
883.388	21302
883.514	21454
883.64	21534
883.766	21389
883.892	21150
884.018	21268
884.143	21401
884.269	21481
884.395	21260
884.52	21093
884.646	21169
884.772	20979
884.897	20857
885.023	21161
885.148	21116
885.274	21093
885.399	21127
885.524	21024
885.65	21108
885.775	21017
885.9	21131
886.025	21256
886.15	21108
886.275	21024
886.4	20956
886.525	20941
886.65	21028
886.775	20994
886.9	21161
887.025	21317
887.149	21047
887.274	20838
887.399	20826
887.523	20963
887.648	20712
887.773	20830
887.897	20899
888.021	20952
888.146	20826
888.27	20941
888.395	20975
888.519	20811
888.643	20902
888.767	20887
888.891	20708
889.015	20750
889.139	20693
889.263	20644
889.387	20838
889.511	20849
889.635	20712
889.759	20651
889.883	20625
890.006	20602
890.13	20609
890.254	20560
890.377	20571
890.501	20412
890.624	20404
890.748	20495
890.871	20305
890.995	20088
891.118	20073
891.241	20282
891.364	20149
891.488	20377
891.611	20355
891.734	20301
891.857	20233
891.98	20244
892.103	20309
892.226	20259
892.349	20149
892.471	19936
892.594	20157
892.717	20225
892.839	20187
892.962	20145
893.085	20199
893.207	20142
893.33	19986
893.452	20039
893.575	20058
893.697	20073
893.819	20225
893.941	20229
894.064	20248
894.186	20092
894.308	20027
894.43	20111
894.552	20305
894.674	20176
894.796	20043
894.918	20111
895.04	20092
895.161	20130
895.283	20119
895.405	20043
895.526	20107
895.648	20043
895.769	20065
895.891	20168
896.012	20149
896.134	20210
896.255	20077
896.376	20153
896.498	20077
896.619	20031
896.74	20077
896.861	20111
896.982	20484
897.103	20457
897.224	20434
897.345	20454
897.466	20153
897.587	20358
897.708	20507
897.828	20450
897.949	20237
898.07	20111
898.19	20229
898.311	20446
898.431	20298
898.552	20465
898.672	20332
898.792	20423
898.913	20355
899.033	20237
899.153	20058
899.273	20073
899.393	20088
899.513	20111
899.633	20111
899.753	20031
899.873	20077
899.993	20012
900.113	20054
900.232	20046
900.352	20031
900.472	19936
900.591	19856
900.711	19784
900.83	19864
900.95	19986
901.069	19928
901.189	19753
901.308	19582
901.427	19354
901.546	19464
901.665	19449
901.784	19464
901.904	19381
902.023	19320
902.141	19152
902.26	19034
902.379	19061
902.498	18863
902.617	19000
902.735	19057
902.854	18939
902.973	18943
903.091	18730
903.21	18696
903.328	18585
903.446	18540
903.565	18483
903.683	18502
903.801	18258
903.919	18433
904.038	18311
904.156	18232
904.274	18334
904.392	18194
904.51	18273
904.627	18330
904.745	18266
904.863	18258
904.981	18019
905.098	17912
905.216	17851
905.334	17908
905.451	17904
905.569	17954
905.686	17923
905.803	17863
905.921	17733
906.038	17802
906.155	17566
906.272	17509
906.389	17516
906.506	17421
906.623	17486
906.74	17391
906.857	17292
906.974	17337
907.091	17493
907.208	17558
907.324	17425
907.441	17189
907.557	17064
907.674	17166
907.79	17090
907.907	17075
908.023	17181
908.139	17200
908.256	17094
908.372	17022
908.488	16949
908.604	16911
908.72	16987
908.836	16961
908.952	16854
909.068	16763
909.184	16980
909.3	16980
909.415	16915
909.531	16801
909.647	16683
909.762	16531
909.878	16493
909.993	16512
910.108	16516
910.224	16527
910.339	16451
910.454	16402
910.57	16375
910.685	16238
910.8	16645
910.915	16478
911.03	16371
911.145	16116
911.259	16177
911.374	16101
911.489	16074
911.604	15975
911.718	15979
911.833	15930
911.947	15667
912.062	15755
912.176	15861
912.291	15804
912.405	15850
912.519	16074
912.633	16097
912.748	15907
912.862	15892
912.976	15781
913.09	15603
913.204	15644
913.318	15675
913.431	15724
913.545	15747
913.659	15751
913.772	15644
913.886	15488
914	15496
914.113	15530
914.226	15629
914.34	15652
914.453	15397
914.566	15519
914.68	15329
914.793	15359
914.906	15161
915.019	15089
915.132	14990
915.245	15077
915.358	15112
915.47	15036
915.583	15173
915.696	15135
915.809	15173
915.921	15180
916.034	15104
916.146	15058
916.259	14925
916.371	15165
916.483	15043
916.595	14952
916.708	14933
916.82	14937
916.932	14918
917.044	14876
917.156	14876
917.268	14838
917.38	14834
917.491	14746
917.603	14788
917.715	14792
917.826	14807
917.938	14708
918.049	14667
918.161	14746
918.272	14750
918.384	14887
918.495	14693
918.606	14568
918.717	14564
918.828	14522
918.939	14556
919.05	14423
919.161	14541
919.272	14301
919.383	14358
919.494	14484
919.604	14693
919.715	14503
919.826	14450
919.936	14499
920.047	14560
920.157	14568
920.267	14697
920.378	14492
920.488	14461
920.598	14640
920.708	14689
920.818	14598
920.928	14579
921.038	14754
921.148	14693
921.258	14450
921.368	14347
921.477	14225
921.587	14240
921.697	14111
921.806	14206
921.916	14084
922.025	13925
922.134	13898
922.244	13833
922.353	13868
922.462	13723
922.571	13620
922.68	13518
922.789	13521
922.898	13476
923.007	13521
923.116	13472
923.224	13559
923.333	13597
923.442	13476
923.55	13350
923.659	13358
923.767	13381
923.876	13278
923.984	13381
924.092	13183
924.201	13304
924.309	13228
924.417	13221
924.525	13175
924.633	13190
924.741	13906
924.849	13008
924.956	13179
925.064	13019
925.172	12882
925.279	12935
925.387	12928
925.494	12951
925.602	13012
925.709	13000
925.816	12837
925.924	12890
926.031	12924
926.138	12913
926.245	12871
926.352	12772
926.459	12802
926.566	12973
926.673	12730
926.779	12711
926.886	12681
926.993	12547
927.099	12528
927.206	12494
927.312	12441
927.419	12483
927.525	12521
927.631	12509
927.737	12369
927.843	12365
927.95	12285
928.056	12232
928.162	12300
928.267	12380
928.373	13031
928.479	12407
928.585	12110
928.69	12239
928.796	12315
928.901	12201
929.007	12022
929.112	12232
929.218	12091
929.323	12110
929.428	12072
929.533	12213
929.638	11973
929.743	11999
929.848	12110
929.953	11931
930.058	11920
930.163	11695
930.267	11737
930.372	11874
930.477	11684
930.581	11889
930.685	11832
930.79	11592
930.894	11600
930.998	11566
931.103	11710
931.207	11330
931.311	11288
931.415	11151
931.519	10972
931.623	11056
