Data from test_V78500241_3258.txt Node
Date: Fri Mar 25 15:32:32 CST 2022
User: usil
Spectrometer: V785-0024
Trigger mode: 0
Integration Time (sec): 4.000000E-1
Scans to average: 1
Nonlinearity correction enabled: false
Boxcar width: 0
Storing dark spectrum: false
XAxis mode: Wavelengths
Number of Pixels in Spectrum: 1024
>>>>>Begin Spectral Data<<<<<
801.071	27279
801.214	27161
801.356	26925
801.499	26864
801.641	26663
801.783	26758
801.926	26834
802.068	26815
802.211	26864
802.353	26716
802.496	26545
802.638	26450
802.78	26396
802.923	26415
803.065	26339
803.208	26320
803.35	26412
803.492	26556
803.635	26781
803.777	26423
803.919	26564
804.061	26937
804.204	26686
804.346	26556
804.488	26556
804.63	26568
804.773	26476
804.915	26640
805.057	26667
805.199	26393
805.341	26659
805.483	26785
805.626	26648
805.768	26629
805.91	26785
806.052	26712
806.194	26518
806.336	26948
806.478	26735
806.62	26667
806.762	26960
806.904	27085
807.046	27211
807.188	27188
807.33	27142
807.472	27142
807.614	27013
807.756	27154
807.898	27047
808.04	26929
808.182	26876
808.324	27020
808.465	27020
808.607	27176
808.749	27264
808.891	27374
809.033	27523
809.174	27393
809.316	27275
809.458	27260
809.6	27260
809.741	27359
809.883	27447
810.025	27576
810.166	27568
810.308	27519
810.45	27477
810.591	27450
810.733	27450
810.875	27435
811.016	27241
811.158	27272
811.299	27348
811.441	27561
811.582	27458
811.724	27420
811.865	27283
812.007	27279
812.148	27363
812.29	27325
812.431	27488
812.573	27595
812.714	27660
812.855	27789
812.997	27861
813.138	27975
813.279	27972
813.421	27846
813.562	27831
813.703	27583
813.845	27511
813.986	27264
814.127	27127
814.268	26914
814.41	26998
814.551	26895
814.692	27009
814.833	26872
814.974	27024
815.115	27036
815.256	26845
815.397	26819
815.539	26902
815.68	26708
815.821	26724
815.962	26845
816.103	26720
816.244	26648
816.385	26518
816.526	26488
816.666	26298
816.807	26351
816.948	26362
817.089	26240
817.23	26259
817.371	26252
817.512	26240
817.653	26225
817.793	26176
817.934	26111
818.075	26145
818.216	26370
818.356	26233
818.497	26119
818.638	25928
818.778	25986
818.919	25986
819.06	25959
819.2	26100
819.341	26301
819.481	26111
819.622	26339
819.762	26518
819.903	26606
820.043	26370
820.184	26396
820.324	26317
820.465	26351
820.605	26362
820.746	26278
820.886	26191
821.026	26248
821.167	26252
821.307	26408
821.447	26218
821.588	26237
821.728	26008
821.868	25719
822.008	25689
822.149	25776
822.289	25628
822.429	25472
822.569	25491
822.709	25499
822.849	25148
822.99	25217
823.13	25141
823.27	25160
823.41	25175
823.55	24890
823.69	25088
823.83	25012
823.97	24901
824.11	24837
824.25	24753
824.389	24810
824.529	25057
824.669	24810
824.809	24981
824.949	24821
825.089	24905
825.228	24924
825.368	24589
825.508	24700
825.648	24635
825.787	24650
825.927	24753
826.067	24711
826.206	24715
826.346	24623
826.485	24802
826.625	24608
826.765	24882
826.904	24745
827.044	24479
827.183	24570
827.323	24418
827.462	24536
827.601	24505
827.741	24479
827.88	24563
828.02	24353
828.159	24376
828.298	24445
828.437	24536
828.577	24426
828.716	24479
828.855	24388
828.994	24106
829.134	24102
829.273	24232
829.412	24049
829.551	24045
829.69	24182
829.829	24095
829.968	24292
830.107	24247
830.246	24083
830.385	24110
830.524	24064
830.663	23996
830.802	23882
830.941	23786
831.08	23775
831.219	23836
831.357	23828
831.496	24079
831.635	23687
831.774	23619
831.913	23642
832.051	23524
832.19	23440
832.329	23630
832.467	23516
832.606	23349
832.744	23406
832.883	23376
833.022	23360
833.16	23425
833.299	23566
833.437	23398
833.576	23486
833.714	23425
833.852	23596
833.991	23524
834.129	23551
834.267	23642
834.406	23558
834.544	23558
834.682	23592
834.821	23444
834.959	23642
835.097	23376
835.235	23486
835.373	23528
835.511	23436
835.65	23406
835.788	23288
835.926	23341
836.064	23178
836.202	23128
836.34	23383
836.478	23516
836.615	23254
836.753	23326
836.891	23440
837.029	23452
837.167	23299
837.305	23193
837.443	23318
837.58	23159
837.718	23242
837.856	23292
837.993	23109
838.131	23277
838.269	23067
838.406	23178
838.544	23204
838.681	22892
838.819	22774
838.956	22706
839.094	22759
839.231	22797
839.369	22923
839.506	23067
839.643	22927
839.781	22675
839.918	22668
840.055	22664
840.193	22603
840.33	22554
840.467	22672
840.604	22698
840.742	23033
840.879	22516
841.016	22592
841.153	22481
841.29	22767
841.427	22634
841.564	22649
841.701	22641
841.838	22527
841.975	22546
842.112	22611
842.249	22459
842.385	22390
842.522	22713
842.659	22523
842.796	22394
842.933	22371
843.069	22341
843.206	22284
843.343	22398
843.479	22447
843.616	22371
843.752	22097
843.889	22192
844.025	22204
844.162	22196
844.298	22188
844.435	22223
844.571	22097
844.708	22200
844.844	22280
844.98	22436
845.117	22268
845.253	22048
845.389	21994
845.525	22135
845.661	22002
845.798	21934
845.934	21873
846.07	21918
846.206	21941
846.342	22032
846.478	21797
846.614	21618
846.75	21530
846.886	21610
847.022	21808
847.158	21698
847.294	21701
847.429	21614
847.565	21511
847.701	21812
847.837	21359
847.972	21355
848.108	21367
848.244	21492
848.379	21237
848.515	21222
848.65	21207
848.786	21249
848.921	21214
849.057	21363
849.192	21275
849.328	21260
849.463	21154
849.598	21214
849.734	21100
849.869	21116
850.004	21127
850.14	21081
850.275	21032
850.41	20902
850.545	20956
850.68	21055
850.815	21005
850.95	21062
851.085	21150
851.22	21066
851.355	21138
851.49	20918
851.625	20979
851.76	21001
851.895	20914
852.03	20819
852.165	20998
852.299	21032
852.434	20967
852.569	21001
852.703	20895
852.838	21085
852.973	21119
853.107	21036
853.242	20880
853.376	20811
853.511	20743
853.645	20693
853.78	20948
853.914	20910
854.048	20819
854.183	20811
854.317	20807
854.451	21066
854.585	20830
854.72	20815
854.854	20906
854.988	20663
855.122	20785
855.256	20564
855.39	20815
855.524	20933
855.658	20746
855.792	20777
855.926	20765
856.06	20804
856.194	20952
856.327	20724
856.461	20777
856.595	20743
856.729	20796
856.862	20807
856.996	20872
857.13	20845
857.263	20956
857.397	20910
857.53	20830
857.664	20811
857.797	20765
857.931	20971
858.064	20872
858.197	20944
858.331	20834
858.464	20788
858.597	20762
858.731	20781
858.864	20670
858.997	20792
859.13	20697
859.263	20819
859.396	20838
859.529	20804
859.662	20693
859.795	20788
859.928	20804
860.061	20902
860.194	21005
860.327	20861
860.46	20727
860.592	20899
860.725	21085
860.858	20910
860.99	20788
861.123	20762
861.256	20746
861.388	20773
861.521	21374
861.653	20667
861.786	20629
861.918	20571
862.05	20727
862.183	20655
862.315	20689
862.447	20796
862.58	20819
862.712	20530
862.844	20480
862.976	20625
863.108	20640
863.24	20979
863.372	20533
863.504	20415
863.636	20545
863.768	20507
863.9	20568
864.032	20423
864.164	20511
864.296	20568
864.428	20678
864.559	20560
864.691	20568
864.823	20488
864.954	20526
865.086	20492
865.217	20480
865.349	20442
865.48	20492
865.612	20469
865.743	20575
865.875	20404
866.006	20393
866.137	20396
866.269	20545
866.4	20469
866.531	20328
866.662	20317
866.793	20415
866.924	20412
867.055	20450
867.186	20362
867.317	20396
867.448	20225
867.579	20278
867.71	20320
867.841	20374
867.972	20370
868.103	20214
868.233	20370
868.364	20381
868.495	20385
868.625	20682
868.756	20735
868.886	20507
869.017	20602
869.147	20636
869.278	20758
869.408	20667
869.539	20602
869.669	20678
869.799	20754
869.929	20804
870.06	20754
870.19	20895
870.32	20914
870.45	20902
870.58	21051
870.71	21051
870.84	21085
870.97	21055
871.1	21013
871.23	21302
871.36	21275
871.489	21165
871.619	21165
871.749	21127
871.879	21272
872.008	21393
872.138	21154
872.267	21294
872.397	21058
872.526	21096
872.656	20982
872.785	21081
872.915	21218
873.044	21325
873.173	21165
873.303	21233
873.432	21260
873.561	21329
873.69	21272
873.819	21233
873.948	21321
874.077	21138
874.206	21112
874.335	21195
874.464	21291
874.593	21412
874.722	21443
874.851	21614
874.979	21420
875.108	21473
875.237	21523
875.365	21351
875.494	21424
875.623	21523
875.751	21466
875.88	21530
876.008	21443
876.136	21637
876.265	21816
876.393	22025
876.521	22017
876.65	21888
876.778	21911
876.906	21884
877.034	21869
877.162	21800
877.29	21698
877.418	21922
877.546	21903
877.674	21835
877.802	21819
877.93	21854
878.058	21751
878.185	21606
878.313	21827
878.441	21823
878.568	21816
878.696	21759
878.824	21816
878.951	21949
879.079	22177
879.206	22173
879.333	21964
879.461	22029
879.588	22082
879.715	22021
879.842	22188
879.97	22021
880.097	21747
880.224	21724
880.351	21747
880.478	21701
880.605	21679
880.732	21713
880.859	21888
880.986	21766
881.112	21778
881.239	21720
881.366	21545
881.493	21302
881.619	21230
881.746	21241
881.872	21272
881.999	21302
882.125	21169
882.252	21192
882.378	21351
882.505	21416
882.631	21142
882.757	21058
882.883	21062
883.01	20986
883.136	21009
883.262	20842
883.388	20796
883.514	20956
883.64	20933
883.766	20876
883.892	20720
884.018	20880
884.143	20956
884.269	20921
884.395	20655
884.52	20625
884.646	20598
884.772	20594
884.897	20533
885.023	20609
885.148	20686
885.274	20765
885.399	20708
885.524	20594
885.65	20705
885.775	20583
885.9	20579
886.025	20701
886.15	20731
886.275	20552
886.4	20552
886.525	20549
886.65	20568
886.775	20514
886.9	20621
887.025	20792
887.149	20450
887.274	20412
887.399	20377
887.523	20415
887.648	20290
887.773	20267
887.897	20400
888.021	20541
888.146	20385
888.27	20480
888.395	20495
888.519	20419
888.643	20408
888.767	20442
888.891	20347
889.015	20267
889.139	20248
889.263	20240
889.387	20389
889.511	20385
889.635	20324
889.759	20126
889.883	20187
890.006	20252
890.13	20282
890.254	20164
890.377	20073
890.501	20008
890.624	19928
890.748	19993
890.871	19967
890.995	19613
891.118	19658
891.241	19807
891.364	19887
891.488	19936
891.611	19826
891.734	19632
891.857	19936
891.98	19704
892.103	19788
892.226	19788
892.349	19822
892.471	19533
892.594	19693
892.717	19521
892.839	19677
892.962	19750
893.085	19883
893.207	19655
893.33	19582
893.452	19643
893.575	19715
893.697	19738
893.819	19837
893.941	19841
894.064	19814
894.186	19571
894.308	19605
894.43	19784
894.552	19803
894.674	19826
894.796	19674
894.918	19594
895.04	19597
895.161	19670
895.283	19704
895.405	19643
895.526	19719
895.648	19655
895.769	19689
895.891	19738
896.012	19746
896.134	19788
896.255	19704
896.376	19693
896.498	19651
896.619	19677
896.74	19643
896.861	19738
896.982	20046
897.103	20176
897.224	19902
897.345	19917
897.466	19765
897.587	20005
897.708	20084
897.828	19909
897.949	19879
898.07	19776
898.19	19757
898.311	20046
898.431	19894
898.552	19955
898.672	19944
898.792	19993
898.913	19822
899.033	19791
899.153	19731
899.273	19613
899.393	19727
899.513	19700
899.633	19693
899.753	19731
899.873	19693
899.993	19605
900.113	19628
900.232	19628
900.352	19556
900.472	19582
900.591	19453
900.711	19434
900.83	19301
900.95	19483
901.069	19430
901.189	19244
901.308	19270
901.427	18966
901.546	19042
901.665	19156
901.784	19042
901.904	18882
902.023	18795
902.141	18684
902.26	18589
902.379	18582
902.498	18513
902.617	18426
902.735	18570
902.854	18631
902.973	18384
903.091	18224
903.21	18068
903.328	18277
903.446	18266
903.565	18136
903.683	18110
903.801	17901
903.919	18026
904.038	17996
904.156	17908
904.274	17904
904.392	17840
904.51	17695
904.627	17756
904.745	17859
904.863	17965
904.981	17592
905.098	17509
905.216	17524
905.334	17486
905.451	17547
905.569	17547
905.686	17452
905.803	17414
905.921	17349
906.038	17436
906.155	17326
906.272	17121
906.389	17098
906.506	17010
906.623	16957
906.74	16961
906.857	16938
906.974	16972
907.091	16949
907.208	17128
907.324	17166
907.441	16968
907.557	16824
907.674	16744
907.79	16691
907.907	16630
908.023	16759
908.139	16816
908.256	16634
908.372	16637
908.488	16493
908.604	16493
908.72	16489
908.836	16478
908.952	16466
909.068	16519
909.184	16618
909.3	16443
909.415	16519
909.531	16432
909.647	16105
909.762	16078
909.878	16223
909.993	16154
910.108	16166
910.224	16071
910.339	16150
910.454	15998
910.57	16006
910.685	15857
910.8	16204
910.915	16097
911.03	15941
911.145	15819
911.259	15778
911.374	15785
911.489	15686
911.604	15633
911.718	15485
911.833	15504
911.947	15428
912.062	15481
912.176	15523
912.291	15542
912.405	15599
912.519	15739
912.633	15694
912.748	15553
912.862	15599
912.976	15374
913.09	15188
913.204	15298
913.318	15401
913.431	15534
913.545	15492
913.659	15363
913.772	15294
913.886	15199
914	15104
914.113	15252
914.226	15272
914.34	15340
914.453	15047
914.566	15100
914.68	15043
914.793	14910
914.906	14811
915.019	14788
915.132	14743
915.245	14754
915.358	14800
915.47	14804
915.583	14811
915.696	14754
915.809	14948
915.921	14864
916.034	14769
916.146	14613
916.259	14655
916.371	14735
916.483	14758
916.595	14522
916.708	14552
916.82	14636
916.932	14549
917.044	14648
917.156	14606
917.268	14465
917.38	14476
917.491	14404
917.603	14381
917.715	14560
917.826	14537
917.938	14396
918.049	14248
918.161	14362
918.272	14434
918.384	14389
918.495	14347
918.606	14195
918.717	14145
918.828	14119
918.939	14221
919.05	14058
919.161	14111
919.272	14069
919.383	14065
919.494	14275
919.604	14317
919.715	14126
919.826	14252
919.936	14115
920.047	14282
920.157	14176
920.267	14324
920.378	14172
920.488	14153
920.598	14393
920.708	14389
920.818	14294
920.928	14301
921.038	14473
921.148	14442
921.258	14092
921.368	14092
921.477	13898
921.587	13849
921.697	13704
921.806	13951
921.916	13746
922.025	13590
922.134	13636
922.244	13514
922.353	13594
922.462	13396
922.571	13396
922.68	13304
922.789	13198
922.898	13259
923.007	13149
923.116	13289
923.224	13217
923.333	13141
923.442	13080
923.55	13031
923.659	12993
923.767	13095
923.876	13129
923.984	13069
924.092	12985
924.201	12928
924.309	12958
924.417	13015
924.525	12814
924.633	12833
924.741	13750
924.849	12700
924.956	12764
925.064	12658
925.172	12612
925.279	12631
925.387	12715
925.494	12642
925.602	12787
925.709	12688
925.816	12665
925.924	12650
926.031	12620
926.138	12540
926.245	12532
926.352	12521
926.459	12639
926.566	12612
926.673	12513
926.779	12410
926.886	12403
926.993	12273
927.099	12254
927.206	12277
927.312	12220
927.419	12304
927.525	12194
927.631	12235
927.737	12095
927.843	12125
927.95	11908
928.056	12068
928.162	12079
928.267	12098
928.373	12688
928.479	12072
928.585	11889
928.69	12068
928.796	12133
928.901	11882
929.007	11714
929.112	11954
929.218	11863
929.323	11794
929.428	11756
929.533	11855
929.638	11668
929.743	11657
929.848	11783
929.953	11695
930.058	11619
930.163	11455
930.267	11490
930.372	11619
930.477	11429
930.581	11676
930.685	11493
930.79	11356
930.894	11391
930.998	11296
931.103	11512
931.207	11121
931.311	11048
931.415	10930
931.519	10793
931.623	10752
