Data from test_V78500241_641.txt Node
Date: Fri Mar 25 15:14:19 CST 2022
User: usil
Spectrometer: V785-0024
Trigger mode: 0
Integration Time (sec): 4.000000E-1
Scans to average: 1
Nonlinearity correction enabled: false
Boxcar width: 0
Storing dark spectrum: false
XAxis mode: Wavelengths
Number of Pixels in Spectrum: 1024
>>>>>Begin Spectral Data<<<<<
801.071	27310
801.214	27203
801.356	26960
801.499	27047
801.641	26811
801.783	26838
801.926	26868
802.068	26796
802.211	26621
802.353	26632
802.496	26423
802.638	26579
802.78	26495
802.923	26594
803.065	26309
803.208	26332
803.35	26366
803.492	26473
803.635	26457
803.777	26453
803.919	26617
804.061	26899
804.204	26655
804.346	26541
804.488	26465
804.63	26549
804.773	26518
804.915	26731
805.057	26590
805.199	26571
805.341	26720
805.483	26716
805.626	26731
805.768	26511
805.91	26606
806.052	26636
806.194	26609
806.336	26792
806.478	26769
806.62	26651
806.762	26796
806.904	26914
807.046	27142
807.188	27081
807.33	27161
807.472	27283
807.614	26982
807.756	26994
807.898	26975
808.04	26857
808.182	26880
808.324	26944
808.465	27024
808.607	27100
808.749	27226
808.891	27340
809.033	27519
809.174	27336
809.316	27363
809.458	27207
809.6	27211
809.741	27450
809.883	27408
810.025	27717
810.166	27610
810.308	27534
810.45	27614
810.591	27557
810.733	27401
810.875	27329
811.016	27386
811.158	27165
811.299	27435
811.441	27367
811.582	27542
811.724	27249
811.865	27291
812.007	27332
812.148	27313
812.29	27420
812.431	27370
812.573	27660
812.714	27854
812.855	27808
812.997	27960
813.138	28070
813.279	27876
813.421	27949
813.562	27778
813.703	27679
813.845	27515
813.986	27249
814.127	27169
814.268	26864
814.41	27005
814.551	26960
814.692	27028
814.833	27017
814.974	26929
815.115	26990
815.256	26872
815.397	26902
815.539	26823
815.68	26750
815.821	26739
815.962	26731
816.103	26773
816.244	26598
816.385	26530
816.526	26579
816.666	26465
816.807	26282
816.948	26290
817.089	26385
817.23	26336
817.371	26206
817.512	26290
817.653	26374
817.793	26206
817.934	26294
818.075	26328
818.216	26263
818.356	26176
818.497	26088
818.638	25822
818.778	25894
818.919	26039
819.06	26092
819.2	26081
819.341	26305
819.481	26290
819.622	26351
819.762	26632
819.903	26549
820.043	26446
820.184	26187
820.324	26290
820.465	26393
820.605	26336
820.746	26214
820.886	26088
821.026	26317
821.167	26339
821.307	26370
821.447	26225
821.588	26050
821.728	26103
821.868	25887
822.008	25723
822.149	25597
822.289	25784
822.429	25544
822.569	25453
822.709	25297
822.849	25232
822.99	25217
823.13	25171
823.27	25072
823.41	24966
823.55	25061
823.69	25171
823.83	25046
823.97	24992
824.11	24905
824.25	24734
824.389	24795
824.529	24856
824.669	24795
824.809	24981
824.949	25000
825.089	24985
825.228	24962
825.368	24852
825.508	24677
825.648	24707
825.787	24814
825.927	24943
826.067	24772
826.206	24703
826.346	24802
826.485	24848
826.625	24703
826.765	24901
826.904	24760
827.044	24494
827.183	24540
827.323	24547
827.462	24418
827.601	24559
827.741	24563
827.88	24551
828.02	24388
828.159	24525
828.298	24654
828.437	24483
828.577	24433
828.716	24513
828.855	24403
828.994	24152
829.134	24190
829.273	24239
829.412	24091
829.551	24209
829.69	24197
829.829	24235
829.968	24239
830.107	24159
830.246	24190
830.385	24190
830.524	24034
830.663	23942
830.802	23923
830.941	23775
831.08	23722
831.219	23866
831.357	23828
831.496	24129
831.635	23805
831.774	23657
831.913	23634
832.051	23707
832.19	23509
832.329	23554
832.467	23448
832.606	23368
832.744	23353
832.883	23410
833.022	23486
833.16	23570
833.299	23383
833.437	23444
833.576	23562
833.714	23516
833.852	23520
833.991	23707
834.129	23543
834.267	23592
834.406	23444
834.544	23524
834.682	23589
834.821	23642
834.959	23687
835.097	23379
835.235	23573
835.373	23600
835.511	23414
835.65	23330
835.788	23299
835.926	23277
836.064	23216
836.202	23220
836.34	23334
836.478	23452
836.615	23200
836.753	23280
836.891	23425
837.029	23368
837.167	23334
837.305	23296
837.443	23239
837.58	23155
837.718	23235
837.856	23143
837.993	23212
838.131	23299
838.269	23029
838.406	23113
838.544	22987
838.681	22904
838.819	22820
838.956	22725
839.094	22637
839.231	22653
839.369	22839
839.506	22972
839.643	22873
839.781	22599
839.918	22656
840.055	22618
840.193	22599
840.33	22603
840.467	22626
840.604	22637
840.742	22949
840.879	22432
841.016	22382
841.153	22535
841.29	22675
841.427	22615
841.564	22599
841.701	22546
841.838	22489
841.975	22451
842.112	22531
842.249	22379
842.385	22318
842.522	22497
842.659	22295
842.796	22192
842.933	22287
843.069	22287
843.206	22310
843.343	22299
843.479	22424
843.616	22322
843.752	22219
843.889	22101
844.025	22162
844.162	22215
844.298	22215
844.435	22124
844.571	21994
844.708	22268
844.844	22314
844.98	22284
845.117	22234
845.253	22040
845.389	21915
845.525	22109
845.661	21979
845.798	21949
845.934	21937
846.07	21857
846.206	21857
846.342	21937
846.478	21713
846.614	21686
846.75	21595
846.886	21526
847.022	21686
847.158	21595
847.294	21622
847.429	21580
847.565	21606
847.701	21831
847.837	21469
847.972	21264
848.108	21348
848.244	21378
848.379	21272
848.515	21161
848.65	21119
848.786	21207
848.921	21226
849.057	21389
849.192	21245
849.328	21226
849.463	21169
849.598	21180
849.734	21154
849.869	21039
850.004	20990
850.14	20994
850.275	21028
850.41	20906
850.545	20872
850.68	20902
850.815	20994
850.95	21013
851.085	21116
851.22	21074
851.355	21032
851.49	20982
851.625	20883
851.76	20906
851.895	20826
852.03	20948
852.165	20906
852.299	21066
852.434	21009
852.569	20895
852.703	20895
852.838	21104
852.973	21157
853.107	21062
853.242	20899
853.376	20796
853.511	20796
853.645	20754
853.78	20910
853.914	20731
854.048	20823
854.183	20838
854.317	20830
854.451	20872
854.585	20807
854.72	20792
854.854	20849
854.988	20712
855.122	20811
855.256	20583
855.39	20750
855.524	20796
855.658	20883
855.792	20800
855.926	20853
856.06	20895
856.194	20815
856.327	20762
856.461	20708
856.595	20815
856.729	20891
856.862	20925
856.996	20750
857.13	20883
857.263	20921
857.397	20781
857.53	20796
857.664	20815
857.797	20849
857.931	20868
858.064	20845
858.197	20925
858.331	20765
858.464	20762
858.597	20598
858.731	20773
858.864	20758
858.997	20674
859.13	20830
859.263	20815
859.396	20914
859.529	20777
859.662	20769
859.795	20815
859.928	20796
860.061	20929
860.194	20948
860.327	20781
860.46	20724
860.592	20876
860.725	20921
860.858	20963
860.99	20773
861.123	20583
861.256	20769
861.388	20762
861.521	21564
861.653	20625
861.786	20636
861.918	20739
862.05	20663
862.183	20792
862.315	20708
862.447	20743
862.58	20746
862.712	20499
862.844	20473
862.976	20644
863.108	20499
863.24	21013
863.372	20362
863.504	20495
863.636	20545
863.768	20568
863.9	20484
864.032	20358
864.164	20495
864.296	20495
864.428	20518
864.559	20613
864.691	20636
864.823	20434
864.954	20488
865.086	20450
865.217	20461
865.349	20415
865.48	20446
865.612	20484
865.743	20514
865.875	20396
866.006	20358
866.137	20355
866.269	20412
866.4	20480
866.531	20385
866.662	20301
866.793	20404
866.924	20343
867.055	20431
867.186	20419
867.317	20438
867.448	20172
867.579	20320
867.71	20286
867.841	20332
867.972	20366
868.103	20396
868.233	20343
868.364	20294
868.495	20454
868.625	20636
868.756	20689
868.886	20609
869.017	20590
869.147	20712
869.278	20689
869.408	20583
869.539	20579
869.669	20560
869.799	20590
869.929	20682
870.06	20743
870.19	20948
870.32	20861
870.45	20899
870.58	20963
870.71	21123
870.84	21100
870.97	20956
871.1	20986
871.23	21154
871.36	21222
871.489	21100
871.619	21123
871.749	21211
871.879	21211
872.008	21264
872.138	21298
872.267	21226
872.397	21089
872.526	20982
872.656	20910
872.785	21127
872.915	21176
873.044	21317
873.173	21214
873.303	21294
873.432	21256
873.561	21291
873.69	21294
873.819	21302
873.948	21325
874.077	21222
874.206	21157
874.335	21222
874.464	21275
874.593	21329
874.722	21378
874.851	21500
874.979	21443
875.108	21534
875.237	21279
875.365	21222
875.494	21416
875.623	21549
875.751	21431
875.88	21424
876.008	21591
876.136	21808
876.265	21797
876.393	21930
876.521	21964
876.65	22032
876.778	21895
876.906	21774
877.034	21736
877.162	21686
877.29	21762
877.418	21827
877.546	21838
877.674	21785
877.802	21732
877.93	21698
878.058	21812
878.185	21511
878.313	21922
878.441	21545
878.568	21675
878.696	21675
878.824	21682
878.951	21797
879.079	21956
879.206	22063
879.333	21937
879.461	21816
879.588	21873
879.715	21983
879.842	21960
879.97	21831
880.097	21618
880.224	21701
880.351	21648
880.478	21747
880.605	21599
880.732	21549
880.859	21884
880.986	21686
881.112	21701
881.239	21549
881.366	21382
881.493	21321
881.619	21089
881.746	21207
881.872	21154
881.999	21081
882.125	21108
882.252	21252
882.378	21233
882.505	21093
882.631	21199
882.757	20868
882.883	21051
883.01	20918
883.136	20872
883.262	20811
883.388	20788
883.514	21020
883.64	20861
883.766	20762
883.892	20826
884.018	20674
884.143	20823
884.269	20902
884.395	20644
884.52	20530
884.646	20632
884.772	20545
884.897	20389
885.023	20625
885.148	20667
885.274	20781
885.399	20613
885.524	20503
885.65	20602
885.775	20495
885.9	20454
886.025	20663
886.15	20568
886.275	20533
886.4	20480
886.525	20549
886.65	20434
886.775	20484
886.9	20594
887.025	20864
887.149	20450
887.274	20396
887.399	20309
887.523	20393
887.648	20256
887.773	20172
887.897	20343
888.021	20343
888.146	20301
888.27	20313
888.395	20415
888.519	20347
888.643	20225
888.767	20324
888.891	20172
889.015	20115
889.139	20161
889.263	20164
889.387	20252
889.511	20305
889.635	20278
889.759	20130
889.883	20069
890.006	20016
890.13	20240
890.254	20084
890.377	19959
890.501	19822
890.624	19860
890.748	19875
890.871	19750
890.995	19750
891.118	19529
891.241	19715
891.364	19693
891.488	19765
891.611	19734
891.734	19670
891.857	19715
891.98	19738
892.103	19818
892.226	19780
892.349	19521
892.471	19464
892.594	19613
892.717	19693
892.839	19613
892.962	19670
893.085	19685
893.207	19533
893.33	19449
893.452	19525
893.575	19613
893.697	19586
893.819	19620
893.941	19841
894.064	19765
894.186	19556
894.308	19529
894.43	19571
894.552	19769
894.674	19708
894.796	19495
894.918	19651
895.04	19556
895.161	19658
895.283	19780
895.405	19548
895.526	19590
895.648	19578
895.769	19552
895.891	19647
896.012	19708
896.134	19616
896.255	19658
896.376	19548
896.498	19693
896.619	19628
896.74	19601
896.861	19731
896.982	19890
897.103	20084
897.224	19906
897.345	19852
897.466	19776
897.587	19784
897.708	19928
897.828	19947
897.949	19719
898.07	19624
898.19	19807
898.311	19906
898.431	19879
898.552	19845
898.672	19860
898.792	19887
898.913	19856
899.033	19731
899.153	19590
899.273	19609
899.393	19635
899.513	19746
899.633	19609
899.753	19597
899.873	19460
899.993	19639
900.113	19620
900.232	19529
900.352	19563
900.472	19411
900.591	19350
900.711	19426
900.83	19350
900.95	19434
901.069	19373
901.189	19240
901.308	19114
901.427	19076
901.546	19057
901.665	19042
901.784	19034
901.904	18856
902.023	18760
902.141	18547
902.26	18528
902.379	18635
902.498	18536
902.617	18490
902.735	18456
902.854	18517
902.973	18467
903.091	18167
903.21	18182
903.328	18163
903.446	18007
903.565	18079
903.683	18011
903.801	17836
903.919	17942
904.038	17874
904.156	17726
904.274	17935
904.392	17794
904.51	17695
904.627	17726
904.745	17889
904.863	17832
904.981	17532
905.098	17490
905.216	17478
905.334	17524
905.451	17452
905.569	17360
905.686	17505
905.803	17467
905.921	17181
906.038	17258
906.155	17220
906.272	17143
906.389	17181
906.506	17041
906.623	16869
906.74	17006
906.857	16862
906.974	16866
907.091	17075
907.208	17060
907.324	17075
907.441	16881
907.557	16653
907.674	16672
907.79	16656
907.907	16599
908.023	16656
908.139	16622
908.256	16611
908.372	16554
908.488	16493
908.604	16489
908.72	16371
908.836	16421
908.952	16394
909.068	16390
909.184	16512
909.3	16428
909.415	16443
909.531	16344
909.647	16112
909.762	16173
909.878	16025
909.993	16074
910.108	16166
910.224	16025
910.339	16112
910.454	15960
910.57	15934
910.685	15838
910.8	16162
910.915	16109
911.03	15972
911.145	15804
911.259	15751
911.374	15739
911.489	15618
911.604	15542
911.718	15431
911.833	15557
911.947	15367
912.062	15230
912.176	15469
912.291	15519
912.405	15492
912.519	15519
912.633	15553
912.748	15466
912.862	15500
912.976	15321
913.09	15180
913.204	15230
913.318	15245
913.431	15310
913.545	15401
913.659	15500
913.772	15138
913.886	15211
914	15112
914.113	15192
914.226	15135
914.34	15226
914.453	14948
914.566	15218
914.68	14956
914.793	15047
914.906	14849
915.019	14697
915.132	14682
915.245	14769
915.358	14735
915.47	14701
915.583	14769
915.696	14785
915.809	14762
915.921	14868
916.034	14651
916.146	14594
916.259	14629
916.371	14708
916.483	14697
916.595	14579
916.708	14613
916.82	14514
916.932	14511
917.044	14484
917.156	14469
917.268	14355
917.38	14427
917.491	14396
917.603	14362
917.715	14457
917.826	14568
917.938	14366
918.049	14206
918.161	14320
918.272	14465
918.384	14465
918.495	14286
918.606	14073
918.717	14138
918.828	14119
918.939	14259
919.05	14050
919.161	14115
919.272	13894
919.383	14031
919.494	14191
919.604	14278
919.715	14210
919.826	14088
919.936	14100
920.047	14275
920.157	14115
920.267	14328
920.378	14161
920.488	14195
920.598	14339
920.708	14412
920.818	14240
920.928	14164
921.038	14389
921.148	14328
921.258	14134
921.368	13947
921.477	13864
921.587	13833
921.697	13742
921.806	13909
921.916	13715
922.025	13556
922.134	13601
922.244	13571
922.353	13586
922.462	13430
922.571	13377
922.68	13251
922.789	13038
922.898	13137
923.007	13133
923.116	13160
923.224	13164
923.333	13141
923.442	13091
923.55	13088
923.659	13012
923.767	13046
923.876	12958
923.984	13057
924.092	12932
924.201	12932
924.309	12977
924.417	12951
924.525	12901
924.633	12897
924.741	13601
924.849	12646
924.956	12863
925.064	12570
925.172	12540
925.279	12551
925.387	12635
925.494	12639
925.602	12688
925.709	12696
925.816	12612
925.924	12574
926.031	12730
926.138	12658
926.245	12566
926.352	12467
926.459	12620
926.566	12642
926.673	12376
926.779	12330
926.886	12426
926.993	12243
927.099	12163
927.206	12201
927.312	12155
927.419	12258
927.525	12159
927.631	12159
927.737	12064
927.843	11969
927.95	11882
928.056	11973
928.162	12060
928.267	12076
928.373	12696
928.479	12057
928.585	11859
928.69	11961
928.796	11996
928.901	11878
929.007	11729
929.112	11950
929.218	11824
929.323	11813
929.428	11779
929.533	11882
929.638	11630
929.743	11649
929.848	11745
929.953	11764
930.058	11524
930.163	11440
930.267	11501
930.372	11600
930.477	11395
930.581	11634
930.685	11455
930.79	11372
930.894	11299
930.998	11345
931.103	11326
931.207	11064
931.311	10987
931.415	10919
931.519	10729
931.623	10710
