Data from test_V78500241_540.txt Node
Date: Fri Mar 25 15:13:37 CST 2022
User: usil
Spectrometer: V785-0024
Trigger mode: 0
Integration Time (sec): 4.000000E-1
Scans to average: 1
Nonlinearity correction enabled: false
Boxcar width: 0
Storing dark spectrum: false
XAxis mode: Wavelengths
Number of Pixels in Spectrum: 1024
>>>>>Begin Spectral Data<<<<<
801.071	27268
801.214	27119
801.356	26773
801.499	26933
801.641	26788
801.783	26807
801.926	26994
802.068	26682
802.211	26720
802.353	26476
802.496	26465
802.638	26522
802.78	26389
802.923	26427
803.065	26377
803.208	26313
803.35	26317
803.492	26507
803.635	26594
803.777	26332
803.919	26621
804.061	26868
804.204	26629
804.346	26533
804.488	26492
804.63	26530
804.773	26526
804.915	26625
805.057	26590
805.199	26488
805.341	26670
805.483	26739
805.626	26651
805.768	26492
805.91	26705
806.052	26868
806.194	26492
806.336	26838
806.478	26670
806.62	26552
806.762	26682
806.904	26948
807.046	27135
807.188	27199
807.33	27127
807.472	27127
807.614	27058
807.756	27138
807.898	26940
808.04	26918
808.182	26914
808.324	26948
808.465	26902
808.607	27043
808.749	27329
808.891	27393
809.033	27450
809.174	27302
809.316	27439
809.458	27336
809.6	27203
809.741	27275
809.883	27389
810.025	27526
810.166	27473
810.308	27644
810.45	27393
810.591	27504
810.733	27310
810.875	27279
811.016	27207
811.158	27066
811.299	27420
811.441	27572
811.582	27447
811.724	27093
811.865	27150
812.007	27294
812.148	27203
812.29	27386
812.431	27241
812.573	27454
812.714	27694
812.855	27827
812.997	28013
813.138	28013
813.279	27873
813.421	27880
813.562	27823
813.703	27637
813.845	27466
813.986	27203
814.127	27135
814.268	27013
814.41	26990
814.551	26967
814.692	26990
814.833	26819
814.974	26933
815.115	26918
815.256	26819
815.397	26826
815.539	26826
815.68	26693
815.821	26560
815.962	26720
816.103	26701
816.244	26533
816.385	26431
816.526	26522
816.666	26396
816.807	26210
816.948	26374
817.089	26317
817.23	26301
817.371	26259
817.512	26134
817.653	26229
817.793	26111
817.934	26259
818.075	26233
818.216	26317
818.356	26195
818.497	26100
818.638	25932
818.778	25928
818.919	26008
819.06	26005
819.2	26130
819.341	26237
819.481	26248
819.622	26374
819.762	26530
819.903	26412
820.043	26301
820.184	26305
820.324	26347
820.465	26396
820.605	26278
820.746	26408
820.886	26111
821.026	26415
821.167	26248
821.307	26412
821.447	26256
821.588	26130
821.728	26084
821.868	25936
822.008	25715
822.149	25662
822.289	25635
822.429	25502
822.569	25369
822.709	25263
822.849	25107
822.99	25282
823.13	25145
823.27	25240
823.41	25046
823.55	24821
823.69	25076
823.83	25148
823.97	24992
824.11	24719
824.25	24821
824.389	24852
824.529	24787
824.669	24806
824.809	24977
824.949	24954
825.089	24837
825.228	24867
825.368	24681
825.508	24623
825.648	24681
825.787	24738
825.927	24749
826.067	24700
826.206	24673
826.346	24764
826.485	24703
826.625	24745
826.765	24764
826.904	24726
827.044	24429
827.183	24464
827.323	24372
827.462	24403
827.601	24346
827.741	24296
827.88	24483
828.02	24270
828.159	24224
828.298	24407
828.437	24536
828.577	24384
828.716	24452
828.855	24418
828.994	23992
829.134	23988
829.273	24182
829.412	24087
829.551	24182
829.69	24011
829.829	24049
829.968	24266
830.107	24186
830.246	24110
830.385	23973
830.524	23958
830.663	24068
830.802	23798
830.941	23805
831.08	23684
831.219	23733
831.357	23775
831.496	23942
831.635	23691
831.774	23729
831.913	23703
832.051	23524
832.19	23528
832.329	23448
832.467	23433
832.606	23406
832.744	23345
832.883	23337
833.022	23330
833.16	23364
833.299	23364
833.437	23330
833.576	23512
833.714	23440
833.852	23600
833.991	23452
834.129	23657
834.267	23516
834.406	23493
834.544	23615
834.682	23414
834.821	23421
834.959	23767
835.097	23417
835.235	23524
835.373	23558
835.511	23467
835.65	23406
835.788	23292
835.926	23193
836.064	23060
836.202	23170
836.34	23402
836.478	23414
836.615	23204
836.753	23433
836.891	23425
837.029	23406
837.167	23235
837.305	23220
837.443	23086
837.58	23246
837.718	23189
837.856	23181
837.993	23086
838.131	23128
838.269	23006
838.406	23018
838.544	22957
838.681	22824
838.819	22721
838.956	22626
839.094	22603
839.231	22649
839.369	22812
839.506	22968
839.643	22839
839.781	22611
839.918	22653
840.055	22622
840.193	22611
840.33	22459
840.467	22565
840.604	22668
840.742	22839
840.879	22443
841.016	22402
841.153	22379
841.29	22687
841.427	22512
841.564	22675
841.701	22443
841.838	22436
841.975	22626
842.112	22497
842.249	22333
842.385	22207
842.522	22493
842.659	22440
842.796	22287
842.933	22390
843.069	22226
843.206	22261
843.343	22447
843.479	22295
843.616	22276
843.752	22097
843.889	22116
844.025	22226
844.162	22082
844.298	22223
844.435	22238
844.571	22013
844.708	22109
844.844	22226
844.98	22268
845.117	22166
845.253	22082
845.389	22040
845.525	21930
845.661	21857
845.798	21876
845.934	21850
846.07	21869
846.206	21854
846.342	21949
846.478	21781
846.614	21629
846.75	21564
846.886	21545
847.022	21625
847.158	21466
847.294	21587
847.429	21663
847.565	21583
847.701	21762
847.837	21332
847.972	21169
848.108	21336
848.244	21416
848.379	21203
848.515	21066
848.65	21169
848.786	21298
848.921	21340
849.057	21279
849.192	21264
849.328	21329
849.463	21154
849.598	21256
849.734	21142
849.869	21062
850.004	21047
850.14	20929
850.275	20910
850.41	20754
850.545	20887
850.68	20944
850.815	20868
850.95	20979
851.085	21039
851.22	21066
851.355	20956
851.49	20952
851.625	20906
851.76	20948
851.895	20910
852.03	20781
852.165	20868
852.299	20952
852.434	21043
852.569	20891
852.703	20864
852.838	21020
852.973	21074
853.107	21039
853.242	20872
853.376	20849
853.511	20636
853.645	20686
853.78	20739
853.914	20823
854.048	20712
854.183	20727
854.317	20811
854.451	20906
854.585	20765
854.72	20720
854.854	20918
854.988	20648
855.122	20781
855.256	20590
855.39	20682
855.524	20910
855.658	20727
855.792	20731
855.926	20804
856.06	20796
856.194	20937
856.327	20765
856.461	20613
856.595	20746
856.729	20765
856.862	20842
856.996	20906
857.13	20849
857.263	20880
857.397	20792
857.53	20720
857.664	20807
857.797	20785
857.931	20796
858.064	20739
858.197	20902
858.331	20644
858.464	20788
858.597	20731
858.731	20899
858.864	20788
858.997	20682
859.13	20819
859.263	20933
859.396	20788
859.529	20819
859.662	20731
859.795	20644
859.928	20716
860.061	20834
860.194	20902
860.327	20842
860.46	20807
860.592	20956
860.725	20849
860.858	20845
860.99	20792
861.123	20636
861.256	20724
861.388	20693
861.521	21370
861.653	20640
861.786	20530
861.918	20594
862.05	20689
862.183	20735
862.315	20701
862.447	20746
862.58	20617
862.712	20530
862.844	20526
862.976	20560
863.108	20552
863.24	20819
863.372	20495
863.504	20476
863.636	20526
863.768	20526
863.9	20564
864.032	20503
864.164	20404
864.296	20541
864.428	20613
864.559	20564
864.691	20526
864.823	20423
864.954	20469
865.086	20404
865.217	20336
865.349	20332
865.48	20317
865.612	20320
865.743	20655
865.875	20396
866.006	20332
866.137	20476
866.269	20282
866.4	20358
866.531	20294
866.662	20347
866.793	20229
866.924	20332
867.055	20362
867.186	20351
867.317	20221
867.448	20275
867.579	20328
867.71	20366
867.841	20157
867.972	20309
868.103	20355
868.233	20351
868.364	20377
868.495	20377
868.625	20507
868.756	20644
868.886	20427
869.017	20579
869.147	20602
869.278	20663
869.408	20583
869.539	20602
869.669	20636
869.799	20602
869.929	20693
870.06	20640
870.19	20895
870.32	20716
870.45	20925
870.58	20944
870.71	21077
870.84	21024
870.97	20967
871.1	21013
871.23	21165
871.36	21112
871.489	21081
871.619	21005
871.749	21108
871.879	21313
872.008	21199
872.138	21096
872.267	21157
872.397	21108
872.526	21020
872.656	21055
872.785	20982
872.915	21135
873.044	21325
873.173	21135
873.303	21138
873.432	21207
873.561	21260
873.69	21146
873.819	21135
873.948	21245
874.077	21173
874.206	21100
874.335	21173
874.464	21199
874.593	21382
874.722	21302
874.851	21367
874.979	21359
875.108	21507
875.237	21393
875.365	21370
875.494	21363
875.623	21462
875.751	21408
875.88	21439
876.008	21595
876.136	21458
876.265	21778
876.393	22029
876.521	21873
876.65	21736
876.778	21823
876.906	21789
877.034	21686
877.162	21937
877.29	21736
877.418	21755
877.546	21698
877.674	21869
877.802	21793
877.93	21713
878.058	21622
878.185	21610
878.313	21705
878.441	21751
878.568	21504
878.696	21610
878.824	21785
878.951	21911
879.079	22101
879.206	22036
879.333	21983
879.461	21819
879.588	21880
879.715	21907
879.842	22135
879.97	21873
880.097	21576
880.224	21545
880.351	21576
880.478	21663
880.605	21534
880.732	21515
880.859	21857
880.986	21587
881.112	21568
881.239	21435
881.366	21325
881.493	21272
881.619	21157
881.746	21218
881.872	21256
881.999	21104
882.125	20994
882.252	21142
882.378	21256
882.505	21241
882.631	21055
882.757	20887
882.883	21001
883.01	20975
883.136	20883
883.262	20800
883.388	20701
883.514	20807
883.64	20895
883.766	20876
883.892	20629
884.018	20899
884.143	20864
884.269	20941
884.395	20659
884.52	20480
884.646	20514
884.772	20389
884.897	20393
885.023	20503
885.148	20686
885.274	20701
885.399	20735
885.524	20609
885.65	20613
885.775	20556
885.9	20625
886.025	20651
886.15	20625
886.275	20495
886.4	20396
886.525	20473
886.65	20488
886.775	20423
886.9	20739
887.025	20712
887.149	20552
887.274	20450
887.399	20339
887.523	20309
887.648	20218
887.773	20172
887.897	20366
888.021	20282
888.146	20263
888.27	20343
888.395	20336
888.519	20351
888.643	20396
888.767	20313
888.891	20092
889.015	20130
889.139	20332
889.263	20180
889.387	20138
889.511	20248
889.635	20278
889.759	20149
889.883	19993
890.006	20077
890.13	20275
890.254	20111
890.377	19898
890.501	19845
890.624	19871
890.748	19860
890.871	19818
890.995	19784
891.118	19643
891.241	19662
891.364	19666
891.488	19925
891.611	19700
891.734	19689
891.857	19738
891.98	19753
892.103	19734
892.226	19681
892.349	19666
892.471	19514
892.594	19544
892.717	19708
892.839	19533
892.962	19704
893.085	19674
893.207	19510
893.33	19388
893.452	19525
893.575	19556
893.697	19643
893.819	19742
893.941	19788
894.064	19727
894.186	19540
894.308	19544
894.43	19658
894.552	19643
894.674	19521
894.796	19575
894.918	19449
895.04	19521
895.161	19578
895.283	19605
895.405	19495
895.526	19666
895.648	19578
895.769	19643
895.891	19639
896.012	19757
896.134	19700
896.255	19582
896.376	19582
896.498	19693
896.619	19616
896.74	19544
896.861	19723
896.982	19868
897.103	20027
897.224	19849
897.345	19837
897.466	19750
897.587	19845
897.708	19913
897.828	19837
897.949	19704
898.07	19704
898.19	19750
898.311	19921
898.431	19826
898.552	19818
898.672	19871
898.792	19837
898.913	19928
899.033	19700
899.153	19563
899.273	19586
899.393	19628
899.513	19677
899.633	19582
899.753	19632
899.873	19601
899.993	19491
900.113	19537
900.232	19620
900.352	19525
900.472	19476
900.591	19388
900.711	19320
900.83	19358
900.95	19430
901.069	19415
901.189	19232
901.308	18920
901.427	18928
901.546	18913
901.665	18958
901.784	18985
901.904	18962
902.023	18703
902.141	18544
902.26	18502
902.379	18566
902.498	18566
902.617	18479
902.735	18475
902.854	18528
902.973	18384
903.091	18262
903.21	18155
903.328	18213
903.446	18007
903.565	17973
903.683	18026
903.801	17897
903.919	17878
904.038	17882
904.156	17786
904.274	17824
904.392	17707
904.51	17687
904.627	17672
904.745	17729
904.863	17828
904.981	17646
905.098	17455
905.216	17387
905.334	17410
905.451	17395
905.569	17387
905.686	17383
905.803	17330
905.921	17204
906.038	17448
906.155	17227
906.272	17094
906.389	17208
906.506	17003
906.623	16942
906.74	17052
906.857	16858
906.974	16919
907.091	16892
907.208	16999
907.324	16946
907.441	16866
907.557	16733
907.674	16713
907.79	16618
907.907	16656
908.023	16706
908.139	16565
908.256	16630
908.372	16561
908.488	16542
908.604	16379
908.72	16432
908.836	16474
908.952	16344
909.068	16432
909.184	16519
909.3	16375
909.415	16371
909.531	16284
909.647	16097
909.762	16204
909.878	16032
909.993	16158
910.108	16154
910.224	16211
910.339	16090
910.454	16036
910.57	15968
910.685	15895
910.8	16055
910.915	16135
911.03	15899
911.145	15789
911.259	15641
911.374	15732
911.489	15720
911.604	15648
911.718	15443
911.833	15431
911.947	15344
912.062	15332
912.176	15454
912.291	15447
912.405	15450
912.519	15663
912.633	15568
912.748	15389
912.862	15405
912.976	15226
913.09	15138
913.204	15302
913.318	15268
913.431	15374
913.545	15363
913.659	15363
913.772	15237
913.886	15150
914	15062
914.113	15119
914.226	15268
914.34	15195
914.453	14979
914.566	15127
914.68	14918
914.793	14906
914.906	14720
915.019	14708
915.132	14693
915.245	14689
915.358	14765
915.47	14708
915.583	14708
915.696	14697
915.809	14762
915.921	14853
916.034	14632
916.146	14610
916.259	14606
916.371	14644
916.483	14606
916.595	14613
916.708	14610
916.82	14461
916.932	14442
917.044	14583
917.156	14465
917.268	14377
917.38	14480
917.491	14415
917.603	14343
917.715	14423
917.826	14484
917.938	14381
918.049	14199
918.161	14317
918.272	14446
918.384	14484
918.495	14339
918.606	14145
918.717	14054
918.828	14278
918.939	14278
919.05	14054
919.161	14050
919.272	13917
919.383	13955
919.494	14161
919.604	14309
919.715	14202
919.826	14084
919.936	14103
920.047	14263
920.157	14115
920.267	14309
920.378	14180
920.488	14020
920.598	14305
920.708	14476
920.818	14290
920.928	14309
921.038	14454
921.148	14309
921.258	14027
921.368	13986
921.477	13883
921.587	13803
921.697	13731
921.806	13921
921.916	13738
922.025	13499
922.134	13438
922.244	13438
922.353	13586
922.462	13350
922.571	13453
922.68	13232
922.789	13152
922.898	13194
923.007	13133
923.116	13236
923.224	13225
923.333	13190
923.442	13000
923.55	13057
923.659	12981
923.767	13031
923.876	12932
923.984	13050
924.092	12882
924.201	12947
924.309	12932
924.417	12951
924.525	12848
924.633	12817
924.741	13582
924.849	12665
924.956	12802
925.064	12677
925.172	12582
925.279	12642
925.387	12635
925.494	12620
925.602	12703
925.709	12563
925.816	12445
925.924	12506
926.031	12608
926.138	12566
926.245	12608
926.352	12490
926.459	12506
926.566	12677
926.673	12460
926.779	12498
926.886	12319
926.993	12247
927.099	12239
927.206	12190
927.312	12076
927.419	12216
927.525	12182
927.631	12136
927.737	12091
927.843	12041
927.95	11973
928.056	11973
928.162	12060
928.267	12034
928.373	12608
928.479	11996
928.585	11828
928.69	12072
928.796	11958
928.901	11969
929.007	11783
929.112	11828
929.218	11832
929.323	11786
929.428	11680
929.533	11889
929.638	11646
929.743	11741
929.848	11767
929.953	11691
930.058	11570
930.163	11406
930.267	11444
930.372	11630
930.477	11463
930.581	11608
930.685	11452
930.79	11364
930.894	11280
930.998	11273
931.103	11440
931.207	11124
931.311	11075
931.415	10980
931.519	10778
931.623	10714
