Data from test_V78500241_1577.txt Node
Date: Fri Mar 25 15:20:50 CST 2022
User: usil
Spectrometer: V785-0024
Trigger mode: 0
Integration Time (sec): 4.000000E-1
Scans to average: 1
Nonlinearity correction enabled: false
Boxcar width: 0
Storing dark spectrum: false
XAxis mode: Wavelengths
Number of Pixels in Spectrum: 1024
>>>>>Begin Spectral Data<<<<<
801.071	27625
801.214	27633
801.356	27458
801.499	27283
801.641	27119
801.783	27150
801.926	27283
802.068	27135
802.211	27131
802.353	27135
802.496	26853
802.638	26815
802.78	26937
802.923	26758
803.065	26739
803.208	26788
803.35	26982
803.492	27043
803.635	27024
803.777	26960
803.919	26994
804.061	27382
804.204	27249
804.346	27005
804.488	26925
804.63	27058
804.773	26925
804.915	27161
805.057	27119
805.199	27127
805.341	27184
805.483	27192
805.626	27123
805.768	26979
805.91	27150
806.052	27142
806.194	27089
806.336	27382
806.478	27169
806.62	27051
806.762	27165
806.904	27283
807.046	27534
807.188	27629
807.33	27644
807.472	27622
807.614	27515
807.756	27591
807.898	27462
808.04	27504
808.182	27348
808.324	27439
808.465	27526
808.607	27576
808.749	27785
808.891	27934
809.033	27873
809.174	27698
809.316	27835
809.458	27797
809.6	27914
809.741	27949
809.883	27880
810.025	28013
810.166	28051
810.308	28078
810.45	28082
810.591	27880
810.733	27865
810.875	27835
811.016	27732
811.158	27629
811.299	27755
811.441	27911
811.582	28010
811.724	27838
811.865	27736
812.007	27751
812.148	27869
812.29	27812
812.431	28032
812.573	28150
812.714	28219
812.855	28322
812.997	28386
813.138	28611
813.279	28344
813.421	28360
813.562	28234
813.703	28116
813.845	27949
813.986	27739
814.127	27534
814.268	27580
814.41	27583
814.551	27439
814.692	27450
814.833	27416
814.974	27386
815.115	27389
815.256	27329
815.397	27279
815.539	27291
815.68	27195
815.821	27222
815.962	27302
816.103	27363
816.244	27116
816.385	26956
816.526	26925
816.666	26899
816.807	26716
816.948	26826
817.089	26823
817.23	26929
817.371	26682
817.512	26689
817.653	26845
817.793	26560
817.934	26750
818.075	26655
818.216	26655
818.356	26606
818.497	26651
818.638	26457
818.778	26469
818.919	26587
819.06	26606
819.2	26522
819.341	26834
819.481	26902
819.622	26785
819.762	27100
819.903	26979
820.043	27017
820.184	26933
820.324	26796
820.465	26937
820.605	26940
820.746	26982
820.886	26712
821.026	26815
821.167	26743
821.307	26998
821.447	26674
821.588	26754
821.728	26640
821.868	26423
822.008	26214
822.149	26237
822.289	26210
822.429	25906
822.569	26008
822.709	25849
822.849	25658
822.99	25791
823.13	25799
823.27	25544
823.41	25430
823.55	25362
823.69	25647
823.83	25586
823.97	25464
824.11	25354
824.25	25396
824.389	25335
824.529	25487
824.669	25381
824.809	25491
824.949	25316
825.089	25510
825.228	25483
825.368	25122
825.508	25160
825.648	25190
825.787	25441
825.927	25343
826.067	25164
826.206	25232
826.346	25358
826.485	25221
826.625	25076
826.765	25362
826.904	25285
827.044	25076
827.183	25000
827.323	24878
827.462	25053
827.601	25012
827.741	24878
827.88	24875
828.02	24829
828.159	24897
828.298	24814
828.437	24992
828.577	24871
828.716	25019
828.855	24806
828.994	24734
829.134	24620
829.273	24791
829.412	24623
829.551	24684
829.69	24722
829.829	24627
829.968	24817
830.107	24840
830.246	24783
830.385	24494
830.524	24505
830.663	24426
830.802	24437
830.941	24148
831.08	24292
831.219	24334
831.357	24429
831.496	24441
831.635	24315
831.774	24163
831.913	24068
832.051	24015
832.19	24114
832.329	24201
832.467	23954
832.606	23916
832.744	23817
832.883	23870
833.022	23965
833.16	23882
833.299	23912
833.437	23980
833.576	24072
833.714	23920
833.852	24049
833.991	24068
834.129	24041
834.267	24053
834.406	23969
834.544	24015
834.682	23916
834.821	23874
834.959	23988
835.097	23923
835.235	24018
835.373	24068
835.511	24038
835.65	23863
835.788	23767
835.926	23665
836.064	23566
836.202	23718
836.34	23707
836.478	23885
836.615	23760
836.753	23779
836.891	23794
837.029	23828
837.167	23767
837.305	23756
837.443	23524
837.58	23570
837.718	23695
837.856	23783
837.993	23665
838.131	23649
838.269	23482
838.406	23467
838.544	23463
838.681	23227
838.819	23303
838.956	23178
839.094	23185
839.231	23189
839.369	23341
839.506	23433
839.643	23349
839.781	23189
839.918	23037
840.055	23132
840.193	23147
840.33	22987
840.467	23086
840.604	22972
840.742	23326
840.879	22915
841.016	23029
841.153	22904
841.29	23067
841.427	23102
841.564	23052
841.701	22995
841.838	22976
841.975	22911
842.112	23052
842.249	22831
842.385	22790
842.522	23052
842.659	22831
842.796	22793
842.933	22858
843.069	22774
843.206	22683
843.343	22862
843.479	22729
843.616	22809
843.752	22599
843.889	22626
844.025	22554
844.162	22504
844.298	22622
844.435	22615
844.571	22588
844.708	22599
844.844	22717
844.98	22698
845.117	22713
845.253	22462
845.389	22379
845.525	22443
845.661	22561
845.798	22291
845.934	22394
846.07	22287
846.206	22207
846.342	22371
846.478	22310
846.614	21960
846.75	22063
846.886	21998
847.022	22078
847.158	22070
847.294	22021
847.429	22074
847.565	22211
847.701	22238
847.837	21850
847.972	21751
848.108	21892
848.244	21956
848.379	21660
848.515	21561
848.65	21686
848.786	21625
848.921	21519
849.057	21785
849.192	21679
849.328	21622
849.463	21637
849.598	21606
849.734	21519
849.869	21435
850.004	21458
850.14	21515
850.275	21386
850.41	21279
850.545	21298
850.68	21416
850.815	21275
850.95	21348
851.085	21622
851.22	21431
851.355	21412
851.49	21359
851.625	21386
851.76	21340
851.895	21355
852.03	21245
852.165	21401
852.299	21332
852.434	21473
852.569	21492
852.703	21359
852.838	21401
852.973	21458
853.107	21488
853.242	21264
853.376	21211
853.511	21074
853.645	21199
853.78	21378
853.914	21138
854.048	21184
854.183	21161
854.317	21214
854.451	21420
854.585	21237
854.72	21123
854.854	21355
854.988	21237
855.122	21199
855.256	21077
855.39	21188
855.524	21317
855.658	21161
855.792	21264
855.926	21306
856.06	21416
856.194	21211
856.327	21096
856.461	21135
856.595	21116
856.729	21157
856.862	21317
856.996	21192
857.13	21245
857.263	21272
857.397	21298
857.53	21150
857.664	21325
857.797	21226
857.931	21249
858.064	21241
858.197	21279
858.331	21222
858.464	21169
858.597	21116
858.731	21188
858.864	21256
858.997	21199
859.13	21199
859.263	21199
859.396	21317
859.529	21032
859.662	21100
859.795	21207
859.928	21268
860.061	21378
860.194	21412
860.327	21237
860.46	21294
860.592	21325
860.725	21408
860.858	21218
860.99	21302
861.123	21150
861.256	21085
861.388	21237
861.521	21876
861.653	20982
861.786	21020
861.918	21028
862.05	21112
862.183	21138
862.315	21218
862.447	21268
862.58	21119
862.712	20876
862.844	20902
862.976	21062
863.108	20921
863.24	21291
863.372	20872
863.504	20826
863.636	20902
863.768	20918
863.9	20895
864.032	20887
864.164	20811
864.296	20834
864.428	21081
864.559	21096
864.691	20975
864.823	20891
864.954	20811
865.086	20902
865.217	20842
865.349	20758
865.48	20800
865.612	20971
865.743	20990
865.875	20739
866.006	20796
866.137	20861
866.269	20830
866.4	20754
866.531	20659
866.662	20735
866.793	20712
866.924	20731
867.055	20792
867.186	20811
867.317	20705
867.448	20693
867.579	20621
867.71	20731
867.841	20621
867.972	20727
868.103	20750
868.233	20705
868.364	20826
868.495	20895
868.625	20849
868.756	21123
868.886	20921
869.017	20899
869.147	21017
869.278	20986
869.408	21074
869.539	20971
869.669	21028
869.799	21062
869.929	21066
870.06	21089
870.19	21252
870.32	21298
870.45	21439
870.58	21302
870.71	21473
870.84	21561
870.97	21473
871.1	21367
871.23	21610
871.36	21663
871.489	21386
871.619	21576
871.749	21648
871.879	21671
872.008	21736
872.138	21671
872.267	21610
872.397	21530
872.526	21564
872.656	21416
872.785	21488
872.915	21698
873.044	21667
873.173	21595
873.303	21629
873.432	21644
873.561	21724
873.69	21641
873.819	21610
873.948	21511
874.077	21507
874.206	21538
874.335	21682
874.464	21629
874.593	21884
874.722	21861
874.851	21895
874.979	21838
875.108	21895
875.237	21857
875.365	21724
875.494	21850
875.623	21915
875.751	21694
875.88	21865
876.008	21991
876.136	22105
876.265	22158
876.393	22402
876.521	22379
876.65	22303
876.778	22147
876.906	22158
877.034	22169
877.162	22067
877.29	22112
877.418	22101
877.546	22185
877.674	22280
877.802	22109
877.93	22101
878.058	22010
878.185	22063
878.313	22078
878.441	22207
878.568	22040
878.696	22147
878.824	22310
878.951	22276
879.079	22405
879.206	22660
879.333	22318
879.461	22284
879.588	22318
879.715	22314
879.842	22462
879.97	22219
880.097	22040
880.224	21911
880.351	22154
880.478	22044
880.605	21949
880.732	22177
880.859	22295
880.986	21941
881.112	21934
881.239	21880
881.366	21728
881.493	21713
881.619	21641
881.746	21652
881.872	21515
881.999	21576
882.125	21599
882.252	21690
882.378	21553
882.505	21637
882.631	21450
882.757	21268
882.883	21424
883.01	21272
883.136	21203
883.262	21085
883.388	21142
883.514	21302
883.64	21222
883.766	21260
883.892	21036
884.018	21047
884.143	21100
884.269	21401
884.395	20971
884.52	20788
884.646	20845
884.772	20853
884.897	20872
885.023	21028
885.148	21017
885.274	20990
885.399	20994
885.524	20925
885.65	20914
885.775	20868
885.9	20849
886.025	21096
886.15	20872
886.275	20830
886.4	20769
886.525	20914
886.65	20800
886.775	20811
886.9	20960
887.025	21119
887.149	20800
887.274	20765
887.399	20716
887.523	20663
887.648	20693
887.773	20632
887.897	20746
888.021	20804
888.146	20552
888.27	20845
888.395	20773
888.519	20731
888.643	20655
888.767	20640
888.891	20636
889.015	20511
889.139	20514
889.263	20454
889.387	20625
889.511	20621
889.635	20708
889.759	20514
889.883	20587
890.006	20674
890.13	20606
890.254	20336
890.377	20374
890.501	20301
890.624	20229
890.748	20381
890.871	20161
890.995	20103
891.118	19974
891.241	20065
891.364	20153
891.488	20210
891.611	20138
891.734	20088
891.857	20134
891.98	20020
892.103	20077
892.226	20138
892.349	20001
892.471	19864
892.594	19932
892.717	19887
892.839	20024
892.962	19936
893.085	19986
893.207	19868
893.33	19811
893.452	19837
893.575	19947
893.697	19856
893.819	20050
893.941	20054
894.064	20248
894.186	19875
894.308	19978
894.43	20012
894.552	20054
894.674	19989
894.796	19841
894.918	19947
895.04	19982
895.161	19932
895.283	20027
895.405	20039
895.526	19875
895.648	19951
895.769	19917
895.891	19997
896.012	20039
896.134	20012
896.255	20031
896.376	19894
896.498	19890
896.619	19997
896.74	19974
896.861	19978
896.982	20301
897.103	20385
897.224	20240
897.345	20206
897.466	20206
897.587	20073
897.708	20347
897.828	20210
897.949	20180
898.07	20024
898.19	20176
898.311	20252
898.431	20062
898.552	20176
898.672	20164
898.792	20176
898.913	20119
899.033	20062
899.153	20020
899.273	19913
899.393	19989
899.513	20050
899.633	19902
899.753	20020
899.873	19894
899.993	19978
900.113	19837
900.232	19856
900.352	19978
900.472	19765
900.591	19712
900.711	19624
900.83	19704
900.95	19761
901.069	19822
901.189	19609
901.308	19441
901.427	19346
901.546	19213
901.665	19350
901.784	19365
901.904	19217
902.023	18981
902.141	18852
902.26	18802
902.379	18958
902.498	18798
902.617	18726
902.735	18829
902.854	18878
902.973	18814
903.091	18475
903.21	18426
903.328	18399
903.446	18410
903.565	18391
903.683	18388
903.801	18201
903.919	18289
904.038	18285
904.156	18155
904.274	18136
904.392	18110
904.51	18015
904.627	18091
904.745	18129
904.863	18159
904.981	17893
905.098	17783
905.216	17790
905.334	17703
905.451	17665
905.569	17726
905.686	17760
905.803	17748
905.921	17566
906.038	17627
906.155	17585
906.272	17414
906.389	17425
906.506	17345
906.623	17307
906.74	17235
906.857	17109
906.974	17105
907.091	17440
907.208	17284
907.324	17296
907.441	17102
907.557	17079
907.674	17060
907.79	17014
907.907	16972
908.023	17041
908.139	17045
908.256	16942
908.372	16911
908.488	16869
908.604	16763
908.72	16679
908.836	16626
908.952	16706
909.068	16790
909.184	16835
909.3	16835
909.415	16710
909.531	16679
909.647	16413
909.762	16440
909.878	16424
909.993	16440
910.108	16322
910.224	16325
910.339	16363
910.454	16371
910.57	16310
910.685	16086
910.8	16367
910.915	16417
911.03	16219
911.145	16131
911.259	16082
911.374	15964
911.489	16010
911.604	15926
911.718	15808
911.833	15694
911.947	15717
912.062	15667
912.176	15728
912.291	15701
912.405	15625
912.519	15873
912.633	15983
912.748	15819
912.862	15682
912.976	15618
913.09	15534
913.204	15610
913.318	15526
913.431	15709
913.545	15660
913.659	15724
913.772	15500
913.886	15416
914	15344
914.113	15477
914.226	15526
914.34	15412
914.453	15264
914.566	15351
914.68	15275
914.793	15264
914.906	15108
915.019	15005
915.132	14918
915.245	15024
915.358	14979
915.47	14986
915.583	14941
915.696	15028
915.809	15116
915.921	15108
916.034	14979
916.146	14918
916.259	14914
916.371	14994
916.483	14971
916.595	14823
916.708	14849
916.82	14819
916.932	14781
917.044	14777
917.156	14765
917.268	14746
917.38	14667
917.491	14743
917.603	14697
917.715	14663
917.826	14743
917.938	14625
918.049	14556
918.161	14632
918.272	14701
918.384	14625
918.495	14693
918.606	14385
918.717	14438
918.828	14393
918.939	14499
919.05	14408
919.161	14370
919.272	14149
919.383	14233
919.494	14461
919.604	14583
919.715	14362
919.826	14374
919.936	14423
920.047	14393
920.157	14404
920.267	14636
920.378	14381
920.488	14339
920.598	14587
920.708	14708
920.818	14583
920.928	14526
921.038	14659
921.148	14545
921.258	14309
921.368	14275
921.477	14172
921.587	14153
921.697	13963
921.806	14115
921.916	13978
922.025	13814
922.134	13700
922.244	13738
922.353	13746
922.462	13696
922.571	13510
922.68	13476
922.789	13430
922.898	13335
923.007	13373
923.116	13396
923.224	13358
923.333	13358
923.442	13331
923.55	13217
923.659	13297
923.767	13278
923.876	13225
923.984	13221
924.092	13072
924.201	13152
924.309	13156
924.417	13206
924.525	13042
924.633	13031
924.741	13837
924.849	12932
924.956	12973
925.064	12901
925.172	12734
925.279	12779
925.387	12916
925.494	12814
925.602	12886
925.709	12852
925.816	12703
925.924	12681
926.031	12837
926.138	12783
926.245	12779
926.352	12715
926.459	12821
926.566	12901
926.673	12688
926.779	12559
926.886	12578
926.993	12456
927.099	12388
927.206	12372
927.312	12338
927.419	12471
927.525	12403
927.631	12372
927.737	12342
927.843	12270
927.95	12171
928.056	12243
928.162	12201
928.267	12292
928.373	12932
928.479	12407
928.585	12019
928.69	12262
928.796	12273
928.901	12114
929.007	11977
929.112	12106
929.218	12049
929.323	11992
929.428	11996
929.533	12091
929.638	11893
929.743	11882
929.848	11969
929.953	11790
930.058	11866
930.163	11570
930.267	11665
930.372	11756
930.477	11589
930.581	11882
930.685	11653
930.79	11406
930.894	11566
930.998	11493
931.103	11646
931.207	11280
931.311	11273
931.415	11220
931.519	10991
931.623	10793
