Data from test_V78500241_3614.txt Node
Date: Fri Mar 25 15:35:01 CST 2022
User: usil
Spectrometer: V785-0024
Trigger mode: 0
Integration Time (sec): 4.000000E-1
Scans to average: 1
Nonlinearity correction enabled: false
Boxcar width: 0
Storing dark spectrum: false
XAxis mode: Wavelengths
Number of Pixels in Spectrum: 1024
>>>>>Begin Spectral Data<<<<<
801.071	27336
801.214	27226
801.356	27093
801.499	26998
801.641	26937
801.783	26819
801.926	26937
802.068	26891
802.211	26720
802.353	26765
802.496	26632
802.638	26507
802.78	26400
802.923	26385
803.065	26522
803.208	26415
803.35	26613
803.492	26659
803.635	26674
803.777	26537
803.919	26571
804.061	27032
804.204	26834
804.346	26533
804.488	26446
804.63	26678
804.773	26648
804.915	26716
805.057	26918
805.199	26625
805.341	26781
805.483	26811
805.626	26864
805.768	26693
805.91	26762
806.052	26697
806.194	26724
806.336	26876
806.478	26819
806.62	26834
806.762	26986
806.904	27058
807.046	27256
807.188	26990
807.33	27230
807.472	27260
807.614	27089
807.756	27184
807.898	26948
808.04	26868
808.182	26998
808.324	26963
808.465	27077
808.607	27294
808.749	27378
808.891	27466
809.033	27504
809.174	27374
809.316	27283
809.458	27370
809.6	27199
809.741	27473
809.883	27374
810.025	27720
810.166	27694
810.308	27648
810.45	27644
810.591	27603
810.733	27382
810.875	27447
811.016	27214
811.158	27389
811.299	27564
811.441	27519
811.582	27652
811.724	27416
811.865	27310
812.007	27264
812.148	27298
812.29	27416
812.431	27633
812.573	27709
812.714	27789
812.855	27876
812.997	28063
813.138	28086
813.279	27998
813.421	27892
813.562	27781
813.703	27633
813.845	27614
813.986	27374
814.127	27233
814.268	27005
814.41	27028
814.551	26998
814.692	27093
814.833	27005
814.974	26971
815.115	27142
815.256	26910
815.397	26929
815.539	26937
815.68	26872
815.821	26750
815.962	26868
816.103	26857
816.244	26682
816.385	26609
816.526	26587
816.666	26404
816.807	26339
816.948	26370
817.089	26366
817.23	26290
817.371	26122
817.512	26229
817.653	26282
817.793	26294
817.934	26393
818.075	26263
818.216	26381
818.356	26400
818.497	26157
818.638	26187
818.778	26062
818.919	26035
819.06	26126
819.2	26210
819.341	26408
819.481	26233
819.622	26511
819.762	26735
819.903	26609
820.043	26537
820.184	26473
820.324	26298
820.465	26518
820.605	26450
820.746	26393
820.886	26313
821.026	26396
821.167	26248
821.307	26313
821.447	26442
821.588	26202
821.728	26020
821.868	25955
822.008	25613
822.149	25746
822.289	25822
822.429	25533
822.569	25529
822.709	25457
822.849	25244
822.99	25282
823.13	25240
823.27	25194
823.41	25148
823.55	25050
823.69	25133
823.83	25088
823.97	25091
824.11	24939
824.25	24753
824.389	24905
824.529	25019
824.669	24897
824.809	25019
824.949	25050
825.089	25000
825.228	25050
825.368	24821
825.508	24772
825.648	24795
825.787	24783
825.927	24901
826.067	24848
826.206	24795
826.346	24894
826.485	24814
826.625	24825
826.765	24947
826.904	24692
827.044	24741
827.183	24642
827.323	24547
827.462	24578
827.601	24620
827.741	24536
827.88	24448
828.02	24471
828.159	24494
828.298	24456
828.437	24521
828.577	24380
828.716	24551
828.855	24380
828.994	24262
829.134	24311
829.273	24300
829.412	24220
829.551	24140
829.69	24243
829.829	24258
829.968	24304
830.107	24350
830.246	24353
830.385	24281
830.524	24148
830.663	24220
830.802	23893
830.941	23798
831.08	23851
831.219	23916
831.357	23950
831.496	24022
831.635	23821
831.774	23767
831.913	23794
832.051	23733
832.19	23703
832.329	23764
832.467	23577
832.606	23410
832.744	23391
832.883	23535
833.022	23608
833.16	23676
833.299	23604
833.437	23535
833.576	23668
833.714	23600
833.852	23623
833.991	23638
834.129	23790
834.267	23786
834.406	23611
834.544	23680
834.682	23604
834.821	23547
834.959	23714
835.097	23596
835.235	23714
835.373	23649
835.511	23646
835.65	23505
835.788	23429
835.926	23425
836.064	23315
836.202	23387
836.34	23486
836.478	23482
836.615	23570
836.753	23459
836.891	23646
837.029	23497
837.167	23539
837.305	23372
837.443	23349
837.58	23200
837.718	23379
837.856	23280
837.993	23242
838.131	23334
838.269	23269
838.406	23204
838.544	23140
838.681	23010
838.819	23025
838.956	22908
839.094	22847
839.231	22858
839.369	22987
839.506	23231
839.643	22961
839.781	22809
839.918	22729
840.055	22782
840.193	22744
840.33	22752
840.467	22790
840.604	22782
840.742	23006
840.879	22641
841.016	22603
841.153	22641
841.29	22923
841.427	22694
841.564	22843
841.701	22687
841.838	22683
841.975	22664
842.112	22736
842.249	22565
842.385	22531
842.522	22793
842.659	22603
842.796	22409
842.933	22493
843.069	22462
843.206	22432
843.343	22565
843.479	22516
843.616	22500
843.752	22344
843.889	22276
844.025	22455
844.162	22234
844.298	22409
844.435	22303
844.571	22234
844.708	22249
844.844	22432
844.98	22497
845.117	22356
845.253	22242
845.389	22124
845.525	22249
845.661	22029
845.798	22109
845.934	22082
846.07	21884
846.206	22021
846.342	22173
846.478	21994
846.614	21762
846.75	21793
846.886	21785
847.022	21895
847.158	21888
847.294	21808
847.429	21831
847.565	21720
847.701	22017
847.837	21481
847.972	21405
848.108	21481
848.244	21652
848.379	21393
848.515	21382
848.65	21291
848.786	21291
848.921	21351
849.057	21450
849.192	21462
849.328	21393
849.463	21222
849.598	21332
849.734	21241
849.869	21260
850.004	21203
850.14	21249
850.275	21287
850.41	21039
850.545	21005
850.68	21020
850.815	21180
850.95	21043
851.085	21340
851.22	21207
851.355	21127
851.49	21123
851.625	20979
851.76	21180
851.895	21001
852.03	21001
852.165	21195
852.299	21188
852.434	21237
852.569	21169
852.703	21089
852.838	21176
852.973	21146
853.107	21138
853.242	21119
853.376	20994
853.511	20929
853.645	20979
853.78	21032
853.914	20944
854.048	20807
854.183	20944
854.317	21070
854.451	21146
854.585	20963
854.72	20899
854.854	21036
854.988	20933
855.122	21005
855.256	20800
855.39	20921
855.524	20994
855.658	20918
855.792	20994
855.926	20868
856.06	21017
856.194	21051
856.327	21081
856.461	20815
856.595	20998
856.729	20948
856.862	21119
856.996	20979
857.13	20906
857.263	21058
857.397	20994
857.53	20872
857.664	20948
857.797	20982
857.931	21001
858.064	20918
858.197	20956
858.331	21001
858.464	20895
858.597	20750
858.731	20887
858.864	20929
858.997	20868
859.13	21036
859.263	20887
859.396	21001
859.529	20796
859.662	20944
859.795	20872
859.928	21055
860.061	21005
860.194	21112
860.327	20937
860.46	20864
860.592	21051
860.725	21077
860.858	21108
860.99	20998
861.123	20868
861.256	20880
861.388	20982
861.521	21766
861.653	20830
861.786	20606
861.918	20807
862.05	20826
862.183	20891
862.315	20838
862.447	20910
862.58	20861
862.712	20651
862.844	20518
862.976	20716
863.108	20781
863.24	21005
863.372	20636
863.504	20686
863.636	20735
863.768	20788
863.9	20689
864.032	20659
864.164	20590
864.296	20651
864.428	20754
864.559	20739
864.691	20758
864.823	20724
864.954	20682
865.086	20613
865.217	20640
865.349	20560
865.48	20556
865.612	20492
865.743	20670
865.875	20564
866.006	20522
866.137	20434
866.269	20488
866.4	20606
866.531	20530
866.662	20484
866.793	20492
866.924	20503
867.055	20511
867.186	20537
867.317	20457
867.448	20446
867.579	20389
867.71	20412
867.841	20473
867.972	20579
868.103	20438
868.233	20495
868.364	20507
868.495	20518
868.625	20686
868.756	20815
868.886	20629
869.017	20735
869.147	20868
869.278	20811
869.408	20773
869.539	20788
869.669	20796
869.799	20727
869.929	20853
870.06	20918
870.19	21066
870.32	20982
870.45	21032
870.58	21066
870.71	21199
870.84	21199
870.97	21108
871.1	21032
871.23	21336
871.36	21397
871.489	21214
871.619	21363
871.749	21382
871.879	21313
872.008	21348
872.138	21416
872.267	21340
872.397	21123
872.526	21214
872.656	21207
872.785	21256
872.915	21534
873.044	21545
873.173	21447
873.303	21408
873.432	21348
873.561	21496
873.69	21401
873.819	21313
873.948	21507
874.077	21450
874.206	21351
874.335	21397
874.464	21485
874.593	21530
874.722	21530
874.851	21549
874.979	21698
875.108	21781
875.237	21538
875.365	21622
875.494	21496
875.623	21610
875.751	21610
875.88	21641
876.008	21846
876.136	21895
876.265	22002
876.393	22063
876.521	22112
876.65	22006
876.778	21994
876.906	21956
877.034	21846
877.162	21979
877.29	21945
877.418	22025
877.546	22044
877.674	21915
877.802	21899
877.93	21983
878.058	21789
878.185	21686
878.313	21975
878.441	21937
878.568	21739
878.696	21857
878.824	21975
878.951	22055
879.079	22067
879.206	22367
879.333	22044
879.461	21930
879.588	21945
879.715	22116
879.842	22219
879.97	22044
880.097	21747
880.224	21823
880.351	21812
880.478	21785
880.605	21728
880.732	21903
880.859	21945
880.986	21838
881.112	21880
881.239	21713
881.366	21637
881.493	21389
881.619	21351
881.746	21431
881.872	21420
881.999	21294
882.125	21332
882.252	21355
882.378	21302
882.505	21405
882.631	21233
882.757	21199
882.883	21199
883.01	21077
883.136	20994
883.262	20937
883.388	20956
883.514	20998
883.64	21138
883.766	21024
883.892	20804
884.018	20773
884.143	21032
884.269	21116
884.395	20804
884.52	20777
884.646	20815
884.772	20705
884.897	20617
885.023	20720
885.148	20716
885.274	20804
885.399	20838
885.524	20594
885.65	20834
885.775	20788
885.9	20811
886.025	20792
886.15	20769
886.275	20644
886.4	20674
886.525	20754
886.65	20587
886.775	20667
886.9	20750
887.025	20876
887.149	20762
887.274	20575
887.399	20533
887.523	20469
887.648	20431
887.773	20415
887.897	20602
888.021	20511
888.146	20461
888.27	20541
888.395	20495
888.519	20530
888.643	20469
888.767	20511
888.891	20317
889.015	20336
889.139	20374
889.263	20343
889.387	20347
889.511	20522
889.635	20389
889.759	20282
889.883	20225
890.006	20282
890.13	20457
890.254	20107
890.377	20256
890.501	19967
890.624	19879
890.748	20043
890.871	19963
890.995	19795
891.118	19731
891.241	19879
891.364	19803
891.488	19989
891.611	19894
891.734	19849
891.857	20027
891.98	19719
892.103	19849
892.226	19833
892.349	19871
892.471	19788
892.594	19765
892.717	19696
892.839	19807
892.962	19826
893.085	19715
893.207	19719
893.33	19571
893.452	19624
893.575	19807
893.697	19776
893.819	19974
893.941	19997
894.064	19887
894.186	19700
894.308	19734
894.43	19826
894.552	19826
894.674	19852
894.796	19677
894.918	19742
895.04	19753
895.161	19856
895.283	19883
895.405	19757
895.526	19750
895.648	19811
895.769	19856
895.891	19841
896.012	19875
896.134	19757
896.255	19871
896.376	19655
896.498	19799
896.619	19852
896.74	19696
896.861	19833
896.982	20252
897.103	20210
897.224	20050
897.345	20020
897.466	19871
897.587	20039
897.708	20012
897.828	19997
897.949	19845
898.07	19830
898.19	19944
898.311	20035
898.431	19913
898.552	20024
898.672	20183
898.792	20088
898.913	20065
899.033	19868
899.153	19849
899.273	19685
899.393	19731
899.513	19662
899.633	19738
899.753	19731
899.873	19704
899.993	19837
900.113	19658
900.232	19693
900.352	19575
900.472	19483
900.591	19483
900.711	19620
900.83	19453
900.95	19571
901.069	19647
901.189	19304
901.308	19244
901.427	19137
901.546	19107
901.665	19107
901.784	19023
901.904	18951
902.023	18916
902.141	18749
902.26	18597
902.379	18719
902.498	18578
902.617	18506
902.735	18608
902.854	18585
902.973	18517
903.091	18311
903.21	18239
903.328	18163
903.446	18125
903.565	18110
903.683	18159
903.801	17958
903.919	18064
904.038	18068
904.156	17832
904.274	18015
904.392	17870
904.51	17813
904.627	17889
904.745	17870
904.863	17958
904.981	17608
905.098	17539
905.216	17684
905.334	17615
905.451	17611
905.569	17589
905.686	17638
905.803	17516
905.921	17345
906.038	17341
906.155	17299
906.272	17250
906.389	17322
906.506	17052
906.623	17022
906.74	17121
906.857	17014
906.974	17014
907.091	17075
907.208	17170
907.324	17140
907.441	17025
907.557	16900
907.674	16858
907.79	16790
907.907	16782
908.023	16831
908.139	16820
908.256	16744
908.372	16710
908.488	16725
908.604	16637
908.72	16538
908.836	16660
908.952	16466
909.068	16626
909.184	16736
909.3	16538
909.415	16599
909.531	16470
909.647	16405
909.762	16333
909.878	16162
909.993	16200
910.108	16322
910.224	16234
910.339	16276
910.454	16067
910.57	16063
910.685	15991
910.8	16230
910.915	16166
911.03	16010
911.145	15865
911.259	15873
911.374	15846
911.489	15857
911.604	15561
911.718	15622
911.833	15690
911.947	15492
912.062	15542
912.176	15549
912.291	15656
912.405	15629
912.519	15797
912.633	15701
912.748	15682
912.862	15606
912.976	15447
913.09	15336
913.204	15386
913.318	15469
913.431	15610
913.545	15526
913.659	15557
913.772	15386
913.886	15237
914	15180
914.113	15302
914.226	15386
914.34	15222
914.453	15161
914.566	15138
914.68	15097
914.793	15104
914.906	14887
915.019	14826
915.132	14769
915.245	14823
915.358	14883
915.47	14872
915.583	14796
915.696	14895
915.809	14975
915.921	14990
916.034	14769
916.146	14849
916.259	14769
916.371	14811
916.483	14735
916.595	14651
916.708	14705
916.82	14674
916.932	14720
917.044	14613
917.156	14556
917.268	14499
917.38	14541
917.491	14564
917.603	14503
917.715	14590
917.826	14590
917.938	14457
918.049	14328
918.161	14434
918.272	14556
918.384	14648
918.495	14400
918.606	14301
918.717	14138
918.828	14309
918.939	14286
919.05	14191
919.161	14195
919.272	14100
919.383	14153
919.494	14362
919.604	14461
919.715	14271
919.826	14092
919.936	14225
920.047	14385
920.157	14290
920.267	14362
920.378	14153
920.488	14256
920.598	14351
920.708	14503
920.818	14377
920.928	14408
921.038	14427
921.148	14503
921.258	14180
921.368	14046
921.477	14012
921.587	13898
921.697	13826
921.806	13947
921.916	13887
922.025	13670
922.134	13632
922.244	13521
922.353	13651
922.462	13506
922.571	13529
922.68	13228
922.789	13278
922.898	13202
923.007	13156
923.116	13289
923.224	13228
923.333	13240
923.442	13091
923.55	13141
923.659	13110
923.767	13107
923.876	13034
923.984	13061
924.092	12977
924.201	13057
924.309	13061
924.417	12989
924.525	12951
924.633	12962
924.741	13845
924.849	12730
924.956	13019
925.064	12760
925.172	12623
925.279	12684
925.387	12703
925.494	12749
925.602	12791
925.709	12722
925.816	12608
925.924	12707
926.031	12753
926.138	12654
926.245	12654
926.352	12570
926.459	12734
926.566	12768
926.673	12623
926.779	12528
926.886	12483
926.993	12350
927.099	12304
927.206	12201
927.312	12190
927.419	12350
927.525	12296
927.631	12247
927.737	12144
927.843	12144
927.95	11977
928.056	12144
928.162	12083
928.267	12140
928.373	12646
928.479	12232
928.585	11973
928.69	12053
928.796	12079
928.901	12019
929.007	11859
929.112	11908
929.218	11931
929.323	11863
929.428	11870
929.533	11935
929.638	11771
929.743	11805
929.848	11805
929.953	11756
930.058	11611
930.163	11516
930.267	11581
930.372	11615
930.477	11474
930.581	11764
930.685	11486
930.79	11398
930.894	11414
930.998	11406
931.103	11524
931.207	11242
931.311	11067
931.415	10991
931.519	10873
931.623	10782
