Data from test_V78500241_2867.txt Node
Date: Fri Mar 25 15:29:49 CST 2022
User: usil
Spectrometer: V785-0024
Trigger mode: 0
Integration Time (sec): 4.000000E-1
Scans to average: 1
Nonlinearity correction enabled: false
Boxcar width: 0
Storing dark spectrum: false
XAxis mode: Wavelengths
Number of Pixels in Spectrum: 1024
>>>>>Begin Spectral Data<<<<<
801.071	27302
801.214	27230
801.356	27001
801.499	26944
801.641	26758
801.783	26689
801.926	26811
802.068	26777
802.211	26629
802.353	26670
802.496	26457
802.638	26450
802.78	26313
802.923	26362
803.065	26161
803.208	26377
803.35	26328
803.492	26583
803.635	26644
803.777	26514
803.919	26499
804.061	26933
804.204	26644
804.346	26545
804.488	26427
804.63	26396
804.773	26541
804.915	26575
805.057	26648
805.199	26385
805.341	26556
805.483	26781
805.626	26667
805.768	26629
805.91	26648
806.052	26689
806.194	26552
806.336	26689
806.478	26606
806.62	26579
806.762	26880
806.904	26815
807.046	27081
807.188	27096
807.33	27074
807.472	27112
807.614	26887
807.756	27051
807.898	26975
808.04	26967
808.182	27074
808.324	26952
808.465	26830
808.607	27150
808.749	27226
808.891	27329
809.033	27408
809.174	27412
809.316	27226
809.458	27317
809.6	27218
809.741	27374
809.883	27454
810.025	27564
810.166	27473
810.308	27641
810.45	27344
810.591	27427
810.733	27192
810.875	27241
811.016	27214
811.158	27211
811.299	27473
811.441	27473
811.582	27416
811.724	27214
811.865	27123
812.007	27294
812.148	27211
812.29	27329
812.431	27313
812.573	27481
812.714	27530
812.855	27865
812.997	27846
813.138	27983
813.279	27945
813.421	27660
813.562	27618
813.703	27523
813.845	27603
813.986	27127
814.127	26800
814.268	26925
814.41	26940
814.551	26933
814.692	26861
814.833	26914
814.974	27020
815.115	26963
815.256	26876
815.397	26788
815.539	26891
815.68	26697
815.821	26648
815.962	26735
816.103	26587
816.244	26457
816.385	26408
816.526	26503
816.666	26381
816.807	26176
816.948	26286
817.089	26347
817.23	26176
817.371	26290
817.512	26046
817.653	26145
817.793	26107
817.934	26062
818.075	26180
818.216	26157
818.356	26115
818.497	26077
818.638	25799
818.778	25982
818.919	25917
819.06	25966
819.2	25966
819.341	26183
819.481	26191
819.622	26278
819.762	26434
819.903	26412
820.043	26343
820.184	26221
820.324	26267
820.465	26259
820.605	26256
820.746	26202
820.886	26161
821.026	26168
821.167	26210
821.307	26298
821.447	26149
821.588	26020
821.728	26024
821.868	25700
822.008	25575
822.149	25582
822.289	25518
822.429	25301
822.569	25373
822.709	25346
822.849	25061
822.99	25152
823.13	25080
823.27	25118
823.41	24871
823.55	24939
823.69	24996
823.83	24890
823.97	24985
824.11	24817
824.25	24566
824.389	24650
824.529	24760
824.669	24696
824.809	24840
824.949	24867
825.089	24833
825.228	24814
825.368	24681
825.508	24730
825.648	24627
825.787	24768
825.927	24692
826.067	24635
826.206	24608
826.346	24707
826.485	24696
826.625	24555
826.765	24696
826.904	24601
827.044	24509
827.183	24372
827.323	24216
827.462	24410
827.601	24395
827.741	24357
827.88	24380
828.02	24254
828.159	24372
828.298	24235
828.437	24464
828.577	24372
828.716	24311
828.855	24266
828.994	24064
829.134	23992
829.273	24095
829.412	23992
829.551	23939
829.69	24136
829.829	23935
829.968	24266
830.107	24106
830.246	24038
830.385	23992
830.524	23992
830.663	23817
830.802	23714
830.941	23653
831.08	23615
831.219	23756
831.357	23668
831.496	23859
831.635	23623
831.774	23452
831.913	23459
832.051	23478
832.19	23326
832.329	23326
832.467	23303
832.606	23166
832.744	23303
832.883	23258
833.022	23128
833.16	23299
833.299	23269
833.437	23311
833.576	23326
833.714	23395
833.852	23414
833.991	23395
834.129	23467
834.267	23425
834.406	23414
834.544	23356
834.682	23269
834.821	23269
834.959	23414
835.097	23376
835.235	23387
835.373	23356
835.511	23292
835.65	23220
835.788	23197
835.926	23010
836.064	22885
836.202	23102
836.34	23220
836.478	23318
836.615	23159
836.753	23235
836.891	23083
837.029	23170
837.167	23044
837.305	23029
837.443	22976
837.58	22908
837.718	23102
837.856	23136
837.993	22850
838.131	23014
838.269	22858
838.406	23041
838.544	22683
838.681	22649
838.819	22592
838.956	22459
839.094	22485
839.231	22641
839.369	22748
839.506	22892
839.643	22733
839.781	22538
839.918	22405
840.055	22580
840.193	22451
840.33	22280
840.467	22413
840.604	22500
840.742	22641
840.879	22284
841.016	22238
841.153	22299
841.29	22535
841.427	22447
841.564	22379
841.701	22375
841.838	22390
841.975	22398
842.112	22341
842.249	22280
842.385	22131
842.522	22436
842.659	22261
842.796	22173
842.933	22143
843.069	22090
843.206	22139
843.343	22333
843.479	22124
843.616	22226
843.752	21994
843.889	22101
844.025	22029
844.162	21956
844.298	22059
844.435	21857
844.571	21911
844.708	21926
844.844	22215
844.98	22128
845.117	22059
845.253	21930
845.389	21781
845.525	21907
845.661	21857
845.798	21622
845.934	21709
846.07	21660
846.206	21781
846.342	21842
846.478	21774
846.614	21618
846.75	21428
846.886	21435
847.022	21469
847.158	21439
847.294	21538
847.429	21603
847.565	21519
847.701	21641
847.837	21135
847.972	21142
848.108	21237
848.244	21173
848.379	21218
848.515	20963
848.65	21013
848.786	21055
848.921	21017
849.057	21142
849.192	21074
849.328	21017
849.463	20971
849.598	20948
849.734	20876
849.869	20868
850.004	20769
850.14	20758
850.275	20781
850.41	20777
850.545	20750
850.68	20826
850.815	20773
850.95	20701
851.085	20941
851.22	20861
851.355	20880
851.49	20708
851.625	20849
851.76	20716
851.895	20617
852.03	20705
852.165	20811
852.299	20731
852.434	20788
852.569	20895
852.703	20845
852.838	20826
852.973	20895
853.107	20887
853.242	20792
853.376	20583
853.511	20446
853.645	20602
853.78	20773
853.914	20476
854.048	20511
854.183	20526
854.317	20640
854.451	20701
854.585	20613
854.72	20606
854.854	20769
854.988	20541
855.122	20530
855.256	20495
855.39	20648
855.524	20590
855.658	20701
855.792	20609
855.926	20674
856.06	20598
856.194	20754
856.327	20587
856.461	20613
856.595	20564
856.729	20533
856.862	20758
856.996	20594
857.13	20655
857.263	20651
857.397	20762
857.53	20526
857.664	20632
857.797	20697
857.931	20868
858.064	20682
858.197	20765
858.331	20476
858.464	20549
858.597	20465
858.731	20609
858.864	20484
858.997	20533
859.13	20545
859.263	20621
859.396	20834
859.529	20629
859.662	20587
859.795	20442
859.928	20640
860.061	20826
860.194	20807
860.327	20659
860.46	20754
860.592	20686
860.725	20823
860.858	20750
860.99	20629
861.123	20590
861.256	20511
861.388	20495
861.521	21245
861.653	20518
861.786	20339
861.918	20488
862.05	20537
862.183	20587
862.315	20537
862.447	20587
862.58	20617
862.712	20355
862.844	20313
862.976	20290
863.108	20362
863.24	20891
863.372	20355
863.504	20157
863.636	20374
863.768	20351
863.9	20172
864.032	20256
864.164	20271
864.296	20358
864.428	20446
864.559	20374
864.691	20362
864.823	20457
864.954	20229
865.086	20347
865.217	20259
865.349	20172
865.48	20130
865.612	20210
865.743	20355
865.875	20282
866.006	20119
866.137	20244
866.269	20248
866.4	20180
866.531	20126
866.662	20168
866.793	20145
866.924	20092
867.055	20271
867.186	20138
867.317	20214
867.448	20035
867.579	20016
867.71	20050
867.841	20096
867.972	20290
868.103	20202
868.233	20008
868.364	20062
868.495	20180
868.625	20374
868.756	20461
868.886	20465
869.017	20396
869.147	20621
869.278	20412
869.408	20480
869.539	20465
869.669	20446
869.799	20423
869.929	20621
870.06	20457
870.19	20765
870.32	20754
870.45	20617
870.58	20933
870.71	20815
870.84	21051
870.97	20792
871.1	20800
871.23	20994
871.36	21043
871.489	20960
871.619	21013
871.749	21100
871.879	20979
872.008	21123
872.138	21039
872.267	21013
872.397	20895
872.526	20880
872.656	20773
872.785	20826
872.915	20998
873.044	21123
873.173	20906
873.303	21085
873.432	21123
873.561	21169
873.69	21032
873.819	20979
873.948	21157
874.077	21032
874.206	21005
874.335	20960
874.464	21211
874.593	21279
874.722	21272
874.851	21302
874.979	21287
875.108	21169
875.237	21233
875.365	21188
875.494	21146
875.623	21351
875.751	21348
875.88	21306
876.008	21450
876.136	21488
876.265	21606
876.393	21732
876.521	21762
876.65	21759
876.778	21656
876.906	21564
877.034	21610
877.162	21637
877.29	21606
877.418	21732
877.546	21682
877.674	21545
877.802	21591
877.93	21523
878.058	21439
878.185	21485
878.313	21526
878.441	21682
878.568	21538
878.696	21458
878.824	21625
878.951	21720
879.079	21800
879.206	21918
879.333	21793
879.461	21724
879.588	21595
879.715	21827
879.842	21838
879.97	21759
880.097	21477
880.224	21317
880.351	21534
880.478	21393
880.605	21344
880.732	21466
880.859	21629
880.986	21344
881.112	21447
881.239	21321
881.366	21135
881.493	21032
881.619	21036
881.746	21074
881.872	21070
881.999	20986
882.125	20933
882.252	21009
882.378	20914
882.505	21135
882.631	20925
882.757	20811
882.883	20796
883.01	20838
883.136	20617
883.262	20621
883.388	20522
883.514	20762
883.64	20667
883.766	20674
883.892	20522
884.018	20568
884.143	20598
884.269	20712
884.395	20419
884.52	20343
884.646	20404
884.772	20324
884.897	20195
885.023	20355
885.148	20533
885.274	20678
885.399	20507
885.524	20396
885.65	20332
885.775	20252
885.9	20214
886.025	20393
886.15	20366
886.275	20298
886.4	20351
886.525	20256
886.65	20358
886.775	20370
886.9	20480
887.025	20549
887.149	20324
887.274	20138
887.399	20103
887.523	20081
887.648	20153
887.773	20031
887.897	20263
888.021	20199
888.146	20119
888.27	20336
888.395	20267
888.519	20202
888.643	20168
888.767	20183
888.891	20020
889.015	20027
889.139	19947
889.263	19906
889.387	19970
889.511	20191
889.635	20031
889.759	19887
889.883	19944
890.006	20020
890.13	20024
890.254	19913
890.377	19932
890.501	19624
890.624	19597
890.748	19776
890.871	19609
890.995	19457
891.118	19373
891.241	19578
891.364	19601
891.488	19639
891.611	19483
891.734	19537
891.857	19685
891.98	19514
892.103	19674
892.226	19514
892.349	19419
892.471	19358
892.594	19445
892.717	19483
892.839	19430
892.962	19472
893.085	19533
893.207	19575
893.33	19377
893.452	19411
893.575	19563
893.697	19499
893.819	19658
893.941	19738
894.064	19582
894.186	19400
894.308	19403
894.43	19445
894.552	19635
894.674	19575
894.796	19293
894.918	19445
895.04	19533
895.161	19601
895.283	19586
895.405	19411
895.526	19407
895.648	19343
895.769	19499
895.891	19491
896.012	19548
896.134	19487
896.255	19487
896.376	19460
896.498	19476
896.619	19518
896.74	19571
896.861	19586
896.982	19818
897.103	19944
897.224	19746
897.345	19556
897.466	19613
897.587	19696
897.708	19814
897.828	19681
897.949	19658
898.07	19392
898.19	19765
898.311	19803
898.431	19647
898.552	19715
898.672	19852
898.792	19780
898.913	19696
899.033	19601
899.153	19537
899.273	19343
899.393	19521
899.513	19460
899.633	19563
899.753	19506
899.873	19441
899.993	19415
900.113	19502
900.232	19411
900.352	19335
900.472	19236
900.591	19217
900.711	19278
900.83	19194
900.95	19369
901.069	19426
901.189	19263
901.308	18993
901.427	18802
901.546	18935
901.665	18939
901.784	18852
901.904	18753
902.023	18559
902.141	18479
902.26	18399
902.379	18528
902.498	18388
902.617	18350
902.735	18513
902.854	18239
902.973	18285
903.091	18068
903.21	18057
903.328	18022
903.446	17996
903.565	17855
903.683	17828
903.801	17813
903.919	17798
904.038	17821
904.156	17703
904.274	17608
904.392	17573
904.51	17577
904.627	17729
904.745	17630
904.863	17764
904.981	17368
905.098	17349
905.216	17227
905.334	17318
905.451	17326
905.569	17326
905.686	17368
905.803	17250
905.921	17109
906.038	17132
906.155	17086
906.272	16953
906.389	17041
906.506	16824
906.623	16881
906.74	16812
906.857	16725
906.974	16782
907.091	16987
907.208	17045
907.324	16923
907.441	16725
907.557	16653
907.674	16542
907.79	16519
907.907	16516
908.023	16596
908.139	16508
908.256	16500
908.372	16451
908.488	16382
908.604	16367
908.72	16314
908.836	16291
908.952	16333
909.068	16421
909.184	16333
909.3	16276
909.415	16371
909.531	16329
909.647	16078
909.762	16013
909.878	15956
909.993	15991
910.108	15975
910.224	15945
910.339	15994
910.454	15876
910.57	15854
910.685	15781
910.8	16090
910.915	15994
911.03	15781
911.145	15724
911.259	15644
911.374	15564
911.489	15515
911.604	15488
911.718	15393
911.833	15416
911.947	15359
912.062	15199
912.176	15370
912.291	15454
912.405	15466
912.519	15542
912.633	15477
912.748	15374
912.862	15302
912.976	15211
913.09	15074
913.204	15180
913.318	15233
913.431	15291
913.545	15275
913.659	15298
913.772	15157
913.886	15119
914	14902
914.113	15055
914.226	15097
914.34	15009
914.453	14834
914.566	15077
914.68	14845
914.793	14823
914.906	14667
915.019	14670
915.132	14488
915.245	14564
915.358	14514
915.47	14636
915.583	14682
915.696	14629
915.809	14712
915.921	14720
916.034	14423
916.146	14495
916.259	14473
916.371	14537
916.483	14571
916.595	14427
916.708	14404
916.82	14343
916.932	14336
917.044	14473
917.156	14438
917.268	14256
917.38	14370
917.491	14385
917.603	14328
917.715	14423
917.826	14339
917.938	14218
918.049	14172
918.161	14263
918.272	14324
918.384	14290
918.495	14240
918.606	14039
918.717	13906
918.828	14218
918.939	14084
919.05	13986
919.161	14008
919.272	13845
919.383	13917
919.494	14103
919.604	14214
919.715	14027
919.826	13887
919.936	13993
920.047	14157
920.157	14084
920.267	14252
920.378	14069
920.488	13936
920.598	14210
920.708	14328
920.818	14161
920.928	14183
921.038	14259
921.148	14332
921.258	13898
921.368	13959
921.477	13753
921.587	13731
921.697	13655
921.806	13814
921.916	13632
922.025	13502
922.134	13396
922.244	13388
922.353	13426
922.462	13343
922.571	13194
922.68	13042
922.789	13095
922.898	13031
923.007	13027
923.116	13095
923.224	13091
923.333	13004
923.442	12897
923.55	12985
923.659	12878
923.767	13046
923.876	12802
923.984	12973
924.092	12810
924.201	12913
924.309	12806
924.417	12837
924.525	12768
924.633	12749
924.741	13655
924.849	12509
924.956	12696
925.064	12582
925.172	12410
925.279	12570
925.387	12582
925.494	12517
925.602	12608
925.709	12490
925.816	12357
925.924	12475
926.031	12574
926.138	12433
926.245	12467
926.352	12384
926.459	12471
926.566	12479
926.673	12311
926.779	12251
926.886	12342
926.993	12068
927.099	12098
927.206	11984
927.312	12064
927.419	12053
927.525	12041
927.631	12125
927.737	12076
927.843	11897
927.95	11859
928.056	11946
928.162	11958
928.267	11927
928.373	12627
928.479	11961
928.585	11729
928.69	11851
928.796	11859
928.901	11752
929.007	11684
929.112	11813
929.218	11764
929.323	11646
929.428	11634
929.533	11836
929.638	11581
929.743	11573
929.848	11729
929.953	11615
930.058	11554
930.163	11345
930.267	11406
930.372	11520
930.477	11292
930.581	11532
930.685	11471
930.79	11227
930.894	11284
930.998	11288
931.103	11379
931.207	10968
931.311	10934
931.415	10843
931.519	10622
931.623	10588
