Data from test_V78500241_2546.txt Node
Date: Fri Mar 25 15:27:35 CST 2022
User: usil
Spectrometer: V785-0024
Trigger mode: 0
Integration Time (sec): 4.000000E-1
Scans to average: 1
Nonlinearity correction enabled: false
Boxcar width: 0
Storing dark spectrum: false
XAxis mode: Wavelengths
Number of Pixels in Spectrum: 1024
>>>>>Begin Spectral Data<<<<<
801.071	27340
801.214	27332
801.356	27127
801.499	26895
801.641	26777
801.783	26906
801.926	27017
802.068	26845
802.211	26746
802.353	26606
802.496	26453
802.638	26434
802.78	26545
802.923	26358
803.065	26415
803.208	26461
803.35	26415
803.492	26533
803.635	26613
803.777	26552
803.919	26701
804.061	26910
804.204	26693
804.346	26629
804.488	26560
804.63	26636
804.773	26465
804.915	26708
805.057	26785
805.199	26712
805.341	26674
805.483	26777
805.626	26746
805.768	26575
805.91	26655
806.052	26712
806.194	26606
806.336	26830
806.478	26765
806.62	26750
806.762	26960
806.904	26864
807.046	27226
807.188	27081
807.33	27272
807.472	27161
807.614	26986
807.756	27108
807.898	27009
808.04	27032
808.182	27028
808.324	26971
808.465	27017
808.607	27138
808.749	27336
808.891	27382
809.033	27378
809.174	27393
809.316	27188
809.458	27439
809.6	27298
809.741	27363
809.883	27481
810.025	27557
810.166	27481
810.308	27549
810.45	27507
810.591	27515
810.733	27317
810.875	27310
811.016	27279
811.158	27310
811.299	27272
811.441	27450
811.582	27458
811.724	27412
811.865	27291
812.007	27157
812.148	27211
812.29	27298
812.431	27420
812.573	27583
812.714	27720
812.855	27736
812.997	27808
813.138	28093
813.279	27975
813.421	27797
813.562	27694
813.703	27656
813.845	27393
813.986	27245
814.127	27096
814.268	26982
814.41	26994
814.551	26971
814.692	26986
814.833	26937
814.974	26967
815.115	26838
815.256	26815
815.397	26739
815.539	26724
815.68	26686
815.821	26587
815.962	26648
816.103	26746
816.244	26697
816.385	26423
816.526	26484
816.666	26400
816.807	26229
816.948	26381
817.089	26343
817.23	26294
817.371	26142
817.512	26183
817.653	26218
817.793	26088
817.934	26149
818.075	26320
818.216	26263
818.356	26267
818.497	26115
818.638	25940
818.778	25860
818.919	26138
819.06	26119
819.2	26039
819.341	26180
819.481	26233
819.622	26552
819.762	26655
819.903	26442
820.043	26309
820.184	26282
820.324	26351
820.465	26412
820.605	26320
820.746	26248
820.886	26134
821.026	26278
821.167	26237
821.307	26263
821.447	26176
821.588	26183
821.728	25963
821.868	25826
822.008	25761
822.149	25651
822.289	25708
822.429	25449
822.569	25453
822.709	25369
822.849	25255
822.99	25152
823.13	25179
823.27	25251
823.41	25061
823.55	24894
823.69	25107
823.83	25091
823.97	24954
824.11	24825
824.25	24837
824.389	24711
824.529	24935
824.669	24810
824.809	24943
824.949	24802
825.089	24848
825.228	24962
825.368	24631
825.508	24692
825.648	24764
825.787	24726
825.927	24730
826.067	24635
826.206	24635
826.346	24779
826.485	24840
826.625	24776
826.765	24886
826.904	24707
827.044	24452
827.183	24471
827.323	24342
827.462	24528
827.601	24475
827.741	24448
827.88	24460
828.02	24220
828.159	24410
828.298	24422
828.437	24410
828.577	24285
828.716	24528
828.855	24330
828.994	24201
829.134	24121
829.273	24136
829.412	24102
829.551	24159
829.69	24110
829.829	24144
829.968	24201
830.107	24281
830.246	24110
830.385	24034
830.524	23958
830.663	24018
830.802	23901
830.941	23691
831.08	23726
831.219	23783
831.357	23885
831.496	23912
831.635	23756
831.774	23672
831.913	23745
832.051	23455
832.19	23429
832.329	23585
832.467	23398
832.606	23425
832.744	23474
832.883	23387
833.022	23429
833.16	23395
833.299	23417
833.437	23524
833.576	23349
833.714	23452
833.852	23501
833.991	23509
834.129	23649
834.267	23497
834.406	23486
834.544	23501
834.682	23562
834.821	23501
834.959	23756
835.097	23463
835.235	23482
835.373	23596
835.511	23596
835.65	23497
835.788	23398
835.926	23269
836.064	23056
836.202	23223
836.34	23307
836.478	23463
836.615	23364
836.753	23379
836.891	23440
837.029	23402
837.167	23212
837.305	23322
837.443	23227
837.58	23052
837.718	23303
837.856	23212
837.993	23326
838.131	23174
838.269	23121
838.406	23071
838.544	23098
838.681	22915
838.819	22793
838.956	22603
839.094	22767
839.231	22694
839.369	22862
839.506	23113
839.643	22835
839.781	22812
839.918	22596
840.055	22565
840.193	22641
840.33	22626
840.467	22649
840.604	22729
840.742	22847
840.879	22516
841.016	22702
841.153	22596
841.29	22771
841.427	22592
841.564	22672
841.701	22596
841.838	22622
841.975	22615
842.112	22656
842.249	22554
842.385	22417
842.522	22691
842.659	22512
842.796	22565
842.933	22508
843.069	22398
843.206	22295
843.343	22424
843.479	22504
843.616	22337
843.752	22219
843.889	22051
844.025	22306
844.162	22093
844.298	22230
844.435	22006
844.571	22093
844.708	22173
844.844	22299
844.98	22325
845.117	22276
845.253	22070
845.389	21998
845.525	22082
845.661	21964
845.798	21876
845.934	21854
846.07	21774
846.206	22002
846.342	22025
846.478	21857
846.614	21827
846.75	21511
846.886	21625
847.022	21637
847.158	21545
847.294	21618
847.429	21523
847.565	21736
847.701	21827
847.837	21401
847.972	21233
848.108	21458
848.244	21481
848.379	21310
848.515	21260
848.65	21131
848.786	21252
848.921	21233
849.057	21298
849.192	21195
849.328	21291
849.463	21287
849.598	21203
849.734	21024
849.869	21108
850.004	20918
850.14	21081
850.275	21055
850.41	20880
850.545	20906
850.68	21009
850.815	20948
850.95	21028
851.085	21077
851.22	21020
851.355	21005
851.49	20876
851.625	20948
851.76	21028
851.895	20921
852.03	20902
852.165	20960
852.299	20948
852.434	21062
852.569	21013
852.703	21032
852.838	21188
852.973	21070
853.107	21150
853.242	20941
853.376	20796
853.511	20746
853.645	20830
853.78	20853
853.914	20762
854.048	20678
854.183	20807
854.317	20872
854.451	21039
854.585	20853
854.72	20830
854.854	20883
854.988	20800
855.122	20864
855.256	20609
855.39	20777
855.524	20845
855.658	20868
855.792	20674
855.926	20830
856.06	20883
856.194	20876
856.327	20880
856.461	20720
856.595	20773
856.729	20857
856.862	20880
856.996	20891
857.13	20845
857.263	20933
857.397	20895
857.53	20864
857.664	20708
857.797	20872
857.931	20876
858.064	20792
858.197	20861
858.331	20838
858.464	20754
858.597	20746
858.731	20796
858.864	20838
858.997	20880
859.13	20788
859.263	20781
859.396	20823
859.529	20739
859.662	20781
859.795	20648
859.928	20933
860.061	20941
860.194	21058
860.327	20914
860.46	20743
860.592	20921
860.725	20971
860.858	20811
860.99	20838
861.123	20697
861.256	20785
861.388	20876
861.521	21523
861.653	20773
861.786	20632
861.918	20609
862.05	20731
862.183	20807
862.315	20750
862.447	20777
862.58	20659
862.712	20469
862.844	20454
862.976	20594
863.108	20556
863.24	21066
863.372	20431
863.504	20583
863.636	20594
863.768	20594
863.9	20473
864.032	20499
864.164	20556
864.296	20454
864.428	20564
864.559	20583
864.691	20636
864.823	20568
864.954	20606
865.086	20476
865.217	20454
865.349	20305
865.48	20522
865.612	20511
865.743	20602
865.875	20408
866.006	20286
866.137	20347
866.269	20381
866.4	20461
866.531	20377
866.662	20374
866.793	20377
866.924	20343
867.055	20499
867.186	20450
867.317	20370
867.448	20294
867.579	20328
867.71	20225
867.841	20286
867.972	20324
868.103	20358
868.233	20263
868.364	20457
868.495	20484
868.625	20511
868.756	20682
868.886	20507
869.017	20495
869.147	20651
869.278	20705
869.408	20644
869.539	20644
869.669	20731
869.799	20613
869.929	20857
870.06	20750
870.19	20857
870.32	20861
870.45	20914
870.58	20845
870.71	21176
870.84	21169
870.97	21058
871.1	21047
871.23	21146
871.36	21127
871.489	21089
871.619	21131
871.749	21241
871.879	21252
872.008	21386
872.138	21142
872.267	21074
872.397	21089
872.526	21058
872.656	20952
872.785	21062
872.915	21348
873.044	21249
873.173	21275
873.303	21317
873.432	21279
873.561	21272
873.69	21195
873.819	21249
873.948	21310
874.077	21233
874.206	21169
874.335	21264
874.464	21264
874.593	21587
874.722	21268
874.851	21511
874.979	21492
875.108	21500
875.237	21534
875.365	21435
875.494	21485
875.623	21580
875.751	21397
875.88	21424
876.008	21614
876.136	21747
876.265	21907
876.393	21994
876.521	21945
876.65	22025
876.778	21785
876.906	21709
877.034	21774
877.162	21926
877.29	21739
877.418	21831
877.546	21831
877.674	21968
877.802	21895
877.93	21884
878.058	21778
878.185	21625
878.313	21812
878.441	21800
878.568	21576
878.696	21747
878.824	21728
878.951	21720
879.079	22025
879.206	22166
879.333	22063
879.461	21873
879.588	21888
879.715	21972
879.842	22059
879.97	21918
880.097	21561
880.224	21648
880.351	21667
880.478	21652
880.605	21663
880.732	21523
880.859	21895
880.986	21728
881.112	21637
881.239	21405
881.366	21431
881.493	21374
881.619	21291
881.746	21268
881.872	21142
881.999	21260
882.125	21192
882.252	21279
882.378	21237
882.505	21317
882.631	21077
882.757	20990
882.883	21085
883.01	20925
883.136	20845
883.262	20895
883.388	20735
883.514	20914
883.64	20963
883.766	20857
883.892	20663
884.018	20659
884.143	20925
884.269	20967
884.395	20571
884.52	20606
884.646	20511
884.772	20522
884.897	20457
885.023	20533
885.148	20613
885.274	20632
885.399	20571
885.524	20606
885.65	20613
885.775	20590
885.9	20549
886.025	20674
886.15	20625
886.275	20533
886.4	20465
886.525	20613
886.65	20571
886.775	20450
886.9	20746
887.025	20868
887.149	20549
887.274	20431
887.399	20324
887.523	20469
887.648	20202
887.773	20195
887.897	20347
888.021	20461
888.146	20404
888.27	20442
888.395	20427
888.519	20431
888.643	20320
888.767	20370
888.891	20229
889.015	20202
889.139	20225
889.263	20058
889.387	20290
889.511	20305
889.635	20286
889.759	20126
889.883	20046
890.006	20278
890.13	20115
890.254	20046
890.377	20039
890.501	19852
890.624	19940
890.748	19906
890.871	19769
890.995	19696
891.118	19658
891.241	19746
891.364	19769
891.488	19860
891.611	19712
891.734	19746
891.857	19818
891.98	19765
892.103	19788
892.226	19765
892.349	19601
892.471	19586
892.594	19632
892.717	19674
892.839	19693
892.962	19769
893.085	19643
893.207	19742
893.33	19480
893.452	19506
893.575	19708
893.697	19628
893.819	19704
893.941	19921
894.064	19750
894.186	19620
894.308	19563
894.43	19761
894.552	19871
894.674	19742
894.796	19674
894.918	19582
895.04	19685
895.161	19727
895.283	19750
895.405	19537
895.526	19597
895.648	19605
895.769	19723
895.891	19559
896.012	19708
896.134	19715
896.255	19655
896.376	19487
896.498	19696
896.619	19742
896.74	19677
896.861	19769
896.982	19955
897.103	19970
897.224	19951
897.345	19898
897.466	19921
897.587	19875
897.708	20016
897.828	19845
897.949	19925
898.07	19620
898.19	19761
898.311	19917
898.431	19811
898.552	19921
898.672	19913
898.792	19986
898.913	19932
899.033	19856
899.153	19738
899.273	19624
899.393	19662
899.513	19487
899.633	19719
899.753	19723
899.873	19506
899.993	19723
900.113	19491
900.232	19578
900.352	19510
900.472	19506
900.591	19403
900.711	19358
900.83	19320
900.95	19438
901.069	19510
901.189	19324
901.308	19228
901.427	19008
901.546	18939
901.665	19031
901.784	19004
901.904	18867
902.023	18768
902.141	18684
902.26	18616
902.379	18559
902.498	18589
902.617	18544
902.735	18677
902.854	18544
902.973	18361
903.091	18262
903.21	18171
903.328	18201
903.446	18163
903.565	18007
903.683	17942
903.801	17897
903.919	17954
904.038	17916
904.156	17798
904.274	17882
904.392	17733
904.51	17836
904.627	17756
904.745	17843
904.863	17817
904.981	17630
905.098	17448
905.216	17471
905.334	17490
905.451	17360
905.569	17436
905.686	17532
905.803	17421
905.921	17185
906.038	17345
906.155	17296
906.272	17193
906.389	17132
906.506	16972
906.623	17045
906.74	17022
906.857	16923
906.974	16976
907.091	16999
907.208	17071
907.324	16927
907.441	16976
907.557	16706
907.674	16748
907.79	16588
907.907	16641
908.023	16698
908.139	16755
908.256	16721
908.372	16542
908.488	16649
908.604	16519
908.72	16474
908.836	16459
908.952	16421
909.068	16447
909.184	16577
909.3	16432
909.415	16527
909.531	16478
909.647	16226
909.762	16291
909.878	16097
909.993	16207
910.108	16177
910.224	16025
910.339	16207
910.454	16017
910.57	15880
910.685	15831
910.8	16272
910.915	16135
911.03	16002
911.145	15812
911.259	15736
911.374	15747
911.489	15774
911.604	15641
911.718	15496
911.833	15564
911.947	15576
912.062	15405
912.176	15538
912.291	15603
912.405	15564
912.519	15766
912.633	15671
912.748	15447
912.862	15530
912.976	15424
913.09	15237
913.204	15313
913.318	15203
913.431	15351
913.545	15473
913.659	15355
913.772	15291
913.886	15203
914	15176
914.113	15173
914.226	15237
914.34	15142
914.453	15074
914.566	15127
914.68	15039
914.793	14921
914.906	14800
915.019	14743
915.132	14727
915.245	14636
915.358	14693
915.47	14731
915.583	14796
915.696	14785
915.809	14872
915.921	14864
916.034	14651
916.146	14674
916.259	14708
916.371	14842
916.483	14693
916.595	14541
916.708	14644
916.82	14621
916.932	14598
917.044	14594
917.156	14438
917.268	14427
917.38	14393
917.491	14317
917.603	14347
917.715	14454
917.826	14381
917.938	14419
918.049	14294
918.161	14377
918.272	14423
918.384	14423
918.495	14328
918.606	14218
918.717	14134
918.828	14115
918.939	14134
919.05	14187
919.161	14172
919.272	13967
919.383	13959
919.494	14282
919.604	14305
919.715	14237
919.826	14050
919.936	14107
920.047	14134
920.157	14161
920.267	14374
920.378	14176
920.488	14199
920.598	14389
920.708	14408
920.818	14305
920.928	14298
921.038	14431
921.148	14427
921.258	14100
921.368	14027
921.477	13845
921.587	13864
921.697	13753
921.806	13940
921.916	13700
922.025	13624
922.134	13639
922.244	13487
922.353	13567
922.462	13480
922.571	13384
922.68	13293
922.789	13118
922.898	13206
923.007	13076
923.116	13259
923.224	13228
923.333	13156
923.442	12966
923.55	13031
923.659	13080
923.767	13095
923.876	12962
923.984	12958
924.092	12962
924.201	13069
924.309	12989
924.417	12951
924.525	12844
924.633	12878
924.741	13704
924.849	12715
924.956	12817
925.064	12608
925.172	12525
925.279	12589
925.387	12597
925.494	12677
925.602	12734
925.709	12700
925.816	12528
925.924	12658
926.031	12707
926.138	12544
926.245	12642
926.352	12464
926.459	12528
926.566	12658
926.673	12486
926.779	12410
926.886	12357
926.993	12281
927.099	12232
927.206	12129
927.312	12163
927.419	12281
927.525	12220
927.631	12281
927.737	12011
927.843	12026
927.95	11916
928.056	12064
928.162	12045
928.267	12049
928.373	12646
928.479	12117
928.585	11916
928.69	11992
928.796	12011
928.901	11805
929.007	11771
929.112	11847
929.218	11882
929.323	11851
929.428	11737
929.533	11855
929.638	11680
929.743	11627
929.848	11764
929.953	11699
930.058	11661
930.163	11512
930.267	11551
930.372	11581
930.477	11440
930.581	11551
930.685	11417
930.79	11360
930.894	11330
930.998	11356
931.103	11471
931.207	11090
931.311	10999
931.415	10896
931.519	10755
931.623	10759
