Data from test_V78500241_1466.txt Node
Date: Fri Mar 25 15:20:03 CST 2022
User: usil
Spectrometer: V785-0024
Trigger mode: 0
Integration Time (sec): 4.000000E-1
Scans to average: 1
Nonlinearity correction enabled: false
Boxcar width: 0
Storing dark spectrum: false
XAxis mode: Wavelengths
Number of Pixels in Spectrum: 1024
>>>>>Begin Spectral Data<<<<<
801.071	28002
801.214	27903
801.356	27781
801.499	27652
801.641	27526
801.783	27462
801.926	27603
802.068	27583
802.211	27462
802.353	27317
802.496	27222
802.638	27241
802.78	27222
802.923	27256
803.065	27081
803.208	27184
803.35	27055
803.492	27218
803.635	27325
803.777	27363
803.919	27477
804.061	27732
804.204	27542
804.346	27545
804.488	27268
804.63	27450
804.773	27340
804.915	27405
805.057	27443
805.199	27500
805.341	27606
805.483	27538
805.626	27614
805.768	27439
805.91	27652
806.052	27641
806.194	27477
806.336	27747
806.478	27515
806.62	27382
806.762	27561
806.904	27781
807.046	27941
807.188	28036
807.33	27953
807.472	27873
807.614	27835
807.756	28040
807.898	27918
808.04	27865
808.182	27705
808.324	27785
808.465	27914
808.607	27937
808.749	28154
808.891	28382
809.033	28417
809.174	28405
809.316	28181
809.458	28124
809.6	28105
809.741	28291
809.883	28253
810.025	28413
810.166	28440
810.308	28481
810.45	28497
810.591	28466
810.733	28101
810.875	28090
811.016	28147
811.158	28253
811.299	28329
811.441	28257
811.582	28348
811.724	28211
811.865	28135
812.007	28162
812.148	28128
812.29	28246
812.431	28398
812.573	28637
812.714	28599
812.855	28721
812.997	28748
813.138	28854
813.279	28835
813.421	28759
813.562	28675
813.703	28550
813.845	28504
813.986	28051
814.127	28055
814.268	27884
814.41	27998
814.551	27934
814.692	27953
814.833	27945
814.974	27793
815.115	27994
815.256	27846
815.397	27869
815.539	27835
815.68	27641
815.821	27629
815.962	27812
816.103	27656
816.244	27500
816.385	27629
816.526	27405
816.666	27230
816.807	27199
816.948	27313
817.089	27252
817.23	27306
817.371	27135
817.512	27214
817.653	27062
817.793	27089
817.934	27203
818.075	27211
818.216	27287
818.356	27089
818.497	27039
818.638	26940
818.778	26891
818.919	26868
819.06	26998
819.2	27085
819.341	27112
819.481	27313
819.622	27351
819.762	27553
819.903	27473
820.043	27310
820.184	27401
820.324	27226
820.465	27272
820.605	27268
820.746	27287
820.886	27211
821.026	27340
821.167	27142
821.307	27329
821.447	27256
821.588	27062
821.728	26883
821.868	26773
822.008	26621
822.149	26689
822.289	26625
822.429	26450
822.569	26271
822.709	26343
822.849	26187
822.99	26103
823.13	26259
823.27	26012
823.41	25936
823.55	25921
823.69	25963
823.83	26058
823.97	26107
824.11	25841
824.25	25837
824.389	25788
824.529	25883
824.669	25890
824.809	25894
824.949	25845
825.089	25761
825.228	25864
825.368	25628
825.508	25655
825.648	25681
825.787	25666
825.927	25674
826.067	25647
826.206	25658
826.346	25769
826.485	25795
826.625	25685
826.765	25890
826.904	25731
827.044	25476
827.183	25392
827.323	25263
827.462	25377
827.601	25392
827.741	25396
827.88	25434
828.02	25358
828.159	25377
828.298	25422
828.437	25521
828.577	25225
828.716	25582
828.855	25270
828.994	25099
829.134	25065
829.273	25129
829.412	24943
829.551	24905
829.69	25099
829.829	24943
829.968	25061
830.107	25069
830.246	25122
830.385	25031
830.524	25031
830.663	24977
830.802	24882
830.941	24738
831.08	24654
831.219	24730
831.357	24779
831.496	24890
831.635	24711
831.774	24555
831.913	24505
832.051	24525
832.19	24456
832.329	24471
832.467	24403
832.606	24228
832.744	24327
832.883	24353
833.022	24388
833.16	24289
833.299	24395
833.437	24186
833.576	24395
833.714	24407
833.852	24361
833.991	24418
834.129	24612
834.267	24452
834.406	24448
834.544	24505
834.682	24540
834.821	24311
834.959	24540
835.097	24365
835.235	24448
835.373	24388
835.511	24365
835.65	24247
835.788	24319
835.926	24292
836.064	23897
836.202	24072
836.34	24262
836.478	24372
836.615	24213
836.753	24152
836.891	24251
837.029	24159
837.167	24114
837.305	24114
837.443	24018
837.58	24121
837.718	24285
837.856	24110
837.993	24030
838.131	23992
838.269	23863
838.406	23927
838.544	23961
838.681	23843
838.819	23615
838.956	23421
839.094	23524
839.231	23543
839.369	23604
839.506	23927
839.643	23863
839.781	23429
839.918	23349
840.055	23543
840.193	23490
840.33	23341
840.467	23463
840.604	23383
840.742	23748
840.879	23143
841.016	23398
841.153	23417
841.29	23509
841.427	23474
841.564	23452
841.701	23474
841.838	23356
841.975	23296
842.112	23280
842.249	23231
842.385	23166
842.522	23284
842.659	23269
842.796	23178
842.933	23311
843.069	23162
843.206	23159
843.343	23212
843.479	23216
843.616	23185
843.752	22995
843.889	23071
844.025	23113
844.162	22976
844.298	23147
844.435	22999
844.571	22949
844.708	23140
844.844	22968
844.98	22968
845.117	23041
845.253	22934
845.389	22782
845.525	22839
845.661	22900
845.798	22641
845.934	22729
846.07	22698
846.206	22725
846.342	22641
846.478	22679
846.614	22580
846.75	22462
846.886	22413
847.022	22470
847.158	22470
847.294	22379
847.429	22417
847.565	22436
847.701	22694
847.837	22124
847.972	22211
848.108	22158
848.244	22268
848.379	22040
848.515	22086
848.65	21987
848.786	22048
848.921	22097
849.057	22093
849.192	22044
849.328	22131
849.463	22017
849.598	22002
849.734	21903
849.869	21804
850.004	21652
850.14	21804
850.275	21743
850.41	21667
850.545	21622
850.68	21793
850.815	21774
850.95	21701
851.085	21934
851.22	21888
851.355	21831
851.49	21743
851.625	21793
851.76	21633
851.895	21728
852.03	21667
852.165	21629
852.299	21743
852.434	21895
852.569	21785
852.703	21823
852.838	21835
852.973	21850
853.107	21854
853.242	21633
853.376	21572
853.511	21519
853.645	21526
853.78	21633
853.914	21568
854.048	21545
854.183	21538
854.317	21606
854.451	21797
854.585	21644
854.72	21583
854.854	21717
854.988	21545
855.122	21717
855.256	21450
855.39	21545
855.524	21698
855.658	21652
855.792	21603
855.926	21534
856.06	21736
856.194	21686
856.327	21572
856.461	21523
856.595	21542
856.729	21580
856.862	21667
856.996	21728
857.13	21557
857.263	21781
857.397	21717
857.53	21587
857.664	21599
857.797	21652
857.931	21637
858.064	21542
858.197	21595
858.331	21603
858.464	21557
858.597	21431
858.731	21618
858.864	21515
858.997	21504
859.13	21622
859.263	21530
859.396	21713
859.529	21553
859.662	21534
859.795	21428
859.928	21637
860.061	21743
860.194	21797
860.327	21747
860.46	21561
860.592	21823
860.725	21641
860.858	21679
860.99	21629
861.123	21576
861.256	21496
861.388	21538
861.521	22063
861.653	21416
861.786	21306
861.918	21359
862.05	21450
862.183	21542
862.315	21553
862.447	21580
862.58	21439
862.712	21298
862.844	21256
862.976	21351
863.108	21260
863.24	21808
863.372	21256
863.504	21287
863.636	21211
863.768	21382
863.9	21279
864.032	21142
864.164	21279
864.296	21348
864.428	21329
864.559	21374
864.691	21279
864.823	21382
864.954	21252
865.086	21264
865.217	21211
865.349	21138
865.48	21051
865.612	21123
865.743	21135
865.875	21108
866.006	21074
866.137	21230
866.269	21230
866.4	21100
866.531	21214
866.662	21119
866.793	21001
866.924	21062
867.055	21188
867.186	21093
867.317	21096
867.448	21058
867.579	21051
867.71	20899
867.841	20944
867.972	21154
868.103	21055
868.233	21112
868.364	21039
868.495	21230
868.625	21370
868.756	21435
868.886	21211
869.017	21325
869.147	21500
869.278	21511
869.408	21450
869.539	21447
869.669	21397
869.799	21458
869.929	21485
870.06	21526
870.19	21663
870.32	21622
870.45	21724
870.58	21637
870.71	21762
870.84	21800
870.97	21831
871.1	21812
871.23	21907
871.36	21968
871.489	21766
871.619	21956
871.749	21953
871.879	22074
872.008	21998
872.138	21949
872.267	21945
872.397	21812
872.526	21812
872.656	21762
872.785	21819
872.915	22070
873.044	22082
873.173	22040
873.303	22051
873.432	22120
873.561	22036
873.69	21972
873.819	21956
873.948	21991
874.077	21892
874.206	21991
874.335	21953
874.464	22059
874.593	22135
874.722	22150
874.851	22246
874.979	22169
875.108	22211
875.237	22204
875.365	21934
875.494	22097
875.623	22234
875.751	22101
875.88	22211
876.008	22249
876.136	22272
876.265	22527
876.393	22771
876.521	22683
876.65	22672
876.778	22516
876.906	22554
877.034	22573
877.162	22588
877.29	22527
877.418	22573
877.546	22698
877.674	22519
877.802	22516
877.93	22386
878.058	22447
878.185	22382
878.313	22459
878.441	22519
878.568	22360
878.696	22436
878.824	22622
878.951	22607
879.079	22721
879.206	22828
879.333	22702
879.461	22580
879.588	22675
879.715	22755
879.842	22854
879.97	22713
880.097	22390
880.224	22375
880.351	22303
880.478	22447
880.605	22318
880.732	22265
880.859	22622
880.986	22242
881.112	22268
881.239	22169
881.366	22139
881.493	22135
881.619	21854
881.746	21922
881.872	21926
881.999	21937
882.125	21873
882.252	22002
882.378	21876
882.505	21956
882.631	21781
882.757	21694
882.883	21694
883.01	21542
883.136	21606
883.262	21416
883.388	21401
883.514	21561
883.64	21625
883.766	21534
883.892	21355
884.018	21382
884.143	21530
884.269	21679
884.395	21252
884.52	21211
884.646	21374
884.772	21214
884.897	21154
885.023	21211
885.148	21405
885.274	21477
885.399	21298
885.524	21310
885.65	21275
885.775	21245
885.9	21241
886.025	21378
886.15	21397
886.275	21195
886.4	21138
886.525	21302
886.65	21211
886.775	21195
886.9	21294
887.025	21431
887.149	21169
887.274	21116
887.399	20960
887.523	21062
887.648	20925
887.773	21020
887.897	21013
888.021	21100
888.146	20910
888.27	21104
888.395	21131
888.519	21096
888.643	21017
888.767	21173
888.891	21104
889.015	20785
889.139	20929
889.263	20765
889.387	20823
889.511	20849
889.635	20883
889.759	20708
889.883	20697
890.006	20800
890.13	20830
890.254	20720
890.377	20712
890.501	20590
890.624	20583
890.748	20530
890.871	20423
890.995	20358
891.118	20305
891.241	20465
891.364	20423
891.488	20545
891.611	20320
891.734	20351
891.857	20366
891.98	20377
892.103	20488
892.226	20259
892.349	20301
892.471	20081
892.594	20244
892.717	20393
892.839	20336
892.962	20275
893.085	20473
893.207	20305
893.33	20157
893.452	20282
893.575	20389
893.697	20210
893.819	20473
893.941	20442
894.064	20240
894.186	20240
894.308	20298
894.43	20370
894.552	20412
894.674	20343
894.796	20183
894.918	20225
895.04	20248
895.161	20275
895.283	20275
895.405	20252
895.526	20301
895.648	20149
895.769	20256
895.891	20206
896.012	20358
896.134	20355
896.255	20389
896.376	20172
896.498	20317
896.619	20298
896.74	20206
896.861	20408
896.982	20625
897.103	20750
897.224	20571
897.345	20469
897.466	20419
897.587	20408
897.708	20571
897.828	20598
897.949	20476
898.07	20355
898.19	20400
898.311	20396
898.431	20423
898.552	20423
898.672	20590
898.792	20556
898.913	20621
899.033	20450
899.153	20370
899.273	20176
899.393	20187
899.513	20324
899.633	20237
899.753	20328
899.873	20130
899.993	20278
900.113	20271
900.232	20214
900.352	20202
900.472	20138
900.591	20031
900.711	19982
900.83	19928
900.95	20069
901.069	20058
901.189	19894
901.308	19677
901.427	19647
901.546	19643
901.665	19559
901.784	19613
901.904	19457
902.023	19331
902.141	19263
902.26	19282
902.379	19152
902.498	19038
902.617	19038
902.735	19175
902.854	19110
902.973	19019
903.091	18738
903.21	18798
903.328	18722
903.446	18730
903.565	18616
903.683	18623
903.801	18589
903.919	18620
904.038	18536
904.156	18448
904.274	18422
904.392	18334
904.51	18289
904.627	18319
904.745	18311
904.863	18418
904.981	18114
905.098	18038
905.216	18110
905.334	18087
905.451	18060
905.569	17935
905.686	18038
905.803	18019
905.921	17798
906.038	17866
906.155	17733
906.272	17714
906.389	17813
906.506	17592
906.623	17596
906.74	17577
906.857	17482
906.974	17448
907.091	17592
907.208	17703
907.324	17558
907.441	17444
907.557	17364
907.674	17265
907.79	17140
907.907	17288
908.023	17288
908.139	17212
908.256	17322
908.372	17079
908.488	17140
908.604	16976
908.72	16976
908.836	16965
908.952	16957
909.068	16976
909.184	17064
909.3	16957
909.415	16984
909.531	16976
909.647	16698
909.762	16687
909.878	16744
909.993	16687
910.108	16656
910.224	16634
910.339	16573
910.454	16542
910.57	16470
910.685	16428
910.8	16721
910.915	16615
911.03	16443
911.145	16337
911.259	16325
911.374	16322
911.489	16192
911.604	16116
911.718	16006
911.833	16067
911.947	15854
912.062	15838
912.176	15960
912.291	16006
912.405	15975
912.519	16135
912.633	16192
912.748	16025
912.862	16029
912.976	15838
913.09	15732
913.204	15770
913.318	15793
913.431	15823
913.545	15930
913.659	15873
913.772	15800
913.886	15682
914	15614
914.113	15766
914.226	15724
914.34	15682
914.453	15481
914.566	15743
914.68	15549
914.793	15511
914.906	15237
915.019	15272
915.132	15138
915.245	15291
915.358	15211
915.47	15313
915.583	15211
915.696	15226
915.809	15264
915.921	15393
916.034	15306
916.146	15062
916.259	15108
916.371	15154
916.483	15161
916.595	15093
916.708	15066
916.82	15017
916.932	15036
917.044	15047
917.156	15013
917.268	14842
917.38	14872
917.491	14823
917.603	14887
917.715	15039
917.826	14990
917.938	14800
918.049	14762
918.161	14857
918.272	14948
918.384	14914
918.495	14849
918.606	14689
918.717	14526
918.828	14613
918.939	14663
919.05	14583
919.161	14621
919.272	14549
919.383	14400
919.494	14724
919.604	14788
919.715	14621
919.826	14552
919.936	14602
920.047	14606
920.157	14594
920.267	14796
920.378	14663
920.488	14495
920.598	14705
920.708	14891
920.818	14765
920.928	14655
921.038	14994
921.148	14773
921.258	14552
921.368	14427
921.477	14278
921.587	14328
921.697	14221
921.806	14396
921.916	14233
922.025	14027
922.134	13993
922.244	13890
922.353	13947
922.462	13856
922.571	13700
922.68	13643
922.789	13582
922.898	13685
923.007	13544
923.116	13674
923.224	13586
923.333	13525
923.442	13521
923.55	13365
923.659	13392
923.767	13537
923.876	13335
923.984	13392
924.092	13297
924.201	13358
924.309	13434
924.417	13354
924.525	13266
924.633	13282
924.741	14077
924.849	13038
924.956	13270
925.064	13088
925.172	12890
925.279	13103
925.387	13019
925.494	13076
925.602	13183
925.709	12958
925.816	13012
925.924	12958
926.031	13156
926.138	12958
926.245	12954
926.352	12913
926.459	12970
926.566	13012
926.673	12810
926.779	12798
926.886	12787
926.993	12654
927.099	12608
927.206	12521
927.312	12593
927.419	12616
927.525	12612
927.631	12574
927.737	12498
927.843	12502
927.95	12342
928.056	12403
928.162	12448
928.267	12418
928.373	13023
928.479	12517
928.585	12182
928.69	12308
928.796	12395
928.901	12285
929.007	12133
929.112	12281
929.218	12216
929.323	12136
929.428	12159
929.533	12186
929.638	12064
929.743	12163
929.848	12098
929.953	12057
930.058	11988
930.163	11855
930.267	11843
930.372	11969
930.477	11824
930.581	11980
930.685	11897
930.79	11710
930.894	11718
930.998	11714
931.103	11843
931.207	11543
931.311	11459
931.415	11330
931.519	11052
931.623	11098
