Data from test_V78500241_1779.txt Node
Date: Fri Mar 25 15:22:14 CST 2022
User: usil
Spectrometer: V785-0024
Trigger mode: 0
Integration Time (sec): 4.000000E-1
Scans to average: 1
Nonlinearity correction enabled: false
Boxcar width: 0
Storing dark spectrum: false
XAxis mode: Wavelengths
Number of Pixels in Spectrum: 1024
>>>>>Begin Spectral Data<<<<<
801.071	27960
801.214	27930
801.356	27667
801.499	27686
801.641	27599
801.783	27492
801.926	27526
802.068	27519
802.211	27420
802.353	27477
802.496	27192
802.638	27150
802.78	27150
802.923	27138
803.065	27100
803.208	26998
803.35	27131
803.492	27374
803.635	27230
803.777	27268
803.919	27435
804.061	27625
804.204	27526
804.346	27214
804.488	27332
804.63	27397
804.773	27397
804.915	27359
805.057	27397
805.199	27317
805.341	27435
805.483	27576
805.626	27485
805.768	27389
805.91	27507
806.052	27603
806.194	27226
806.336	27747
806.478	27526
806.62	27591
806.762	27652
806.904	27800
807.046	28036
807.188	27842
807.33	27838
807.472	28044
807.614	27922
807.756	27918
807.898	27816
808.04	27774
808.182	27823
808.324	27842
808.465	27724
808.607	27987
808.749	28246
808.891	28166
809.033	28192
809.174	28188
809.316	28078
809.458	28059
809.6	27949
809.741	28226
809.883	28219
810.025	28417
810.166	28409
810.308	28447
810.45	28268
810.591	28249
810.733	28128
810.875	28093
811.016	27998
811.158	28059
811.299	28253
811.441	28360
811.582	28291
811.724	28147
811.865	28082
812.007	28173
812.148	28067
812.29	28063
812.431	28417
812.573	28371
812.714	28592
812.855	28580
812.997	28702
813.138	28927
813.279	28660
813.421	28618
813.562	28630
813.703	28466
813.845	28352
813.986	28162
814.127	27956
814.268	28010
814.41	27880
814.551	27705
814.692	27880
814.833	27747
814.974	27781
815.115	27701
815.256	27774
815.397	27850
815.539	27698
815.68	27473
815.821	27656
815.962	27720
816.103	27629
816.244	27568
816.385	27561
816.526	27340
816.666	27317
816.807	27051
816.948	27176
817.089	27138
817.23	27176
817.371	27100
817.512	27138
817.653	27123
817.793	27096
817.934	27138
818.075	27062
818.216	27146
818.356	27146
818.497	27005
818.638	26921
818.778	26834
818.919	26857
819.06	26960
819.2	26986
819.341	27093
819.481	27051
819.622	27287
819.762	27511
819.903	27511
820.043	27302
820.184	27355
820.324	27283
820.465	27363
820.605	27176
820.746	27192
820.886	27055
821.026	27188
821.167	27230
821.307	27344
821.447	27131
821.588	27032
821.728	26864
821.868	26648
822.008	26617
822.149	26583
822.289	26632
822.429	26450
822.569	26244
822.709	26324
822.849	26214
822.99	26210
823.13	26020
823.27	25982
823.41	25982
823.55	25860
823.69	25921
823.83	25837
823.97	25833
824.11	25753
824.25	25696
824.389	25841
824.529	25879
824.669	25746
824.809	25833
824.949	25925
825.089	25860
825.228	25845
825.368	25449
825.508	25624
825.648	25696
825.787	25666
825.927	25643
826.067	25597
826.206	25586
826.346	25742
826.485	25780
826.625	25647
826.765	25769
826.904	25670
827.044	25544
827.183	25400
827.323	25403
827.462	25396
827.601	25464
827.741	25293
827.88	25491
828.02	25278
828.159	25316
828.298	25358
828.437	25533
828.577	25240
828.716	25529
828.855	25304
828.994	25084
829.134	25126
829.273	24924
829.412	25072
829.551	24928
829.69	25160
829.829	24996
829.968	25156
830.107	25198
830.246	25145
830.385	25107
830.524	24939
830.663	24844
830.802	24859
830.941	24696
831.08	24513
831.219	24825
831.357	24753
831.496	24943
831.635	24696
831.774	24715
831.913	24460
832.051	24448
832.19	24353
832.329	24448
832.467	24391
832.606	24273
832.744	24372
832.883	24399
833.022	24330
833.16	24357
833.299	24433
833.437	24429
833.576	24384
833.714	24395
833.852	24505
833.991	24445
834.129	24490
834.267	24551
834.406	24391
834.544	24475
834.682	24410
834.821	24407
834.959	24544
835.097	24327
835.235	24448
835.373	24304
835.511	24296
835.65	24292
835.788	24323
835.926	24114
836.064	24174
836.202	24114
836.34	24205
836.478	24498
836.615	24163
836.753	24232
836.891	24258
837.029	24213
837.167	24205
837.305	24167
837.443	24102
837.58	24064
837.718	24190
837.856	24038
837.993	23999
838.131	24171
838.269	23931
838.406	23908
838.544	23977
838.681	23813
838.819	23665
838.956	23611
839.094	23672
839.231	23687
839.369	23748
839.506	23969
839.643	23889
839.781	23505
839.918	23379
840.055	23585
840.193	23531
840.33	23501
840.467	23600
840.604	23573
840.742	23828
840.879	23387
841.016	23516
841.153	23383
841.29	23642
841.427	23543
841.564	23535
841.701	23471
841.838	23474
841.975	23322
842.112	23360
842.249	23212
842.385	23193
842.522	23311
842.659	23349
842.796	23200
842.933	23246
843.069	23265
843.206	23216
843.343	23334
843.479	23212
843.616	23326
843.752	23033
843.889	23006
844.025	23102
844.162	23056
844.298	23102
844.435	23075
844.571	23018
844.708	23083
844.844	23136
844.98	23121
845.117	23223
845.253	22862
845.389	22877
845.525	22892
845.661	22858
845.798	22725
845.934	22889
846.07	22637
846.206	22748
846.342	22908
846.478	22706
846.614	22523
846.75	22493
846.886	22413
847.022	22706
847.158	22508
847.294	22485
847.429	22478
847.565	22462
847.701	22664
847.837	22238
847.972	22112
848.108	22272
848.244	22261
848.379	22234
848.515	22154
848.65	22051
848.786	22010
848.921	22105
849.057	22131
849.192	22246
849.328	22105
849.463	22051
849.598	22032
849.734	22048
849.869	21991
850.004	21812
850.14	21880
850.275	21892
850.41	21789
850.545	21861
850.68	21854
850.815	21895
850.95	21804
851.085	21972
851.22	21964
851.355	21915
851.49	22017
851.625	21854
851.76	21739
851.895	21861
852.03	21720
852.165	21941
852.299	21739
852.434	22044
852.569	21819
852.703	21793
852.838	21869
852.973	21991
853.107	21857
853.242	21850
853.376	21667
853.511	21641
853.645	21610
853.78	21701
853.914	21770
854.048	21720
854.183	21644
854.317	21625
854.451	21873
854.585	21797
854.72	21728
854.854	21743
854.988	21690
855.122	21686
855.256	21557
855.39	21713
855.524	21694
855.658	21736
855.792	21652
855.926	21751
856.06	21698
856.194	21648
856.327	21568
856.461	21485
856.595	21523
856.729	21610
856.862	21705
856.996	21690
857.13	21648
857.263	21751
857.397	21663
857.53	21545
857.664	21667
857.797	21701
857.931	21751
858.064	21637
858.197	21671
858.331	21587
858.464	21641
858.597	21428
858.731	21595
858.864	21610
858.997	21583
859.13	21595
859.263	21583
859.396	21724
859.529	21675
859.662	21561
859.795	21477
859.928	21610
860.061	21918
860.194	21766
860.327	21759
860.46	21675
860.592	21686
860.725	21835
860.858	21728
860.99	21561
861.123	21694
861.256	21610
861.388	21625
861.521	22542
861.653	21488
861.786	21329
861.918	21610
862.05	21553
862.183	21606
862.315	21618
862.447	21583
862.58	21530
862.712	21306
862.844	21443
862.976	21477
863.108	21348
863.24	21823
863.372	21298
863.504	21359
863.636	21294
863.768	21382
863.9	21332
864.032	21268
864.164	21313
864.296	21435
864.428	21538
864.559	21332
864.691	21481
864.823	21397
864.954	21329
865.086	21447
865.217	21241
865.349	21165
865.48	21336
865.612	21241
865.743	21416
865.875	21268
866.006	21154
866.137	21268
866.269	21165
866.4	21207
866.531	21203
866.662	21104
866.793	21108
866.924	21233
867.055	21374
867.186	21332
867.317	21176
867.448	21157
867.579	21135
867.71	21096
867.841	21154
867.972	21184
868.103	21096
868.233	21142
868.364	21264
868.495	21294
868.625	21500
868.756	21496
868.886	21294
869.017	21405
869.147	21485
869.278	21557
869.408	21420
869.539	21412
869.669	21481
869.799	21511
869.929	21485
870.06	21614
870.19	21720
870.32	21720
870.45	21747
870.58	21831
870.71	21869
870.84	21903
870.97	21785
871.1	21720
871.23	21869
871.36	21911
871.489	21854
871.619	22139
871.749	21979
871.879	21979
872.008	22143
872.138	22120
872.267	21983
872.397	21930
872.526	21778
872.656	21739
872.785	21968
872.915	22010
873.044	22070
873.173	22131
873.303	22112
873.432	22093
873.561	22128
873.69	22029
873.819	22059
873.948	22131
874.077	21964
874.206	22029
874.335	22021
874.464	22204
874.593	22421
874.722	22204
874.851	22238
874.979	22234
875.108	22360
875.237	22234
875.365	22200
875.494	22200
875.623	22265
875.751	22116
875.88	22325
876.008	22375
876.136	22557
876.265	22641
876.393	22774
876.521	22740
876.65	22679
876.778	22649
876.906	22603
877.034	22611
877.162	22489
877.29	22481
877.418	22634
877.546	22641
877.674	22569
877.802	22596
877.93	22653
878.058	22519
878.185	22565
878.313	22527
878.441	22588
878.568	22352
878.696	22474
878.824	22508
878.951	22618
879.079	22706
879.206	22873
879.333	22805
879.461	22618
879.588	22793
879.715	22763
879.842	22930
879.97	22683
880.097	22394
880.224	22402
880.351	22360
880.478	22367
880.605	22322
880.732	22409
880.859	22683
880.986	22405
881.112	22440
881.239	22265
881.366	22181
881.493	22048
881.619	21953
881.746	22025
881.872	21922
881.999	22101
882.125	21922
882.252	22124
882.378	21949
882.505	22002
882.631	21819
882.757	21679
882.883	21975
883.01	21838
883.136	21622
883.262	21549
883.388	21564
883.514	21625
883.64	21622
883.766	21549
883.892	21420
884.018	21576
884.143	21534
884.269	21625
884.395	21367
884.52	21329
884.646	21450
884.772	21355
884.897	21192
885.023	21401
885.148	21534
885.274	21458
885.399	21405
885.524	21336
885.65	21408
885.775	21336
885.9	21424
886.025	21447
886.15	21355
886.275	21317
886.4	21203
886.525	21241
886.65	21264
886.775	21245
886.9	21447
887.025	21587
887.149	21302
887.274	21138
887.399	21032
887.523	21154
887.648	21074
887.773	21032
887.897	21199
888.021	21188
888.146	21066
888.27	21184
888.395	21085
888.519	21119
888.643	21150
888.767	21165
888.891	20979
889.015	20895
889.139	20960
889.263	20815
889.387	21039
889.511	21074
889.635	21005
889.759	20891
889.883	20982
890.006	20887
890.13	20960
890.254	20724
890.377	20819
890.501	20655
890.624	20693
890.748	20727
890.871	20579
890.995	20461
891.118	20381
891.241	20454
891.364	20530
891.488	20648
891.611	20495
891.734	20476
891.857	20598
891.98	20564
892.103	20552
892.226	20400
892.349	20362
892.471	20187
892.594	20419
892.717	20412
892.839	20343
892.962	20313
893.085	20301
893.207	20286
893.33	20294
893.452	20385
893.575	20347
893.697	20244
893.819	20492
893.941	20476
894.064	20499
894.186	20195
894.308	20256
894.43	20427
894.552	20488
894.674	20393
894.796	20400
894.918	20294
895.04	20301
895.161	20374
895.283	20446
895.405	20317
895.526	20317
895.648	20339
895.769	20389
895.891	20457
896.012	20488
896.134	20446
896.255	20339
896.376	20362
896.498	20358
896.619	20374
896.74	20282
896.861	20526
896.982	20629
897.103	20743
897.224	20663
897.345	20590
897.466	20537
897.587	20533
897.708	20720
897.828	20495
897.949	20473
898.07	20317
898.19	20473
898.311	20663
898.431	20549
898.552	20537
898.672	20651
898.792	20621
898.913	20602
899.033	20598
899.153	20495
899.273	20267
899.393	20358
899.513	20434
899.633	20286
899.753	20294
899.873	20370
899.993	20347
900.113	20286
900.232	20324
900.352	20313
900.472	20275
900.591	20130
900.711	20058
900.83	20054
900.95	20282
901.069	20221
901.189	19883
901.308	19868
901.427	19635
901.546	19620
901.665	19719
901.784	19731
901.904	19563
902.023	19415
902.141	19251
902.26	19266
902.379	19293
902.498	19232
902.617	19145
902.735	19148
902.854	19095
902.973	19084
903.091	18867
903.21	19019
903.328	18848
903.446	18802
903.565	18566
903.683	18585
903.801	18570
903.919	18688
904.038	18593
904.156	18448
904.274	18490
904.392	18433
904.51	18376
904.627	18350
904.745	18506
904.863	18551
904.981	18174
905.098	18041
905.216	18041
905.334	18049
905.451	17996
905.569	18152
905.686	18163
905.803	18114
905.921	17828
906.038	18049
906.155	18011
906.272	17882
906.389	17889
906.506	17668
906.623	17596
906.74	17592
906.857	17638
906.974	17562
907.091	17649
907.208	17707
907.324	17668
907.441	17509
907.557	17414
907.674	17368
907.79	17254
907.907	17296
908.023	17341
908.139	17334
908.256	17288
908.372	17235
908.488	17280
908.604	17056
908.72	16995
908.836	17098
908.952	17143
909.068	17181
909.184	17151
909.3	17010
909.415	16991
909.531	17121
909.647	16831
909.762	16767
909.878	16752
909.993	16721
910.108	16752
910.224	16767
910.339	16668
910.454	16603
910.57	16561
910.685	16428
910.8	16717
910.915	16641
911.03	16413
911.145	16447
911.259	16417
911.374	16284
911.489	16348
911.604	16234
911.718	16215
911.833	16078
911.947	16074
912.062	15922
912.176	16147
912.291	16036
912.405	16040
912.519	16230
912.633	16253
912.748	16139
912.862	16032
912.976	16025
913.09	15789
913.204	15926
913.318	15880
913.431	15975
913.545	15915
913.659	16040
913.772	15823
913.886	15743
914	15808
914.113	15759
914.226	15831
914.34	15743
914.453	15633
914.566	15694
914.68	15595
914.793	15584
914.906	15431
915.019	15397
915.132	15294
915.245	15336
915.358	15332
915.47	15325
915.583	15382
915.696	15374
915.809	15287
915.921	15439
916.034	15310
916.146	15268
916.259	15211
916.371	15268
916.483	15294
916.595	15218
916.708	15150
916.82	15131
916.932	15074
917.044	15074
917.156	14963
917.268	14986
917.38	15138
917.491	14979
917.603	14921
917.715	14853
917.826	15051
917.938	14849
918.049	14857
918.161	14880
918.272	15009
918.384	15039
918.495	14872
918.606	14842
918.717	14636
918.828	14739
918.939	14815
919.05	14625
919.161	14758
919.272	14495
919.383	14533
919.494	14682
919.604	14887
919.715	14648
919.826	14693
919.936	14651
920.047	14678
920.157	14674
920.267	14918
920.378	14697
920.488	14613
920.598	14758
920.708	14921
920.818	14777
920.928	14811
921.038	14986
921.148	14842
921.258	14629
921.368	14552
921.477	14412
921.587	14465
921.697	14229
921.806	14377
921.916	14336
922.025	14058
922.134	14077
922.244	14058
922.353	14100
922.462	13894
922.571	13917
922.68	13712
922.789	13647
922.898	13655
923.007	13674
923.116	13696
923.224	13685
923.333	13655
923.442	13563
923.55	13483
923.659	13605
923.767	13605
923.876	13510
923.984	13601
924.092	13392
924.201	13464
924.309	13426
924.417	13476
924.525	13346
924.633	13282
924.741	14347
924.849	13145
924.956	13316
925.064	13076
925.172	13015
925.279	13046
925.387	13133
925.494	13137
925.602	13141
925.709	13164
925.816	12924
925.924	13031
926.031	13023
926.138	13023
926.245	13133
926.352	12943
926.459	13046
926.566	13091
926.673	12985
926.779	12920
926.886	12848
926.993	12715
927.099	12631
927.206	12688
927.312	12589
927.419	12700
927.525	12631
927.631	12646
927.737	12528
927.843	12441
927.95	12300
928.056	12471
928.162	12475
928.267	12502
928.373	13133
928.479	12597
928.585	12232
928.69	12448
928.796	12506
928.901	12391
929.007	12167
929.112	12353
929.218	12296
929.323	12251
929.428	12213
929.533	12319
929.638	12201
929.743	12163
929.848	12243
929.953	12079
930.058	12026
930.163	11828
930.267	11855
930.372	11999
930.477	11916
930.581	12098
930.685	11874
930.79	11745
930.894	11783
930.998	11707
931.103	11901
931.207	11509
931.311	11425
931.415	11334
931.519	11143
931.623	11086
