Data from test_V78500241_2350.txt Node
Date: Fri Mar 25 15:26:13 CST 2022
User: usil
Spectrometer: V785-0024
Trigger mode: 0
Integration Time (sec): 4.000000E-1
Scans to average: 1
Nonlinearity correction enabled: false
Boxcar width: 0
Storing dark spectrum: false
XAxis mode: Wavelengths
Number of Pixels in Spectrum: 1024
>>>>>Begin Spectral Data<<<<<
801.071	27359
801.214	27367
801.356	27119
801.499	27020
801.641	26868
801.783	27013
801.926	26899
802.068	26819
802.211	26811
802.353	26754
802.496	26686
802.638	26446
802.78	26541
802.923	26362
803.065	26526
803.208	26355
803.35	26545
803.492	26571
803.635	26758
803.777	26568
803.919	26686
804.061	26956
804.204	26781
804.346	26499
804.488	26552
804.63	26556
804.773	26629
804.915	26678
805.057	26845
805.199	26625
805.341	26807
805.483	26773
805.626	26811
805.768	26651
805.91	26693
806.052	26925
806.194	26712
806.336	26868
806.478	26823
806.62	26807
806.762	26773
806.904	27104
807.046	27192
807.188	27279
807.33	27302
807.472	27184
807.614	27161
807.756	27123
807.898	27142
808.04	27123
808.182	27043
808.324	27062
808.465	27058
808.607	27313
808.749	27344
808.891	27610
809.033	27568
809.174	27264
809.316	27389
809.458	27500
809.6	27466
809.741	27469
809.883	27416
810.025	27564
810.166	27606
810.308	27690
810.45	27603
810.591	27488
810.733	27443
810.875	27435
811.016	27302
811.158	27256
811.299	27416
811.441	27648
811.582	27557
811.724	27363
811.865	27279
812.007	27401
812.148	27485
812.29	27378
812.431	27625
812.573	27660
812.714	27656
812.855	27816
812.997	27960
813.138	28147
813.279	27922
813.421	27880
813.562	27865
813.703	27644
813.845	27408
813.986	27367
814.127	27116
814.268	26918
814.41	27108
814.551	27055
814.692	27127
814.833	26925
814.974	27036
815.115	27138
815.256	26891
815.397	26807
815.539	26876
815.68	26902
815.821	26800
815.962	26933
816.103	26743
816.244	26705
816.385	26522
816.526	26632
816.666	26427
816.807	26294
816.948	26366
817.089	26404
817.23	26377
817.371	26389
817.512	26370
817.653	26328
817.793	26191
817.934	26358
818.075	26294
818.216	26309
818.356	26408
818.497	26233
818.638	26092
818.778	26111
818.919	26130
819.06	26161
819.2	26290
819.341	26240
819.481	26351
819.622	26587
819.762	26537
819.903	26461
820.043	26590
820.184	26415
820.324	26427
820.465	26370
820.605	26473
820.746	26286
820.886	26317
821.026	26434
821.167	26237
821.307	26309
821.447	26278
821.588	26237
821.728	26005
821.868	25879
822.008	25913
822.149	25811
822.289	25723
822.429	25529
822.569	25430
822.709	25491
822.849	25426
822.99	25373
823.13	25202
823.27	25358
823.41	25129
823.55	25019
823.69	25129
823.83	25110
823.97	25103
824.11	24848
824.25	24863
824.389	24863
824.529	24951
824.669	24901
824.809	24981
824.949	25129
825.089	24962
825.228	24909
825.368	24806
825.508	24753
825.648	24783
825.787	24726
825.927	24779
826.067	24817
826.206	24715
826.346	24772
826.485	24878
826.625	24730
826.765	24840
826.904	24840
827.044	24627
827.183	24566
827.323	24574
827.462	24426
827.601	24547
827.741	24460
827.88	24517
828.02	24353
828.159	24376
828.298	24582
828.437	24517
828.577	24490
828.716	24547
828.855	24452
828.994	24159
829.134	24220
829.273	24171
829.412	24117
829.551	23961
829.69	24369
829.829	24155
829.968	24247
830.107	24239
830.246	24159
830.385	24087
830.524	23980
830.663	24030
830.802	23958
830.941	23794
831.08	23718
831.219	23805
831.357	23851
831.496	24049
831.635	23828
831.774	23676
831.913	23558
832.051	23570
832.19	23729
832.329	23646
832.467	23448
832.606	23490
832.744	23467
832.883	23322
833.022	23547
833.16	23482
833.299	23551
833.437	23528
833.576	23581
833.714	23501
833.852	23497
833.991	23630
834.129	23630
834.267	23699
834.406	23562
834.544	23528
834.682	23547
834.821	23448
834.959	23790
835.097	23398
835.235	23573
835.373	23589
835.511	23695
835.65	23318
835.788	23436
835.926	23311
836.064	23136
836.202	23204
836.34	23398
836.478	23398
836.615	23185
836.753	23250
836.891	23551
837.029	23372
837.167	23379
837.305	23307
837.443	23311
837.58	23265
837.718	23429
837.856	23311
837.993	23170
838.131	23231
838.269	23014
838.406	23060
838.544	22923
838.681	22908
838.819	22771
838.956	22630
839.094	22725
839.231	22843
839.369	22877
839.506	22972
839.643	23018
839.781	22698
839.918	22698
840.055	22687
840.193	22626
840.33	22554
840.467	22508
840.604	22641
840.742	22736
840.879	22531
841.016	22500
841.153	22417
841.29	22782
841.427	22478
841.564	22592
841.701	22679
841.838	22592
841.975	22451
842.112	22447
842.249	22428
842.385	22363
842.522	22478
842.659	22394
842.796	22280
842.933	22443
843.069	22318
843.206	22265
843.343	22352
843.479	22466
843.616	22413
843.752	22242
843.889	22253
844.025	22394
844.162	22139
844.298	22211
844.435	22158
844.571	22169
844.708	22287
844.844	22299
844.98	22306
845.117	22242
845.253	22090
845.389	22090
845.525	21972
845.661	22021
845.798	21823
845.934	21930
846.07	21869
846.206	21994
846.342	21964
846.478	21865
846.614	21576
846.75	21633
846.886	21568
847.022	21656
847.158	21622
847.294	21603
847.429	21614
847.565	21572
847.701	21846
847.837	21439
847.972	21348
848.108	21405
848.244	21431
848.379	21150
848.515	21108
848.65	21192
848.786	21138
848.921	21207
849.057	21439
849.192	21252
849.328	21302
849.463	21199
849.598	21009
849.734	21066
849.869	21074
850.004	20895
850.14	21062
850.275	21013
850.41	20963
850.545	21024
850.68	20918
850.815	20960
850.95	20914
851.085	21188
851.22	21039
851.355	20933
851.49	20910
851.625	20982
851.76	20918
851.895	20857
852.03	20895
852.165	20883
852.299	20975
852.434	21047
852.569	20967
852.703	20967
852.838	20963
852.973	21100
853.107	21157
853.242	20910
853.376	20762
853.511	20758
853.645	20815
853.78	21005
853.914	20758
854.048	20785
854.183	20811
854.317	20883
854.451	20998
854.585	20891
854.72	20724
854.854	20853
854.988	20743
855.122	20883
855.256	20469
855.39	20724
855.524	20906
855.658	20792
855.792	20925
855.926	20716
856.06	20861
856.194	20849
856.327	20868
856.461	20708
856.595	20689
856.729	20743
856.862	20986
856.996	20891
857.13	20960
857.263	20929
857.397	20994
857.53	20667
857.664	20868
857.797	20804
857.931	20967
858.064	20933
858.197	20982
858.331	20708
858.464	20769
858.597	20678
858.731	20883
858.864	20762
858.997	20720
859.13	20849
859.263	20804
859.396	20861
859.529	20750
859.662	20720
859.795	20792
859.928	20743
860.061	21039
860.194	21001
860.327	20785
860.46	20849
860.592	20906
860.725	20975
860.858	20948
860.99	20796
861.123	20731
861.256	20769
861.388	20804
861.521	21378
861.653	20693
861.786	20590
861.918	20701
862.05	20750
862.183	20724
862.315	20708
862.447	20785
862.58	20625
862.712	20629
862.844	20587
862.976	20629
863.108	20583
863.24	21123
863.372	20328
863.504	20499
863.636	20450
863.768	20503
863.9	20526
864.032	20480
864.164	20473
864.296	20495
864.428	20594
864.559	20537
864.691	20625
864.823	20629
864.954	20636
865.086	20552
865.217	20545
865.349	20393
865.48	20434
865.612	20339
865.743	20537
865.875	20469
866.006	20522
866.137	20434
866.269	20366
866.4	20427
866.531	20358
866.662	20305
866.793	20320
866.924	20377
867.055	20374
867.186	20282
867.317	20347
867.448	20168
867.579	20305
867.71	20381
867.841	20248
867.972	20282
868.103	20393
868.233	20431
868.364	20317
868.495	20492
868.625	20663
868.756	20864
868.886	20594
869.017	20636
869.147	20682
869.278	20735
869.408	20602
869.539	20697
869.669	20663
869.799	20606
869.929	20754
870.06	20674
870.19	20861
870.32	20788
870.45	20883
870.58	20960
870.71	20944
870.84	21036
870.97	20994
871.1	21081
871.23	21074
871.36	21264
871.489	21119
871.619	21154
871.749	21188
871.879	21161
872.008	21207
872.138	21119
872.267	21195
872.397	21070
872.526	21047
872.656	20982
872.785	21150
872.915	21180
873.044	21260
873.173	21207
873.303	21249
873.432	21291
873.561	21154
873.69	21055
873.819	21279
873.948	21241
874.077	21245
874.206	21192
874.335	21245
874.464	21203
874.593	21462
874.722	21325
874.851	21473
874.979	21374
875.108	21416
875.237	21378
875.365	21310
875.494	21542
875.623	21477
875.751	21355
875.88	21393
876.008	21675
876.136	21633
876.265	21873
876.393	22025
876.521	21972
876.65	21937
876.778	21838
876.906	21819
877.034	21739
877.162	21854
877.29	21804
877.418	21793
877.546	21698
877.674	21800
877.802	21892
877.93	21800
878.058	21785
878.185	21709
878.313	21717
878.441	21705
878.568	21732
878.696	21614
878.824	21854
878.951	21846
879.079	22002
879.206	21987
879.333	21964
879.461	21899
879.588	21998
879.715	21964
879.842	22070
879.97	21819
880.097	21648
880.224	21603
880.351	21717
880.478	21591
880.605	21557
880.732	21614
880.859	21857
880.986	21644
881.112	21553
881.239	21412
881.366	21454
881.493	21287
881.619	21135
881.746	21272
881.872	21268
881.999	21192
882.125	21173
882.252	21279
882.378	21131
882.505	21279
882.631	21104
882.757	20906
882.883	20853
883.01	20952
883.136	20933
883.262	20830
883.388	20731
883.514	20861
883.64	21017
883.766	20796
883.892	20651
884.018	20682
884.143	20838
884.269	20956
884.395	20568
884.52	20617
884.646	20644
884.772	20590
884.897	20442
885.023	20648
885.148	20632
885.274	20739
885.399	20765
885.524	20602
885.65	20602
885.775	20587
885.9	20423
886.025	20644
886.15	20594
886.275	20587
886.4	20457
886.525	20522
886.65	20560
886.775	20332
886.9	20644
887.025	20765
887.149	20457
887.274	20450
887.399	20237
887.523	20393
887.648	20343
887.773	20275
887.897	20480
888.021	20259
888.146	20282
888.27	20336
888.395	20492
888.519	20370
888.643	20328
888.767	20404
888.891	20202
889.015	20202
889.139	20183
889.263	20256
889.387	20240
889.511	20320
889.635	20278
889.759	20096
889.883	20084
890.006	20195
890.13	20210
890.254	20012
890.377	20081
890.501	19890
890.624	19799
890.748	19826
890.871	19738
890.995	19750
891.118	19643
891.241	19791
891.364	19791
891.488	19925
891.611	19712
891.734	19674
891.857	19830
891.98	19780
892.103	19662
892.226	19677
892.349	19670
892.471	19480
892.594	19647
892.717	19655
892.839	19719
892.962	19628
893.085	19727
893.207	19708
893.33	19480
893.452	19495
893.575	19559
893.697	19693
893.819	19780
893.941	19856
894.064	19791
894.186	19559
894.308	19502
894.43	19769
894.552	19772
894.674	19727
894.796	19632
894.918	19518
895.04	19700
895.161	19578
895.283	19696
895.405	19537
895.526	19696
895.648	19666
895.769	19628
895.891	19647
896.012	19731
896.134	19605
896.255	19605
896.376	19616
896.498	19548
896.619	19567
896.74	19693
896.861	19750
896.982	19887
897.103	20176
897.224	19932
897.345	19902
897.466	19803
897.587	19765
897.708	19856
897.828	19906
897.949	19712
898.07	19681
898.19	19799
898.311	19989
898.431	19784
898.552	19871
898.672	19978
898.792	19944
898.913	19940
899.033	19655
899.153	19704
899.273	19468
899.393	19613
899.513	19693
899.633	19670
899.753	19681
899.873	19449
899.993	19738
900.113	19620
900.232	19700
900.352	19525
900.472	19415
900.591	19343
900.711	19514
900.83	19464
900.95	19487
901.069	19445
901.189	19312
901.308	19069
901.427	18996
901.546	19004
901.665	19046
901.784	18958
901.904	19012
902.023	18798
902.141	18574
902.26	18521
902.379	18642
902.498	18532
902.617	18528
902.735	18601
902.854	18334
902.973	18391
903.091	18323
903.21	18216
903.328	18201
903.446	18003
903.565	17988
903.683	18076
903.801	17920
903.919	17946
904.038	17946
904.156	17634
904.274	17805
904.392	17745
904.51	17737
904.627	17760
904.745	17790
904.863	17794
904.981	17570
905.098	17493
905.216	17356
905.334	17493
905.451	17493
905.569	17455
905.686	17566
905.803	17337
905.921	17231
906.038	17280
906.155	17189
906.272	17151
906.389	17235
906.506	16953
906.623	16854
906.74	16995
906.857	16828
906.974	16889
907.091	16957
907.208	17235
907.324	17075
907.441	16957
907.557	16786
907.674	16782
907.79	16577
907.907	16615
908.023	16801
908.139	16656
908.256	16653
908.372	16683
908.488	16470
908.604	16470
908.72	16470
908.836	16398
908.952	16451
909.068	16436
909.184	16493
909.3	16382
909.415	16516
909.531	16386
909.647	16200
909.762	16192
909.878	16048
909.993	16173
910.108	16143
910.224	16169
910.339	16226
910.454	16006
910.57	15983
910.685	15899
910.8	16234
910.915	16055
911.03	15949
911.145	15751
911.259	15842
911.374	15732
911.489	15686
911.604	15625
911.718	15538
911.833	15568
911.947	15401
912.062	15401
912.176	15473
912.291	15473
912.405	15545
912.519	15652
912.633	15663
912.748	15458
912.862	15504
912.976	15378
913.09	15317
913.204	15207
913.318	15344
913.431	15405
913.545	15348
913.659	15405
913.772	15317
913.886	15203
914	15055
914.113	15306
914.226	15222
914.34	15336
914.453	14960
914.566	15146
914.68	15036
914.793	15043
914.906	14800
915.019	14807
915.132	14678
915.245	14815
915.358	14842
915.47	14754
915.583	14701
915.696	14838
915.809	14933
915.921	14914
916.034	14697
916.146	14743
916.259	14670
916.371	14644
916.483	14773
916.595	14613
916.708	14556
916.82	14610
916.932	14644
917.044	14541
917.156	14587
917.268	14431
917.38	14518
917.491	14381
917.603	14454
917.715	14446
917.826	14583
917.938	14320
918.049	14278
918.161	14446
918.272	14488
918.384	14511
918.495	14282
918.606	14187
918.717	14142
918.828	14248
918.939	14176
919.05	14142
919.161	14225
919.272	13909
919.383	14096
919.494	14210
919.604	14450
919.715	14123
919.826	14259
919.936	14077
920.047	14244
920.157	14183
920.267	14374
920.378	14161
920.488	14092
920.598	14237
920.708	14454
920.818	14286
920.928	14248
921.038	14473
921.148	14473
921.258	14153
921.368	13989
921.477	13928
921.587	13993
921.697	13883
921.806	13974
921.916	13723
922.025	13658
922.134	13468
922.244	13487
922.353	13597
922.462	13430
922.571	13388
922.68	13255
922.789	13168
922.898	13236
923.007	13061
923.116	13263
923.224	13164
923.333	13209
923.442	13046
923.55	12962
923.659	13019
923.767	13137
923.876	12973
923.984	13057
924.092	12970
924.201	13042
924.309	12958
924.417	12977
924.525	12973
924.633	12871
924.741	13803
924.849	12692
924.956	12791
925.064	12669
925.172	12631
925.279	12612
925.387	12593
925.494	12768
925.602	12719
925.709	12696
925.816	12570
925.924	12540
926.031	12681
926.138	12585
926.245	12654
926.352	12570
926.459	12669
926.566	12642
926.673	12547
926.779	12403
926.886	12422
926.993	12281
927.099	12216
927.206	12197
927.312	12087
927.419	12296
927.525	12216
927.631	12254
927.737	12102
927.843	12125
927.95	12038
928.056	12064
928.162	12026
928.267	12064
928.373	12639
928.479	12091
928.585	11885
928.69	11980
928.796	12091
928.901	11904
929.007	11752
929.112	12022
929.218	11802
929.323	11805
929.428	11771
929.533	11821
929.638	11741
929.743	11752
929.848	11824
929.953	11786
930.058	11608
930.163	11512
930.267	11440
930.372	11630
930.477	11486
930.581	11596
930.685	11558
930.79	11326
930.894	11334
930.998	11307
931.103	11459
931.207	11151
931.311	11056
931.415	11018
931.519	10801
931.623	10835
