Data from test_V78500241_2946.txt Node
Date: Fri Mar 25 15:30:22 CST 2022
User: usil
Spectrometer: V785-0024
Trigger mode: 0
Integration Time (sec): 4.000000E-1
Scans to average: 1
Nonlinearity correction enabled: false
Boxcar width: 0
Storing dark spectrum: false
XAxis mode: Wavelengths
Number of Pixels in Spectrum: 1024
>>>>>Begin Spectral Data<<<<<
801.071	26918
801.214	26842
801.356	26765
801.499	26670
801.641	26678
801.783	26522
801.926	26640
802.068	26613
802.211	26427
802.353	26484
802.496	26294
802.638	26210
802.78	26111
802.923	26073
803.065	26073
803.208	26020
803.35	26191
803.492	26259
803.635	26415
803.777	26183
803.919	26347
804.061	26530
804.204	26389
804.346	26358
804.488	26199
804.63	26412
804.773	26126
804.915	26259
805.057	26503
805.199	26385
805.341	26267
805.483	26495
805.626	26564
805.768	26271
805.91	26412
806.052	26651
806.194	26381
806.336	26473
806.478	26404
806.62	26309
806.762	26453
806.904	26636
807.046	26872
807.188	26979
807.33	26868
807.472	26876
807.614	26796
807.756	26849
807.898	26693
808.04	26644
808.182	26579
808.324	26659
808.465	26800
808.607	26956
808.749	27032
808.891	27112
809.033	27306
809.174	27150
809.316	27017
809.458	27028
809.6	27123
809.741	27043
809.883	27112
810.025	27386
810.166	27279
810.308	27298
810.45	27412
810.591	27199
810.733	27077
810.875	27036
811.016	26933
811.158	26937
811.299	27096
811.441	27408
811.582	27070
811.724	27081
811.865	26933
812.007	27017
812.148	26921
812.29	27036
812.431	27081
812.573	27306
812.714	27397
812.855	27291
812.997	27580
813.138	27747
813.279	27603
813.421	27469
813.562	27492
813.703	27355
813.845	27218
813.986	26982
814.127	26716
814.268	26648
814.41	26697
814.551	26701
814.692	26739
814.833	26659
814.974	26708
815.115	26758
815.256	26480
815.397	26590
815.539	26453
815.68	26461
815.821	26389
815.962	26488
816.103	26415
816.244	26305
816.385	26214
816.526	26202
816.666	25906
816.807	25833
816.948	25963
817.089	26008
817.23	25963
817.371	26020
817.512	25951
817.653	25795
817.793	25856
817.934	25898
818.075	25928
818.216	25769
818.356	25826
818.497	25772
818.638	25742
818.778	25639
818.919	25700
819.06	25651
819.2	25791
819.341	25852
819.481	25852
819.622	25955
819.762	26267
819.903	26229
820.043	26126
820.184	25940
820.324	25909
820.465	25986
820.605	26012
820.746	25970
820.886	25795
821.026	26008
821.167	25909
821.307	25970
821.447	25849
821.588	25803
821.728	25662
821.868	25609
822.008	25392
822.149	25487
822.289	25403
822.429	25194
822.569	24977
822.709	25008
822.849	24863
822.99	24863
823.13	24757
823.27	24726
823.41	24768
823.55	24547
823.69	24642
823.83	24707
823.97	24574
824.11	24509
824.25	24513
824.389	24494
824.529	24620
824.669	24532
824.809	24589
824.949	24574
825.089	24585
825.228	24612
825.368	24410
825.508	24418
825.648	24270
825.787	24471
825.927	24388
826.067	24235
826.206	24441
826.346	24403
826.485	24380
826.625	24418
826.765	24460
826.904	24372
827.044	24201
827.183	24148
827.323	24011
827.462	24148
827.601	24068
827.741	24133
827.88	24121
828.02	23786
828.159	23973
828.298	24072
828.437	24114
828.577	24064
828.716	24133
828.855	24011
828.994	23828
829.134	23840
829.273	23908
829.412	23687
829.551	23585
829.69	23786
829.829	23752
829.968	23741
830.107	23863
830.246	23809
830.385	23748
830.524	23520
830.663	23543
830.802	23589
830.941	23288
831.08	23288
831.219	23623
831.357	23425
831.496	23615
831.635	23353
831.774	23315
831.913	23326
832.051	23193
832.19	23102
832.329	23235
832.467	23075
832.606	22949
832.744	22908
832.883	23022
833.022	23048
833.16	23098
833.299	23037
833.437	23044
833.576	23242
833.714	23258
833.852	23090
833.991	23246
834.129	23200
834.267	23113
834.406	23140
834.544	23204
834.682	23185
834.821	23056
834.959	23204
835.097	23083
835.235	23090
835.373	23136
835.511	23094
835.65	22984
835.788	22896
835.926	22820
836.064	22755
836.202	22767
836.34	22938
836.478	23071
836.615	22892
836.753	23056
836.891	23048
837.029	22965
837.167	22831
837.305	22824
837.443	22824
837.58	22733
837.718	22896
837.856	22744
837.993	22717
838.131	22736
838.269	22698
838.406	22626
838.544	22535
838.681	22493
838.819	22341
838.956	22284
839.094	22284
839.231	22314
839.369	22402
839.506	22664
839.643	22485
839.781	22223
839.918	22185
840.055	22295
840.193	22257
840.33	22188
840.467	22021
840.604	22188
840.742	22504
840.879	22036
841.016	22185
841.153	22070
841.29	22284
841.427	22109
841.564	22131
841.701	22112
841.838	22112
841.975	22055
842.112	22086
842.249	22112
842.385	21972
842.522	22150
842.659	22090
842.796	21930
842.933	22048
843.069	21838
843.206	21884
843.343	22120
843.479	21941
843.616	21899
843.752	21827
843.889	21713
844.025	21793
844.162	21652
844.298	21873
844.435	21690
844.571	21762
844.708	21705
844.844	21751
844.98	21911
845.117	21812
845.253	21648
845.389	21652
845.525	21610
845.661	21614
845.798	21500
845.934	21492
846.07	21431
846.206	21542
846.342	21534
846.478	21359
846.614	21393
846.75	21131
846.886	21142
847.022	21306
847.158	21252
847.294	21173
847.429	21150
847.565	21077
847.701	21481
847.837	20895
847.972	20929
848.108	21070
848.244	21142
848.379	20849
848.515	20754
848.65	20773
848.786	20796
848.921	20746
849.057	20868
849.192	21013
849.328	20811
849.463	20773
849.598	20731
849.734	20705
849.869	20651
850.004	20514
850.14	20678
850.275	20568
850.41	20499
850.545	20412
850.68	20507
850.815	20667
850.95	20511
851.085	20659
851.22	20659
851.355	20476
851.49	20564
851.625	20598
851.76	20488
851.895	20511
852.03	20560
852.165	20454
852.299	20606
852.434	20678
852.569	20606
852.703	20568
852.838	20526
852.973	20651
853.107	20686
853.242	20568
853.376	20507
853.511	20320
853.645	20221
853.78	20530
853.914	20454
854.048	20362
854.183	20351
854.317	20526
854.451	20575
854.585	20446
854.72	20393
854.854	20415
854.988	20332
855.122	20351
855.256	20282
855.39	20358
855.524	20438
855.658	20355
855.792	20423
855.926	20476
856.06	20438
856.194	20400
856.327	20336
856.461	20309
856.595	20374
856.729	20328
856.862	20552
856.996	20450
857.13	20415
857.263	20488
857.397	20503
857.53	20374
857.664	20381
857.797	20408
857.931	20427
858.064	20370
858.197	20594
858.331	20396
858.464	20389
858.597	20244
858.731	20358
858.864	20278
858.997	20320
859.13	20320
859.263	20324
859.396	20488
859.529	20408
859.662	20259
859.795	20271
859.928	20336
860.061	20480
860.194	20609
860.327	20404
860.46	20328
860.592	20431
860.725	20507
860.858	20507
860.99	20541
861.123	20237
861.256	20256
861.388	20457
861.521	20982
861.653	20282
861.786	20187
861.918	20229
862.05	20218
862.183	20256
862.315	20499
862.447	20419
862.58	20355
862.712	20088
862.844	20031
862.976	20332
863.108	20180
863.24	20533
863.372	20107
863.504	20096
863.636	20069
863.768	20149
863.9	20035
864.032	19883
864.164	20016
864.296	20149
864.428	20180
864.559	20134
864.691	20100
864.823	20210
864.954	20149
865.086	20077
865.217	20016
865.349	19997
865.48	20122
865.612	19978
865.743	20115
865.875	19936
866.006	20031
866.137	20046
866.269	20077
866.4	20020
866.531	19928
866.662	20020
866.793	19913
866.924	19860
867.055	20024
867.186	19959
867.317	19932
867.448	19906
867.579	19890
867.71	19921
867.841	19826
867.972	19928
868.103	19906
868.233	19989
868.364	20039
868.495	20005
868.625	20202
868.756	20282
868.886	20084
869.017	20263
869.147	20282
869.278	20305
869.408	20275
869.539	20183
869.669	20153
869.799	20271
869.929	20343
870.06	20385
870.19	20370
870.32	20415
870.45	20667
870.58	20568
870.71	20625
870.84	20667
870.97	20613
871.1	20560
871.23	20701
871.36	20735
871.489	20750
871.619	20765
871.749	20636
871.879	20826
872.008	20834
872.138	20716
872.267	20712
872.397	20697
872.526	20731
872.656	20587
872.785	20568
872.915	20689
873.044	20933
873.173	20838
873.303	20861
873.432	20811
873.561	20796
873.69	20716
873.819	20788
873.948	20849
874.077	20777
874.206	20758
874.335	20823
874.464	20861
874.593	20994
874.722	20975
874.851	21051
874.979	21127
875.108	21112
875.237	21043
875.365	20986
875.494	21036
875.623	21070
875.751	21009
875.88	21093
876.008	20960
876.136	21348
876.265	21534
876.393	21511
876.521	21477
876.65	21507
876.778	21393
876.906	21538
877.034	21298
877.162	21397
877.29	21382
877.418	21340
877.546	21382
877.674	21382
877.802	21359
877.93	21408
878.058	21408
878.185	21283
878.313	21321
878.441	21374
878.568	21096
878.696	21416
878.824	21428
878.951	21553
879.079	21576
879.206	21652
879.333	21507
879.461	21386
879.588	21473
879.715	21519
879.842	21823
879.97	21329
880.097	21180
880.224	21233
880.351	21378
880.478	21279
880.605	21089
880.732	21287
880.859	21378
880.986	21279
881.112	21249
881.239	21070
881.366	21161
881.493	20883
881.619	20754
881.746	20838
881.872	20902
881.999	20765
882.125	20667
882.252	20724
882.378	20800
882.505	20941
882.631	20792
882.757	20488
882.883	20606
883.01	20587
883.136	20503
883.262	20362
883.388	20404
883.514	20484
883.64	20579
883.766	20408
883.892	20377
884.018	20298
884.143	20419
884.269	20609
884.395	20252
884.52	20244
884.646	20267
884.772	20069
884.897	20187
885.023	20096
885.148	20244
885.274	20362
885.399	20393
885.524	20054
885.65	20263
885.775	20309
885.9	20153
886.025	20362
886.15	20240
886.275	20058
886.4	20206
886.525	20142
886.65	20027
886.775	20149
886.9	20358
887.025	20351
887.149	20130
887.274	19940
887.399	19890
887.523	20001
887.648	19845
887.773	19944
887.897	20111
888.021	20142
888.146	19837
888.27	20096
888.395	20077
888.519	19970
888.643	20077
888.767	20062
888.891	19932
889.015	19715
889.139	19852
889.263	19906
889.387	19742
889.511	20005
889.635	19936
889.759	19765
889.883	19845
890.006	19765
890.13	19898
890.254	19674
890.377	19677
890.501	19460
890.624	19502
890.748	19502
890.871	19419
890.995	19301
891.118	19274
891.241	19441
891.364	19430
891.488	19514
891.611	19350
891.734	19316
891.857	19346
891.98	19350
892.103	19369
892.226	19339
892.349	19331
892.471	19183
892.594	19236
892.717	19270
892.839	19217
892.962	19304
893.085	19346
893.207	19187
893.33	19209
893.452	19221
893.575	19301
893.697	19251
893.819	19415
893.941	19453
894.064	19491
894.186	19164
894.308	19225
894.43	19426
894.552	19457
894.674	19525
894.796	19118
894.918	19187
895.04	19145
895.161	19301
895.283	19308
895.405	19285
895.526	19327
895.648	19198
895.769	19232
895.891	19331
896.012	19392
896.134	19392
896.255	19282
896.376	19289
896.498	19369
896.619	19350
896.74	19308
896.861	19266
896.982	19616
897.103	19670
897.224	19525
897.345	19521
897.466	19502
897.587	19601
897.708	19696
897.828	19563
897.949	19544
898.07	19388
898.19	19483
898.311	19575
898.431	19426
898.552	19544
898.672	19677
898.792	19655
898.913	19499
899.033	19384
899.153	19339
899.273	19308
899.393	19358
899.513	19400
899.633	19285
899.753	19327
899.873	19316
899.993	19308
900.113	19304
900.232	19240
900.352	19274
900.472	19168
900.591	19114
900.711	19076
900.83	19057
900.95	19107
901.069	19171
901.189	18890
901.308	18760
901.427	18650
901.546	18745
901.665	18707
901.784	18791
901.904	18566
902.023	18498
902.141	18338
902.26	18243
902.379	18311
902.498	18220
902.617	18216
902.735	18232
902.854	18171
902.973	18148
903.091	17821
903.21	17878
903.328	17912
903.446	17783
903.565	17707
903.683	17672
903.801	17433
903.919	17566
904.038	17668
904.156	17463
904.274	17585
904.392	17383
904.51	17516
904.627	17497
904.745	17539
904.863	17429
904.981	17242
905.098	17098
905.216	17220
905.334	17159
905.451	17094
905.569	17086
905.686	17147
905.803	17067
905.921	16896
906.038	16991
906.155	17041
906.272	16866
906.389	16790
906.506	16675
906.623	16611
906.74	16622
906.857	16660
906.974	16615
907.091	16729
907.208	16786
907.324	16801
907.441	16577
907.557	16363
907.674	16367
907.79	16375
907.907	16344
908.023	16440
908.139	16478
908.256	16367
908.372	16287
908.488	16261
908.604	16169
908.72	16029
908.836	16169
908.952	16093
909.068	16230
909.184	16234
909.3	16219
909.415	16242
909.531	16074
909.647	15861
909.762	15930
909.878	15842
909.993	15846
910.108	15770
910.224	15823
910.339	15781
910.454	15644
910.57	15557
910.685	15564
910.8	15873
910.915	15827
911.03	15671
911.145	15481
911.259	15458
911.374	15481
911.489	15443
911.604	15367
911.718	15199
911.833	15275
911.947	15051
912.062	15028
912.176	15241
912.291	15241
912.405	15245
912.519	15351
912.633	15359
912.748	15218
912.862	15146
912.976	14941
913.09	14921
913.204	15009
913.318	15013
913.431	15108
913.545	15097
913.659	15135
913.772	15005
913.886	14845
914	14826
914.113	14986
914.226	14910
914.34	14914
914.453	14758
914.566	14849
914.68	14674
914.793	14682
914.906	14579
915.019	14419
915.132	14393
915.245	14427
915.358	14511
915.47	14370
915.583	14431
915.696	14518
915.809	14552
915.921	14598
916.034	14377
916.146	14263
916.259	14301
916.371	14454
916.483	14450
916.595	14290
916.708	14298
916.82	14336
916.932	14324
917.044	14225
917.156	14199
917.268	14119
917.38	14191
917.491	14111
917.603	14172
917.715	14221
917.826	14221
917.938	14107
918.049	13887
918.161	14035
918.272	14199
918.384	14180
918.495	14077
918.606	13947
918.717	13917
918.828	13909
918.939	13970
919.05	13837
919.161	13951
919.272	13734
919.383	13799
919.494	13940
919.604	14077
919.715	13856
919.826	13822
919.936	13890
920.047	14031
920.157	13849
920.267	14065
920.378	13959
920.488	13791
920.598	13997
920.708	14123
920.818	14081
920.928	13997
921.038	14157
921.148	14069
921.258	13833
921.368	13662
921.477	13723
921.587	13693
921.697	13518
921.806	13620
921.916	13441
922.025	13331
922.134	13293
922.244	13320
922.353	13377
922.462	13263
922.571	13107
922.68	12928
922.789	12882
922.898	13000
923.007	12966
923.116	12954
923.224	12989
923.333	12848
923.442	12810
923.55	12783
923.659	12802
923.767	12779
923.876	12825
923.984	12814
924.092	12711
924.201	12776
924.309	12749
924.417	12688
924.525	12696
924.633	12547
924.741	13403
924.849	12410
924.956	12559
925.064	12350
925.172	12350
925.279	12334
925.387	12391
925.494	12330
925.602	12471
925.709	12483
925.816	12300
925.924	12384
926.031	12422
926.138	12422
926.245	12391
926.352	12277
926.459	12384
926.566	12452
926.673	12277
926.779	12178
926.886	12136
926.993	12060
927.099	11980
927.206	11950
927.312	11901
927.419	11965
927.525	11942
927.631	11954
927.737	11760
927.843	11794
927.95	11707
928.056	11805
928.162	11813
928.267	11912
928.373	12471
928.479	11916
928.585	11611
928.69	11748
928.796	11680
928.901	11767
929.007	11486
929.112	11726
929.218	11657
929.323	11520
929.428	11520
929.533	11653
929.638	11497
929.743	11493
929.848	11562
929.953	11509
930.058	11376
930.163	11254
930.267	11296
930.372	11292
930.477	11250
930.581	11474
930.685	11330
930.79	11166
930.894	11166
930.998	11079
931.103	11254
931.207	10862
931.311	10801
931.415	10771
931.519	10485
931.623	10485
