Data from test_V78500241_1963.txt Node
Date: Fri Mar 25 15:23:31 CST 2022
User: usil
Spectrometer: V785-0024
Trigger mode: 0
Integration Time (sec): 4.000000E-1
Scans to average: 1
Nonlinearity correction enabled: false
Boxcar width: 0
Storing dark spectrum: false
XAxis mode: Wavelengths
Number of Pixels in Spectrum: 1024
>>>>>Begin Spectral Data<<<<<
801.071	27934
801.214	27648
801.356	27549
801.499	27458
801.641	27427
801.783	27351
801.926	27336
802.068	27340
802.211	27275
802.353	27180
802.496	27100
802.638	26906
802.78	27001
802.923	26830
803.065	26868
803.208	26853
803.35	27017
803.492	27074
803.635	27157
803.777	27226
803.919	27169
804.061	27530
804.204	27264
804.346	27081
804.488	27192
804.63	27173
804.773	26975
804.915	27233
805.057	27412
805.199	27268
805.341	27233
805.483	27332
805.626	27321
805.768	27211
805.91	27416
806.052	27344
806.194	27275
806.336	27538
806.478	27317
806.62	27264
806.762	27405
806.904	27427
807.046	27911
807.188	27603
807.33	27816
807.472	27675
807.614	27656
807.756	27629
807.898	27515
808.04	27614
808.182	27542
808.324	27610
808.465	27599
808.607	27701
808.749	27884
808.891	28021
809.033	28112
809.174	28006
809.316	27914
809.458	27983
809.6	27991
809.741	28112
809.883	28070
810.025	28234
810.166	28306
810.308	28116
810.45	28223
810.591	27998
810.733	27960
810.875	27880
811.016	27774
811.158	27759
811.299	27934
811.441	27899
811.582	27930
811.724	27865
811.865	27926
812.007	27888
812.148	27739
812.29	27903
812.431	28006
812.573	28246
812.714	28207
812.855	28337
812.997	28375
813.138	28474
813.279	28428
813.421	28409
813.562	28432
813.703	28131
813.845	28063
813.986	27911
814.127	27701
814.268	27675
814.41	27561
814.551	27431
814.692	27671
814.833	27481
814.974	27576
815.115	27538
815.256	27523
815.397	27420
815.539	27477
815.68	27355
815.821	27302
815.962	27249
816.103	27367
816.244	27214
816.385	27188
816.526	27268
816.666	27055
816.807	26777
816.948	26785
817.089	26876
817.23	26929
817.371	26804
817.512	26811
817.653	26857
817.793	26883
817.934	26838
818.075	26864
818.216	26899
818.356	26777
818.497	26720
818.638	26629
818.778	26644
818.919	26613
819.06	26598
819.2	26746
819.341	26785
819.481	26906
819.622	26982
819.762	27245
819.903	27081
820.043	27051
820.184	27009
820.324	26998
820.465	27199
820.605	26940
820.746	26872
820.886	26796
821.026	26937
821.167	26883
821.307	27036
821.447	26739
821.588	26823
821.728	26670
821.868	26473
822.008	26370
822.149	26313
822.289	26389
822.429	26027
822.569	26096
822.709	26050
822.849	25898
822.99	25864
823.13	25883
823.27	25776
823.41	25639
823.55	25601
823.69	25689
823.83	25575
823.97	25655
824.11	25354
824.25	25449
824.389	25491
824.529	25518
824.669	25358
824.809	25521
824.949	25525
825.089	25624
825.228	25590
825.368	25225
825.508	25350
825.648	25384
825.787	25327
825.927	25365
826.067	25316
826.206	25327
826.346	25472
826.485	25346
826.625	25381
826.765	25434
826.904	25426
827.044	25118
827.183	25057
827.323	25175
827.462	25110
827.601	25148
827.741	25038
827.88	25015
828.02	24909
828.159	24981
828.298	25091
828.437	25251
828.577	25046
828.716	25050
828.855	25012
828.994	24837
829.134	24814
829.273	24817
829.412	24696
829.551	24631
829.69	24791
829.829	24798
829.968	24856
830.107	24890
830.246	24669
830.385	24642
830.524	24707
830.663	24544
830.802	24490
830.941	24380
831.08	24426
831.219	24448
831.357	24429
831.496	24604
831.635	24296
831.774	24342
831.913	24308
832.051	24243
832.19	24182
832.329	24213
832.467	24076
832.606	23973
832.744	23954
832.883	24011
833.022	23897
833.16	24068
833.299	23927
833.437	24087
833.576	24015
833.714	24171
833.852	24041
833.991	24125
834.129	24174
834.267	24159
834.406	24121
834.544	24262
834.682	24152
834.821	24148
834.959	24258
835.097	24076
835.235	24228
835.373	24102
835.511	24026
835.65	24064
835.788	23908
835.926	23805
836.064	23764
836.202	23901
836.34	23942
836.478	24091
836.615	23946
836.753	23824
836.891	23992
837.029	24049
837.167	23832
837.305	23855
837.443	23813
837.58	23737
837.718	23824
837.856	23927
837.993	23745
838.131	23783
838.269	23630
838.406	23665
838.544	23566
838.681	23440
838.819	23535
838.956	23303
839.094	23311
839.231	23254
839.369	23528
839.506	23687
839.643	23459
839.781	23341
839.918	23288
840.055	23265
840.193	23303
840.33	23204
840.467	23200
840.604	23052
840.742	23448
840.879	23204
841.016	23151
841.153	23033
841.29	23239
841.427	23079
841.564	23318
841.701	23170
841.838	23121
841.975	23136
842.112	23136
842.249	23033
842.385	22835
842.522	23136
842.659	22892
842.796	22904
842.933	22889
843.069	22797
843.206	22942
843.343	22995
843.479	23052
843.616	22953
843.752	22748
843.889	22672
844.025	22927
844.162	22790
844.298	22790
844.435	22698
844.571	22763
844.708	22774
844.844	22740
844.98	22927
845.117	22733
845.253	22664
845.389	22717
845.525	22523
845.661	22557
845.798	22474
845.934	22402
846.07	22318
846.206	22592
846.342	22489
846.478	22367
846.614	22303
846.75	22185
846.886	22169
847.022	22261
847.158	22306
847.294	22200
847.429	22192
847.565	22192
847.701	22402
847.837	21880
847.972	21884
848.108	22044
848.244	22063
848.379	21857
848.515	21793
848.65	21675
848.786	21869
848.921	21728
849.057	21911
849.192	21778
849.328	21736
849.463	21728
849.598	21892
849.734	21690
849.869	21671
850.004	21572
850.14	21587
850.275	21599
850.41	21428
850.545	21443
850.68	21614
850.815	21656
850.95	21542
851.085	21618
851.22	21622
851.355	21545
851.49	21485
851.625	21542
851.76	21504
851.895	21428
852.03	21500
852.165	21568
852.299	21614
852.434	21682
852.569	21576
852.703	21641
852.838	21667
852.973	21591
853.107	21686
853.242	21435
853.376	21428
853.511	21298
853.645	21302
853.78	21496
853.914	21283
854.048	21302
854.183	21363
854.317	21408
854.451	21637
854.585	21367
854.72	21359
854.854	21389
854.988	21294
855.122	21370
855.256	21237
855.39	21332
855.524	21306
855.658	21382
855.792	21382
855.926	21367
856.06	21344
856.194	21435
856.327	21355
856.461	21389
856.595	21252
856.729	21355
856.862	21378
856.996	21336
857.13	21424
857.263	21477
857.397	21428
857.53	21348
857.664	21382
857.797	21523
857.931	21545
858.064	21378
858.197	21435
858.331	21329
858.464	21283
858.597	21165
858.731	21279
858.864	21260
858.997	21412
859.13	21325
859.263	21306
859.396	21397
859.529	21397
859.662	21321
859.795	21428
859.928	21359
860.061	21386
860.194	21595
860.327	21393
860.46	21374
860.592	21382
860.725	21534
860.858	21443
860.99	21351
861.123	21192
861.256	21317
861.388	21355
861.521	22067
861.653	21272
861.786	21184
861.918	21195
862.05	21272
862.183	21313
862.315	21291
862.447	21302
862.58	21268
862.712	21112
862.844	20975
862.976	21237
863.108	21127
863.24	21530
863.372	21108
863.504	20937
863.636	20956
863.768	21047
863.9	21077
864.032	21165
864.164	21009
864.296	21093
864.428	21116
864.559	21260
864.691	21051
864.823	21127
864.954	21036
865.086	21058
865.217	20960
865.349	20838
865.48	20921
865.612	21058
865.743	21096
865.875	20956
866.006	20998
866.137	20891
866.269	20910
866.4	20937
866.531	20918
866.662	20853
866.793	20891
866.924	20963
867.055	20952
867.186	20963
867.317	20811
867.448	20838
867.579	20876
867.71	20925
867.841	20838
867.972	20914
868.103	20960
868.233	20788
868.364	20960
868.495	21039
868.625	21150
868.756	21203
868.886	21104
869.017	21173
869.147	21218
869.278	21218
869.408	21100
869.539	21112
869.669	21264
869.799	21214
869.929	21348
870.06	21306
870.19	21313
870.32	21397
870.45	21511
870.58	21526
870.71	21633
870.84	21492
870.97	21485
871.1	21637
871.23	21656
871.36	21648
871.489	21656
871.619	21690
871.749	21736
871.879	21797
872.008	21846
872.138	21778
872.267	21667
872.397	21595
872.526	21492
872.656	21789
872.785	21599
872.915	21774
873.044	21903
873.173	21888
873.303	21785
873.432	21667
873.561	21842
873.69	21793
873.819	21739
873.948	21732
874.077	21705
874.206	21629
874.335	21736
874.464	21907
874.593	21960
874.722	21949
874.851	22032
874.979	22010
875.108	22002
875.237	21911
875.365	21865
875.494	22063
875.623	22032
875.751	21987
875.88	21876
876.008	22158
876.136	22185
876.265	22333
876.393	22455
876.521	22462
876.65	22402
876.778	22405
876.906	22303
877.034	22356
877.162	22238
877.29	22310
877.418	22413
877.546	22249
877.674	22303
877.802	22356
877.93	22447
878.058	22253
878.185	22207
878.313	22169
878.441	22352
878.568	22112
878.696	22318
878.824	22223
878.951	22409
879.079	22554
879.206	22584
879.333	22424
879.461	22424
879.588	22398
879.715	22519
879.842	22615
879.97	22329
880.097	22063
880.224	22166
880.351	22078
880.478	22249
880.605	22013
880.732	22188
880.859	22352
880.986	22207
881.112	22150
881.239	22078
881.366	21812
881.493	21880
881.619	21880
881.746	21789
881.872	21705
881.999	21785
882.125	21694
882.252	21747
882.378	21671
882.505	21804
882.631	21591
882.757	21511
882.883	21481
883.01	21332
883.136	21500
883.262	21340
883.388	21192
883.514	21382
883.64	21519
883.766	21176
883.892	21211
884.018	21245
884.143	21416
884.269	21473
884.395	21222
884.52	20960
884.646	21081
884.772	21123
884.897	20925
885.023	21066
885.148	21157
885.274	21161
885.399	21096
885.524	21028
885.65	21043
885.775	21135
885.9	21070
886.025	21039
886.15	21047
886.275	21058
886.4	20944
886.525	21039
886.65	21093
886.775	20929
886.9	21112
887.025	21211
887.149	20937
887.274	20838
887.399	20853
887.523	20845
887.648	20899
887.773	20629
887.897	20823
888.021	20819
888.146	20708
888.27	21017
888.395	20891
888.519	20796
888.643	20842
888.767	20937
888.891	20670
889.015	20697
889.139	20629
889.263	20568
889.387	20716
889.511	20849
889.635	20804
889.759	20697
889.883	20674
890.006	20518
890.13	20746
890.254	20629
890.377	20461
890.501	20473
890.624	20374
890.748	20499
890.871	20256
890.995	20248
891.118	20237
891.241	20214
891.364	20172
891.488	20324
891.611	20134
891.734	20157
891.857	20317
891.98	20183
892.103	20187
892.226	20168
892.349	20233
892.471	19955
892.594	19997
892.717	20088
892.839	20046
892.962	20103
893.085	20172
893.207	20062
893.33	20035
893.452	19993
893.575	19997
893.697	20073
893.819	20286
893.941	20233
894.064	20240
894.186	19986
894.308	19967
894.43	20069
894.552	20259
894.674	20069
894.796	19925
894.918	20058
895.04	20020
895.161	20145
895.283	20092
895.405	20043
895.526	20122
895.648	20134
895.769	20176
895.891	20130
896.012	20077
896.134	20088
896.255	20103
896.376	20111
896.498	20096
896.619	20145
896.74	19944
896.861	20100
896.982	20313
897.103	20511
897.224	20415
897.345	20347
897.466	20278
897.587	20244
897.708	20461
897.828	20419
897.949	20336
898.07	20107
898.19	20256
898.311	20503
898.431	20267
898.552	20286
898.672	20374
898.792	20355
898.913	20339
899.033	20202
899.153	20065
899.273	19974
899.393	20153
899.513	20134
899.633	20168
899.753	19993
899.873	20077
899.993	20088
900.113	20001
900.232	20043
900.352	19921
900.472	19837
900.591	19830
900.711	19940
900.83	19814
900.95	19871
901.069	19852
901.189	19731
901.308	19480
901.427	19449
901.546	19407
901.665	19426
901.784	19373
901.904	19358
902.023	19160
902.141	19046
902.26	18920
902.379	18977
902.498	18935
902.617	18913
902.735	18989
902.854	18920
902.973	18840
903.091	18566
903.21	18563
903.328	18528
903.446	18540
903.565	18315
903.683	18403
903.801	18327
903.919	18350
904.038	18426
904.156	18235
904.274	18224
904.392	18117
904.51	18114
904.627	18133
904.745	18152
904.863	18315
904.981	18072
905.098	17813
905.216	17859
905.334	17836
905.451	17859
905.569	17783
905.686	17912
905.803	17863
905.921	17642
906.038	17786
906.155	17665
906.272	17558
906.389	17528
906.506	17444
906.623	17395
906.74	17315
906.857	17288
906.974	17261
907.091	17421
907.208	17608
907.324	17379
907.441	17318
907.557	17212
907.674	17083
907.79	17014
907.907	17140
908.023	17151
908.139	17094
908.256	17014
908.372	16946
908.488	16957
908.604	16877
908.72	16877
908.836	16885
908.952	16839
909.068	16934
909.184	16942
909.3	16778
909.415	16809
909.531	16816
909.647	16561
909.762	16493
909.878	16626
909.993	16584
910.108	16360
910.224	16447
910.339	16519
910.454	16299
910.57	16348
910.685	16268
910.8	16516
910.915	16432
911.03	16325
911.145	16280
911.259	16173
911.374	16082
911.489	15975
911.604	15975
911.718	15922
911.833	15819
911.947	15724
912.062	15759
912.176	15865
912.291	15747
912.405	15812
912.519	16032
912.633	16048
912.748	15903
912.862	15850
912.976	15656
913.09	15671
913.204	15587
913.318	15663
913.431	15732
913.545	15770
913.659	15686
913.772	15652
913.886	15545
914	15469
914.113	15606
914.226	15523
914.34	15534
914.453	15359
914.566	15428
914.68	15424
914.793	15389
914.906	15085
915.019	15039
915.132	14990
915.245	14990
915.358	15100
915.47	15036
915.583	15043
915.696	15066
915.809	15127
915.921	15237
916.034	15062
916.146	14967
916.259	14933
916.371	15062
916.483	14963
916.595	14857
916.708	14933
916.82	14963
916.932	14857
917.044	14952
917.156	14849
917.268	14796
917.38	14853
917.491	14811
917.603	14659
917.715	14815
917.826	14811
917.938	14636
918.049	14556
918.161	14686
918.272	14815
918.384	14834
918.495	14777
918.606	14461
918.717	14370
918.828	14568
918.939	14514
919.05	14366
919.161	14423
919.272	14366
919.383	14244
919.494	14446
919.604	14705
919.715	14560
919.826	14374
919.936	14408
920.047	14606
920.157	14469
920.267	14579
920.378	14465
920.488	14358
920.598	14655
920.708	14762
920.818	14735
920.928	14663
921.038	14792
921.148	14644
921.258	14358
921.368	14339
921.477	14218
921.587	14176
921.697	13963
921.806	14252
921.916	14031
922.025	13894
922.134	13902
922.244	13833
922.353	13833
922.462	13700
922.571	13613
922.68	13487
922.789	13445
922.898	13502
923.007	13449
923.116	13533
923.224	13426
923.333	13464
923.442	13354
923.55	13320
923.659	13377
923.767	13335
923.876	13274
923.984	13304
924.092	13274
924.201	13316
924.309	13225
924.417	13114
924.525	13107
924.633	13198
924.741	13940
924.849	12958
924.956	13183
925.064	12951
925.172	12844
925.279	12833
925.387	12954
925.494	12840
925.602	12954
925.709	12932
925.816	12909
925.924	12852
926.031	12909
926.138	12798
926.245	12890
926.352	12795
926.459	12871
926.566	12947
926.673	12749
926.779	12646
926.886	12551
926.993	12574
927.099	12414
927.206	12414
927.312	12388
927.419	12471
927.525	12498
927.631	12452
927.737	12353
927.843	12296
927.95	12159
928.056	12292
928.162	12270
928.267	12311
928.373	12821
928.479	12388
928.585	12083
928.69	12277
928.796	12232
928.901	12087
929.007	12106
929.112	12209
929.218	12076
929.323	12079
929.428	11939
929.533	12114
929.638	11920
929.743	11965
929.848	11980
929.953	11999
930.058	11840
930.163	11733
930.267	11733
930.372	11878
930.477	11691
930.581	11859
930.685	11771
930.79	11661
930.894	11604
930.998	11585
931.103	11623
931.207	11341
931.311	11212
931.415	11231
931.519	11022
931.623	10904
