Data from test_V78500241_2856.txt Node
Date: Fri Mar 25 15:29:44 CST 2022
User: usil
Spectrometer: V785-0024
Trigger mode: 0
Integration Time (sec): 4.000000E-1
Scans to average: 1
Nonlinearity correction enabled: false
Boxcar width: 0
Storing dark spectrum: false
XAxis mode: Wavelengths
Number of Pixels in Spectrum: 1024
>>>>>Begin Spectral Data<<<<<
801.071	27135
801.214	27055
801.356	26906
801.499	26815
801.641	26720
801.783	26602
801.926	26648
802.068	26644
802.211	26511
802.353	26453
802.496	26256
802.638	26351
802.78	26351
802.923	26202
803.065	26142
803.208	26214
803.35	26263
803.492	26385
803.635	26473
803.777	26328
803.919	26317
804.061	26811
804.204	26579
804.346	26385
804.488	26381
804.63	26587
804.773	26324
804.915	26412
805.057	26545
805.199	26484
805.341	26556
805.483	26450
805.626	26507
805.768	26431
805.91	26511
806.052	26724
806.194	26507
806.336	26617
806.478	26518
806.62	26533
806.762	26556
806.904	26804
807.046	26975
807.188	27009
807.33	27100
807.472	27013
807.614	26925
807.756	26925
807.898	26765
808.04	26689
808.182	26800
808.324	26849
808.465	26895
808.607	27055
808.749	27104
808.891	27230
809.033	27188
809.174	27245
809.316	27184
809.458	27154
809.6	27127
809.741	27226
809.883	27332
810.025	27370
810.166	27519
810.308	27466
810.45	27378
810.591	27348
810.733	27214
810.875	27123
811.016	27047
811.158	27005
811.299	27272
811.441	27412
811.582	27450
811.724	27112
811.865	27112
812.007	27241
812.148	26906
812.29	27119
812.431	27283
812.573	27427
812.714	27473
812.855	27564
812.997	27606
813.138	27930
813.279	27720
813.421	27614
813.562	27450
813.703	27386
813.845	27313
813.986	27127
814.127	26906
814.268	26811
814.41	26952
814.551	26689
814.692	26868
814.833	26838
814.974	26667
815.115	26750
815.256	26670
815.397	26739
815.539	26743
815.68	26587
815.821	26545
815.962	26446
816.103	26583
816.244	26381
816.385	26343
816.526	26199
816.666	26138
816.807	26039
816.948	26130
817.089	26092
817.23	25974
817.371	25974
817.512	26069
817.653	26046
817.793	25849
817.934	25986
818.075	25955
818.216	26058
818.356	26062
818.497	25864
818.638	25830
818.778	25685
818.919	25689
819.06	25807
819.2	25989
819.341	26092
819.481	25955
819.622	26233
819.762	26400
819.903	26259
820.043	26183
820.184	26119
820.324	26119
820.465	26138
820.605	26149
820.746	26191
820.886	25887
821.026	26096
821.167	26069
821.307	26153
821.447	26046
821.588	25947
821.728	25849
821.868	25670
822.008	25476
822.149	25468
822.289	25586
822.429	25187
822.569	25137
822.709	25061
822.849	25004
822.99	25012
823.13	24954
823.27	24852
823.41	24795
823.55	24616
823.69	24783
823.83	24684
823.97	24715
824.11	24661
824.25	24612
824.389	24505
824.529	24730
824.669	24502
824.809	24646
824.949	24669
825.089	24688
825.228	24540
825.368	24521
825.508	24380
825.648	24410
825.787	24448
825.927	24559
826.067	24369
826.206	24631
826.346	24517
826.485	24570
826.625	24467
826.765	24601
826.904	24479
827.044	24292
827.183	24232
827.323	24091
827.462	24330
827.601	24174
827.741	24163
827.88	24121
828.02	24034
828.159	24091
828.298	24152
828.437	24235
828.577	24171
828.716	24186
828.855	24114
828.994	23889
829.134	23996
829.273	23893
829.412	23737
829.551	23805
829.69	23752
829.829	24011
829.968	23885
830.107	23961
830.246	23901
830.385	23710
830.524	23767
830.663	23577
830.802	23668
830.941	23349
831.08	23505
831.219	23714
831.357	23585
831.496	23573
831.635	23528
831.774	23505
831.913	23463
832.051	23200
832.19	23326
832.329	23220
832.467	23105
832.606	23102
832.744	23033
832.883	23178
833.022	22949
833.16	23147
833.299	23178
833.437	23197
833.576	23140
833.714	23311
833.852	23231
833.991	23242
834.129	23246
834.267	23452
834.406	23242
834.544	23254
834.682	23132
834.821	23143
834.959	23345
835.097	23231
835.235	23296
835.373	23098
835.511	23159
835.65	23094
835.788	23086
835.926	22942
836.064	22892
836.202	22923
836.34	23155
836.478	23124
836.615	22919
836.753	23003
836.891	23181
837.029	23064
837.167	22934
837.305	22923
837.443	22904
837.58	22858
837.718	22949
837.856	22980
837.993	22896
838.131	22862
838.269	22653
838.406	22881
838.544	22733
838.681	22596
838.819	22500
838.956	22325
839.094	22424
839.231	22367
839.369	22603
839.506	22786
839.643	22611
839.781	22314
839.918	22352
840.055	22325
840.193	22386
840.33	22238
840.467	22310
840.604	22337
840.742	22656
840.879	22223
841.016	22238
841.153	22147
841.29	22344
841.427	22246
841.564	22280
841.701	22249
841.838	22207
841.975	22154
842.112	22234
842.249	22086
842.385	22017
842.522	22295
842.659	22055
842.796	22040
842.933	21926
843.069	21972
843.206	21994
843.343	22086
843.479	22017
843.616	21956
843.752	21732
843.889	21800
844.025	22002
844.162	21785
844.298	21873
844.435	21793
844.571	21797
844.708	21842
844.844	21968
844.98	21968
845.117	21842
845.253	21812
845.389	21698
845.525	21656
845.661	21686
845.798	21633
845.934	21561
846.07	21526
846.206	21538
846.342	21648
846.478	21515
846.614	21359
846.75	21222
846.886	21325
847.022	21325
847.158	21272
847.294	21283
847.429	21378
847.565	21249
847.701	21393
847.837	21077
847.972	21005
848.108	21199
848.244	21112
848.379	20967
848.515	20834
848.65	20823
848.786	20902
848.921	20864
849.057	21028
849.192	20887
849.328	20830
849.463	20914
849.598	20925
849.734	20716
849.869	20781
850.004	20579
850.14	20670
850.275	20636
850.41	20590
850.545	20602
850.68	20644
850.815	20632
850.95	20667
851.085	20758
851.22	20746
851.355	20613
851.49	20655
851.625	20648
851.76	20499
851.895	20617
852.03	20590
852.165	20655
852.299	20785
852.434	20712
852.569	20670
852.703	20689
852.838	20598
852.973	20727
853.107	20727
853.242	20545
853.376	20530
853.511	20400
853.645	20343
853.78	20541
853.914	20454
854.048	20461
854.183	20381
854.317	20412
854.451	20632
854.585	20465
854.72	20530
854.854	20511
854.988	20454
855.122	20507
855.256	20404
855.39	20492
855.524	20514
855.658	20556
855.792	20598
855.926	20522
856.06	20530
856.194	20598
856.327	20518
856.461	20446
856.595	20419
856.729	20438
856.862	20537
856.996	20530
857.13	20442
857.263	20556
857.397	20552
857.53	20476
857.664	20503
857.797	20625
857.931	20617
858.064	20473
858.197	20488
858.331	20533
858.464	20408
858.597	20339
858.731	20499
858.864	20503
858.997	20480
859.13	20431
859.263	20511
859.396	20507
859.529	20427
859.662	20431
859.795	20492
859.928	20457
860.061	20575
860.194	20655
860.327	20461
860.46	20511
860.592	20537
860.725	20613
860.858	20712
860.99	20400
861.123	20408
861.256	20252
861.388	20393
861.521	21142
861.653	20271
861.786	20275
861.918	20317
862.05	20248
862.183	20366
862.315	20427
862.447	20537
862.58	20396
862.712	20267
862.844	20301
862.976	20282
863.108	20328
863.24	20667
863.372	20145
863.504	20202
863.636	20218
863.768	20199
863.9	20256
864.032	20016
864.164	20218
864.296	20248
864.428	20248
864.559	20153
864.691	20263
864.823	20252
864.954	20187
865.086	20176
865.217	20024
865.349	20020
865.48	19959
865.612	20100
865.743	20240
865.875	20126
866.006	19940
866.137	20195
866.269	20081
866.4	19921
866.531	20027
866.662	19982
866.793	20172
866.924	20096
867.055	20142
867.186	20043
867.317	20008
867.448	19925
867.579	20001
867.71	19932
867.841	19963
867.972	20111
868.103	20027
868.233	20005
868.364	20001
868.495	20024
868.625	20233
868.756	20256
868.886	20153
869.017	20176
869.147	20343
869.278	20476
869.408	20362
869.539	20301
869.669	20362
869.799	20218
869.929	20495
870.06	20332
870.19	20606
870.32	20560
870.45	20526
870.58	20663
870.71	20853
870.84	20651
870.97	20621
871.1	20739
871.23	20788
871.36	20693
871.489	20785
871.619	20849
871.749	20929
871.879	20861
872.008	20944
872.138	20872
872.267	20769
872.397	20811
872.526	20701
872.656	20689
872.785	20648
872.915	20895
873.044	21001
873.173	20929
873.303	20891
873.432	20933
873.561	20933
873.69	20941
873.819	20788
873.948	20960
874.077	20883
874.206	20842
874.335	20724
874.464	21039
874.593	21127
874.722	21093
874.851	21093
874.979	21116
875.108	21165
875.237	21032
875.365	21150
875.494	21093
875.623	21108
875.751	21138
875.88	21302
876.008	21264
876.136	21287
876.265	21614
876.393	21701
876.521	21641
876.65	21564
876.778	21481
876.906	21439
877.034	21485
877.162	21382
877.29	21447
877.418	21500
877.546	21481
877.674	21519
877.802	21317
877.93	21435
878.058	21469
878.185	21279
878.313	21481
878.441	21462
878.568	21428
878.696	21523
878.824	21408
878.951	21534
879.079	21667
879.206	21656
879.333	21618
879.461	21496
879.588	21557
879.715	21732
879.842	21713
879.97	21526
880.097	21397
880.224	21275
880.351	21374
880.478	21218
880.605	21207
880.732	21291
880.859	21523
880.986	21306
881.112	21249
881.239	21180
881.366	20982
881.493	20948
881.619	20914
881.746	20853
881.872	20906
881.999	20853
882.125	20960
882.252	20918
882.378	20910
882.505	20967
882.631	20743
882.757	20655
882.883	20663
883.01	20644
883.136	20606
883.262	20488
883.388	20415
883.514	20473
883.64	20743
883.766	20526
883.892	20469
884.018	20438
884.143	20663
884.269	20712
884.395	20393
884.52	20172
884.646	20282
884.772	20218
884.897	20039
885.023	20358
885.148	20389
885.274	20446
885.399	20423
885.524	20351
885.65	20324
885.775	20282
885.9	20366
886.025	20389
886.15	20313
886.275	20309
886.4	20206
886.525	20202
886.65	20218
886.775	20248
886.9	20317
887.025	20499
887.149	20294
887.274	20103
887.399	20180
887.523	20035
887.648	20043
887.773	19944
887.897	20103
888.021	20084
888.146	19974
888.27	20088
888.395	20221
888.519	20073
888.643	20065
888.767	20050
888.891	19993
889.015	19883
889.139	20008
889.263	19845
889.387	19959
889.511	19974
889.635	19993
889.759	19837
889.883	19822
890.006	19830
890.13	19955
890.254	19776
890.377	19845
890.501	19731
890.624	19639
890.748	19742
890.871	19533
890.995	19392
891.118	19339
891.241	19487
891.364	19426
891.488	19639
891.611	19483
891.734	19407
891.857	19491
891.98	19464
892.103	19575
892.226	19525
892.349	19411
892.471	19160
892.594	19365
892.717	19445
892.839	19407
892.962	19438
893.085	19354
893.207	19441
893.33	19354
893.452	19316
893.575	19335
893.697	19365
893.819	19518
893.941	19529
894.064	19346
894.186	19415
894.308	19320
894.43	19487
894.552	19563
894.674	19449
894.796	19331
894.918	19354
895.04	19331
895.161	19407
895.283	19384
895.405	19308
895.526	19403
895.648	19327
895.769	19289
895.891	19426
896.012	19468
896.134	19369
896.255	19434
896.376	19350
896.498	19441
896.619	19369
896.74	19434
896.861	19464
896.982	19704
897.103	19795
897.224	19693
897.345	19601
897.466	19548
897.587	19563
897.708	19753
897.828	19601
897.949	19506
898.07	19472
898.19	19582
898.311	19700
898.431	19613
898.552	19613
898.672	19803
898.792	19708
898.913	19719
899.033	19521
899.153	19441
899.273	19316
899.393	19289
899.513	19464
899.633	19339
899.753	19384
899.873	19327
899.993	19419
900.113	19350
900.232	19327
900.352	19304
900.472	19164
900.591	19156
900.711	19217
900.83	19160
900.95	19285
901.069	19255
901.189	19107
901.308	18947
901.427	18722
901.546	18749
901.665	18768
901.784	18821
901.904	18703
902.023	18654
902.141	18384
902.26	18296
902.379	18342
902.498	18300
902.617	18243
902.735	18342
902.854	18334
902.973	18304
903.091	18034
903.21	17999
903.328	18015
903.446	17805
903.565	17745
903.683	17832
903.801	17695
903.919	17824
904.038	17634
904.156	17562
904.274	17714
904.392	17516
904.51	17467
904.627	17554
904.745	17608
904.863	17558
904.981	17280
905.098	17227
905.216	17231
905.334	17246
905.451	17292
905.569	17231
905.686	17239
905.803	17258
905.921	16999
906.038	17079
906.155	17048
906.272	16896
906.389	16885
906.506	16782
906.623	16748
906.74	16675
906.857	16675
906.974	16660
907.091	16835
907.208	16919
907.324	16839
907.441	16691
907.557	16577
907.674	16516
907.79	16455
907.907	16440
908.023	16516
908.139	16523
908.256	16386
908.372	16379
908.488	16268
908.604	16234
908.72	16192
908.836	16211
908.952	16242
909.068	16287
909.184	16257
909.3	16207
909.415	16219
909.531	16173
909.647	15926
909.762	15930
909.878	15838
909.993	15960
910.108	15907
910.224	15918
910.339	15907
910.454	15759
910.57	15732
910.685	15663
910.8	15930
910.915	15827
911.03	15732
911.145	15545
911.259	15458
911.374	15515
911.489	15397
911.604	15428
911.718	15260
911.833	15363
911.947	15256
912.062	15127
912.176	15260
912.291	15310
912.405	15283
912.519	15424
912.633	15477
912.748	15389
912.862	15214
912.976	15123
913.09	14990
913.204	15070
913.318	15233
913.431	15218
913.545	15165
913.659	15169
913.772	15077
913.886	15001
914	14849
914.113	14960
914.226	15055
914.34	14979
914.453	14918
914.566	15005
914.68	14849
914.793	14724
914.906	14636
915.019	14617
915.132	14568
915.245	14533
915.358	14625
915.47	14526
915.583	14552
915.696	14537
915.809	14625
915.921	14705
916.034	14492
916.146	14423
916.259	14450
916.371	14495
916.483	14415
916.595	14434
916.708	14347
916.82	14400
916.932	14282
917.044	14298
917.156	14229
917.268	14187
917.38	14233
917.491	14172
917.603	14210
917.715	14339
917.826	14404
917.938	14130
918.049	14031
918.161	14161
918.272	14271
918.384	14332
918.495	14195
918.606	13986
918.717	13875
918.828	14039
918.939	13989
919.05	13898
919.161	13917
919.272	13814
919.383	13826
919.494	14153
919.604	14187
919.715	13951
919.826	13944
919.936	13951
920.047	14054
920.157	14035
920.267	14084
920.378	14024
920.488	13868
920.598	14077
920.708	14218
920.818	14092
920.928	14145
921.038	14221
921.148	14180
921.258	13970
921.368	13894
921.477	13738
921.587	13693
921.697	13495
921.806	13723
921.916	13533
922.025	13388
922.134	13304
922.244	13354
922.353	13396
922.462	13304
922.571	13198
922.68	13072
922.789	13004
922.898	13053
923.007	12962
923.116	13008
923.224	12996
923.333	12973
923.442	12897
923.55	12810
923.659	12932
923.767	12798
923.876	12833
923.984	12909
924.092	12745
924.201	12798
924.309	12798
924.417	12768
924.525	12738
924.633	12688
924.741	13647
924.849	12506
924.956	12700
925.064	12601
925.172	12448
925.279	12456
925.387	12452
925.494	12433
925.602	12616
925.709	12464
925.816	12361
925.924	12456
926.031	12437
926.138	12403
926.245	12448
926.352	12292
926.459	12540
926.566	12528
926.673	12330
926.779	12186
926.886	12228
926.993	12095
927.099	12068
927.206	12057
927.312	11980
927.419	12064
927.525	12098
927.631	12133
927.737	11969
927.843	11923
927.95	11798
928.056	11859
928.162	11901
928.267	11874
928.373	12528
928.479	11885
928.585	11748
928.69	11745
928.796	11764
928.901	11733
929.007	11611
929.112	11714
929.218	11608
929.323	11570
929.428	11562
929.533	11745
929.638	11547
929.743	11497
929.848	11627
929.953	11558
930.058	11459
930.163	11296
930.267	11277
930.372	11391
930.477	11261
930.581	11539
930.685	11417
930.79	11242
930.894	11216
930.998	11242
931.103	11326
931.207	11037
931.311	10908
931.415	10755
931.519	10580
931.623	10577
