Data from test_V78500241_221.txt Node
Date: Fri Mar 25 15:11:23 CST 2022
User: usil
Spectrometer: V785-0024
Trigger mode: 0
Integration Time (sec): 4.000000E-1
Scans to average: 1
Nonlinearity correction enabled: false
Boxcar width: 0
Storing dark spectrum: false
XAxis mode: Wavelengths
Number of Pixels in Spectrum: 1024
>>>>>Begin Spectral Data<<<<<
801.071	27831
801.214	27694
801.356	27469
801.499	27355
801.641	27557
801.783	27306
801.926	27416
802.068	27275
802.211	27192
802.353	27085
802.496	26902
802.638	26918
802.78	26914
802.923	26727
803.065	26743
803.208	26845
803.35	26800
803.492	26975
803.635	27047
803.777	26834
803.919	27123
804.061	27203
804.204	27089
804.346	26876
804.488	26819
804.63	26921
804.773	26872
804.915	26876
805.057	26967
805.199	26925
805.341	27028
805.483	27043
805.626	27047
805.768	27005
805.91	26990
806.052	27081
806.194	26887
806.336	27150
806.478	27009
806.62	27066
806.762	27275
806.904	27226
807.046	27564
807.188	27553
807.33	27336
807.472	27424
807.614	27351
807.756	27355
807.898	27252
808.04	27161
808.182	27165
808.324	27222
808.465	27226
808.607	27511
808.749	27720
808.891	27705
809.033	27873
809.174	27679
809.316	27652
809.458	27648
809.6	27778
809.741	27713
809.883	27728
810.025	28051
810.166	27816
810.308	27884
810.45	27869
810.591	27728
810.733	27599
810.875	27583
811.016	27462
811.158	27500
811.299	27576
811.441	27587
811.582	27603
811.724	27572
811.865	27507
812.007	27526
812.148	27618
812.29	27523
812.431	27671
812.573	27888
812.714	27880
812.855	28044
812.997	28188
813.138	28162
813.279	28143
813.421	28051
813.562	28021
813.703	27869
813.845	27739
813.986	27450
814.127	27378
814.268	27226
814.41	27310
814.551	27321
814.692	27252
814.833	27017
814.974	27070
815.115	27119
815.256	26982
815.397	26880
815.539	27123
815.68	26979
815.821	26929
815.962	27005
816.103	26940
816.244	26804
816.385	26727
816.526	26632
816.666	26590
816.807	26396
816.948	26404
817.089	26476
817.23	26393
817.371	26415
817.512	26461
817.653	26442
817.793	26366
817.934	26419
818.075	26377
818.216	26400
818.356	26313
818.497	26218
818.638	26043
818.778	26031
818.919	26073
819.06	26191
819.2	26256
819.341	26339
819.481	26233
819.622	26374
819.762	26609
819.903	26514
820.043	26503
820.184	26393
820.324	26450
820.465	26434
820.605	26476
820.746	26328
820.886	26286
821.026	26358
821.167	26415
821.307	26343
821.447	26267
821.588	26119
821.728	26100
821.868	25845
822.008	25753
822.149	25845
822.289	25784
822.429	25696
822.569	25472
822.709	25396
822.849	25194
822.99	25209
823.13	25217
823.27	25270
823.41	25012
823.55	25069
823.69	25000
823.83	25080
823.97	24939
824.11	24810
824.25	24658
824.389	24878
824.529	24958
824.669	24859
824.809	25042
824.949	24935
825.089	25004
825.228	24848
825.368	24715
825.508	24661
825.648	24700
825.787	24692
825.927	24749
826.067	24639
826.206	24555
826.346	24669
826.485	24608
826.625	24711
826.765	24726
826.904	24631
827.044	24483
827.183	24483
827.323	24365
827.462	24388
827.601	24353
827.741	24167
827.88	24388
828.02	24262
828.159	24323
828.298	24418
828.437	24490
828.577	24334
828.716	24452
828.855	24174
828.994	24076
829.134	24057
829.273	24106
829.412	24011
829.551	23999
829.69	24038
829.829	24068
829.968	24178
830.107	24117
830.246	24041
830.385	23889
830.524	23859
830.663	23737
830.802	23813
830.941	23600
831.08	23630
831.219	23752
831.357	23722
831.496	23836
831.635	23554
831.774	23642
831.913	23509
832.051	23307
832.19	23417
832.329	23467
832.467	23318
832.606	23185
832.744	23299
832.883	23341
833.022	23166
833.16	23402
833.299	23383
833.437	23379
833.576	23334
833.714	23459
833.852	23429
833.991	23421
834.129	23436
834.267	23402
834.406	23345
834.544	23307
834.682	23360
834.821	23280
834.959	23429
835.097	23395
835.235	23349
835.373	23315
835.511	23414
835.65	23094
835.788	23109
835.926	22995
836.064	23010
836.202	22835
836.34	23254
836.478	23315
836.615	23052
836.753	23254
836.891	23299
837.029	23124
837.167	23132
837.305	23121
837.443	23060
837.58	23048
837.718	23075
837.856	23022
837.993	22900
838.131	23010
838.269	22771
838.406	22934
838.544	22820
838.681	22607
838.819	22660
838.956	22413
839.094	22485
839.231	22519
839.369	22615
839.506	22801
839.643	22611
839.781	22508
839.918	22299
840.055	22375
840.193	22367
840.33	22265
840.467	22348
840.604	22382
840.742	22679
840.879	22188
841.016	22185
841.153	22314
841.29	22478
841.427	22234
841.564	22268
841.701	22329
841.838	22280
841.975	22276
842.112	22356
842.249	22143
842.385	22051
842.522	22310
842.659	22143
842.796	22078
842.933	22188
843.069	22090
843.206	21964
843.343	22238
843.479	22143
843.616	22063
843.752	21842
843.889	21865
844.025	21937
844.162	21732
844.298	21831
844.435	21850
844.571	21823
844.708	21953
844.844	22074
844.98	21876
845.117	22006
845.253	21880
845.389	21762
845.525	21724
845.661	21675
845.798	21656
845.934	21614
846.07	21587
846.206	21545
846.342	21629
846.478	21561
846.614	21443
846.75	21241
846.886	21306
847.022	21367
847.158	21310
847.294	21298
847.429	21287
847.565	21321
847.701	21496
847.837	20937
847.972	21009
848.108	21116
848.244	21226
848.379	20963
848.515	20902
848.65	20906
848.786	20861
848.921	20960
849.057	20979
849.192	20944
849.328	20914
849.463	20944
849.598	20842
849.734	20765
849.869	20731
850.004	20590
850.14	20632
850.275	20674
850.41	20518
850.545	20602
850.68	20667
850.815	20689
850.95	20629
851.085	20731
851.22	20735
851.355	20667
851.49	20514
851.625	20579
851.76	20602
851.895	20442
852.03	20492
852.165	20545
852.299	20499
852.434	20731
852.569	20644
852.703	20533
852.838	20765
852.973	20845
853.107	20754
853.242	20560
853.376	20446
853.511	20298
853.645	20301
853.78	20545
853.914	20419
854.048	20446
854.183	20507
854.317	20370
854.451	20632
854.585	20366
854.72	20275
854.854	20412
854.988	20450
855.122	20317
855.256	20336
855.39	20385
855.524	20442
855.658	20419
855.792	20358
855.926	20492
856.06	20533
856.194	20587
856.327	20393
856.461	20408
856.595	20347
856.729	20256
856.862	20594
856.996	20396
857.13	20473
857.263	20537
857.397	20488
857.53	20400
857.664	20400
857.797	20507
857.931	20415
858.064	20511
858.197	20450
858.331	20347
858.464	20305
858.597	20195
858.731	20461
858.864	20282
858.997	20385
859.13	20423
859.263	20381
859.396	20442
859.529	20355
859.662	20259
859.795	20275
859.928	20301
860.061	20552
860.194	20651
860.327	20499
860.46	20343
860.592	20423
860.725	20564
860.858	20606
860.99	20317
861.123	20305
861.256	20412
861.388	20389
861.521	21013
861.653	20240
861.786	20218
861.918	20218
862.05	20328
862.183	20309
862.315	20545
862.447	20366
862.58	20362
862.712	20233
862.844	20054
862.976	20290
863.108	20240
863.24	20602
863.372	20031
863.504	20115
863.636	20088
863.768	20050
863.9	20153
864.032	20084
864.164	20020
864.296	20168
864.428	20199
864.559	20122
864.691	20187
864.823	20126
864.954	20115
865.086	20077
865.217	20134
865.349	19875
865.48	19997
865.612	19951
865.743	20115
865.875	20065
866.006	20062
866.137	19921
866.269	19852
866.4	19982
866.531	19940
866.662	19871
866.793	19982
866.924	19989
867.055	20012
867.186	19928
867.317	19883
867.448	19780
867.579	19951
867.71	19852
867.841	19784
867.972	19849
868.103	19746
868.233	19947
868.364	19963
868.495	19974
868.625	20157
868.756	20313
868.886	20065
869.017	20119
869.147	20240
869.278	20301
869.408	20149
869.539	20153
869.669	20164
869.799	20199
869.929	20328
870.06	20305
870.19	20533
870.32	20568
870.45	20480
870.58	20518
870.71	20781
870.84	20632
870.97	20609
871.1	20598
871.23	20689
871.36	20823
871.489	20701
871.619	20727
871.749	20807
871.879	20872
872.008	20899
872.138	20765
872.267	20842
872.397	20674
872.526	20606
872.656	20609
872.785	20579
872.915	20727
873.044	20800
873.173	20887
873.303	20781
873.432	20849
873.561	20899
873.69	20785
873.819	20750
873.948	20815
874.077	20910
874.206	20735
874.335	20823
874.464	20853
874.593	21020
874.722	20937
874.851	21058
874.979	20994
875.108	21043
875.237	21013
875.365	20929
875.494	20990
875.623	21123
875.751	21013
875.88	21039
876.008	21222
876.136	21256
876.265	21435
876.393	21557
876.521	21340
876.65	21481
876.778	21534
876.906	21386
877.034	21367
877.162	21397
877.29	21340
877.418	21500
877.546	21431
877.674	21389
877.802	21359
877.93	21416
878.058	21294
878.185	21382
878.313	21351
878.441	21310
878.568	21272
878.696	21302
878.824	21389
878.951	21412
879.079	21675
879.206	21762
879.333	21603
879.461	21382
879.588	21519
879.715	21561
879.842	21583
879.97	21420
880.097	21268
880.224	21188
880.351	21241
880.478	21157
880.605	21218
880.732	21310
880.859	21485
880.986	21272
881.112	21256
881.239	21138
881.366	20864
881.493	20895
881.619	20773
881.746	20880
881.872	20819
881.999	20811
882.125	20853
882.252	20800
882.378	20746
882.505	20906
882.631	20769
882.757	20568
882.883	20674
883.01	20552
883.136	20606
883.262	20438
883.388	20446
883.514	20579
883.64	20434
883.766	20336
883.892	20290
884.018	20374
884.143	20400
884.269	20625
884.395	20191
884.52	20191
884.646	20343
884.772	20210
884.897	20008
885.023	20233
885.148	20237
885.274	20347
885.399	20355
885.524	20202
885.65	20233
885.775	20199
885.9	20062
886.025	20385
886.15	20259
886.275	20115
886.4	20077
886.525	19997
886.65	20119
886.775	20100
886.9	20290
887.025	20434
887.149	20225
887.274	19913
887.399	19974
887.523	19989
887.648	19906
887.773	19753
887.897	19982
888.021	19932
888.146	19909
888.27	20001
888.395	19944
888.519	20005
888.643	19963
888.767	20016
888.891	19913
889.015	19681
889.139	19978
889.263	19689
889.387	19898
889.511	19932
889.635	19883
889.759	19689
889.883	19651
890.006	19681
890.13	19765
890.254	19624
890.377	19677
890.501	19559
890.624	19403
890.748	19567
890.871	19453
890.995	19339
891.118	19278
891.241	19339
891.364	19384
891.488	19499
891.611	19270
891.734	19312
891.857	19289
891.98	19308
892.103	19415
892.226	19403
892.349	19335
892.471	19129
892.594	19285
892.717	19259
892.839	19339
892.962	19228
893.085	19324
893.207	19236
893.33	19031
893.452	19198
893.575	19282
893.697	19240
893.819	19335
893.941	19426
894.064	19381
894.186	19232
894.308	19209
894.43	19255
894.552	19464
894.674	19343
894.796	19137
894.918	19202
895.04	19221
895.161	19213
895.283	19217
895.405	19137
895.526	19187
895.648	19221
895.769	19327
895.891	19301
896.012	19358
896.134	19297
896.255	19327
896.376	19202
896.498	19285
896.619	19232
896.74	19133
896.861	19419
896.982	19651
897.103	19750
897.224	19647
897.345	19472
897.466	19506
897.587	19464
897.708	19681
897.828	19525
897.949	19521
898.07	19373
898.19	19487
898.311	19480
898.431	19457
898.552	19578
898.672	19499
898.792	19609
898.913	19537
899.033	19396
899.153	19206
899.273	19141
899.393	19259
899.513	19179
899.633	19206
899.753	19301
899.873	19156
899.993	19263
900.113	19263
900.232	19232
900.352	19297
900.472	18989
900.591	18993
900.711	19088
900.83	19050
900.95	19084
901.069	19240
901.189	18935
901.308	18559
901.427	18741
901.546	18639
901.665	18604
901.784	18631
901.904	18509
902.023	18494
902.141	18201
902.26	18121
902.379	18296
902.498	18171
902.617	18186
902.735	18152
902.854	18072
902.973	18110
903.091	17824
903.21	17813
903.328	17847
903.446	17718
903.565	17646
903.683	17611
903.801	17516
903.919	17493
904.038	17615
904.156	17383
904.274	17585
904.392	17356
904.51	17356
904.627	17265
904.745	17471
904.863	17429
904.981	17075
905.098	17113
905.216	17075
905.334	17193
905.451	17041
905.569	17029
905.686	17109
905.803	17098
905.921	16850
906.038	16995
906.155	16869
906.272	16660
906.389	16763
906.506	16615
906.623	16634
906.74	16481
906.857	16516
906.974	16611
907.091	16691
907.208	16736
907.324	16573
907.441	16485
907.557	16299
907.674	16306
907.79	16181
907.907	16230
908.023	16405
908.139	16284
908.256	16139
908.372	16207
908.488	16261
908.604	16010
908.72	15960
908.836	16051
908.952	16025
909.068	16032
909.184	16200
909.3	15991
909.415	16032
909.531	16002
909.647	15717
909.762	15656
909.878	15739
909.993	15728
910.108	15633
910.224	15671
910.339	15808
910.454	15523
910.57	15515
910.685	15416
910.8	15751
910.915	15671
911.03	15584
911.145	15408
911.259	15439
911.374	15408
911.489	15264
911.604	15180
911.718	15077
911.833	15104
911.947	15005
912.062	14842
912.176	15051
912.291	15062
912.405	15001
912.519	15256
912.633	15195
912.748	15119
912.862	15173
912.976	14887
913.09	14868
913.204	14960
913.318	14963
913.431	14872
913.545	14990
913.659	15051
913.772	14800
913.886	14788
914	14731
914.113	14765
914.226	14845
914.34	14762
914.453	14587
914.566	14697
914.68	14575
914.793	14537
914.906	14385
915.019	14286
915.132	14206
915.245	14313
915.358	14374
915.47	14374
915.583	14434
915.696	14320
915.809	14377
915.921	14465
916.034	14278
916.146	14134
916.259	14145
916.371	14320
916.483	14305
916.595	14191
916.708	14142
916.82	14130
916.932	14180
917.044	14161
917.156	14187
917.268	14107
917.38	13989
917.491	13986
917.603	13944
917.715	14119
917.826	14126
917.938	14065
918.049	13925
918.161	14035
918.272	14206
918.384	14024
918.495	14062
918.606	13818
918.717	13814
918.828	13750
918.939	13898
919.05	13772
919.161	13750
919.272	13620
919.383	13715
919.494	13852
919.604	14077
919.715	13780
919.826	13677
919.936	13772
920.047	13814
920.157	13769
920.267	13830
920.378	13734
920.488	13639
920.598	13890
920.708	14092
920.818	13879
920.928	13868
921.038	14012
921.148	13868
921.258	13689
921.368	13544
921.477	13552
921.587	13506
921.697	13362
921.806	13521
921.916	13449
922.025	13175
922.134	13206
922.244	13084
922.353	13164
922.462	13027
922.571	12947
922.68	12779
922.789	12844
922.898	12787
923.007	12700
923.116	12814
923.224	12814
923.333	12730
923.442	12692
923.55	12703
923.659	12627
923.767	12734
923.876	12597
923.984	12669
924.092	12563
924.201	12563
924.309	12601
924.417	12525
924.525	12456
924.633	12369
924.741	13225
924.849	12323
924.956	12506
925.064	12376
925.172	12182
925.279	12140
925.387	12235
925.494	12224
925.602	12437
925.709	12304
925.816	12254
925.924	12213
926.031	12292
926.138	12243
926.245	12175
926.352	12155
926.459	12273
926.566	12285
926.673	12216
926.779	12060
926.886	12079
926.993	11904
927.099	11809
927.206	11832
927.312	11798
927.419	11870
927.525	11878
927.631	11809
927.737	11756
927.843	11665
927.95	11547
928.056	11657
928.162	11748
928.267	11760
928.373	12315
928.479	11665
928.585	11547
928.69	11676
928.796	11695
928.901	11547
929.007	11406
929.112	11532
929.218	11459
929.323	11417
929.428	11402
929.533	11589
929.638	11349
929.743	11406
929.848	11425
929.953	11414
930.058	11208
930.163	11094
930.267	11105
930.372	11235
930.477	11136
930.581	11372
930.685	11197
930.79	11018
930.894	11048
930.998	11010
931.103	11178
931.207	10683
931.311	10660
931.415	10500
931.519	10466
931.623	10352
