Data from test_V78500241_2256.txt Node
Date: Fri Mar 25 15:25:34 CST 2022
User: usil
Spectrometer: V785-0024
Trigger mode: 0
Integration Time (sec): 4.000000E-1
Scans to average: 1
Nonlinearity correction enabled: false
Boxcar width: 0
Storing dark spectrum: false
XAxis mode: Wavelengths
Number of Pixels in Spectrum: 1024
>>>>>Begin Spectral Data<<<<<
801.071	27739
801.214	27587
801.356	27401
801.499	27310
801.641	27218
801.783	27294
801.926	27310
802.068	27260
802.211	27127
802.353	27173
802.496	26956
802.638	26864
802.78	26830
802.923	26902
803.065	26864
803.208	26826
803.35	26861
803.492	26876
803.635	27104
803.777	26918
803.919	27032
804.061	27382
804.204	27157
804.346	26979
804.488	27112
804.63	27085
804.773	26883
804.915	26963
805.057	27112
805.199	27077
805.341	27093
805.483	27127
805.626	27089
805.768	26956
805.91	27192
806.052	27138
806.194	27043
806.336	27332
806.478	27195
806.62	27131
806.762	27325
806.904	27405
807.046	27500
807.188	27644
807.33	27652
807.472	27545
807.614	27652
807.756	27545
807.898	27344
808.04	27317
808.182	27355
808.324	27504
808.465	27462
808.607	27564
808.749	27766
808.891	27762
809.033	27994
809.174	27827
809.316	27720
809.458	27743
809.6	27717
809.741	27922
809.883	27918
810.025	28040
810.166	28021
810.308	28048
810.45	27991
810.591	27953
810.733	27854
810.875	27671
811.016	27747
811.158	27629
811.299	27854
811.441	27857
811.582	27979
811.724	27819
811.865	27831
812.007	27774
812.148	27736
812.29	27751
812.431	27846
812.573	28147
812.714	28169
812.855	28166
812.997	28417
813.138	28516
813.279	28401
813.421	28375
813.562	28249
813.703	28070
813.845	27941
813.986	27701
814.127	27568
814.268	27447
814.41	27447
814.551	27424
814.692	27450
814.833	27583
814.974	27515
815.115	27462
815.256	27443
815.397	27313
815.539	27272
815.68	27268
815.821	27203
815.962	27260
816.103	27306
816.244	27009
816.385	27135
816.526	26967
816.666	26754
816.807	26796
816.948	26811
817.089	26883
817.23	26705
817.371	26697
817.512	26644
817.653	26663
817.793	26625
817.934	26667
818.075	26739
818.216	26724
818.356	26518
818.497	26473
818.638	26480
818.778	26347
818.919	26526
819.06	26438
819.2	26689
819.341	26663
819.481	26842
819.622	26823
819.762	26971
819.903	26891
820.043	26861
820.184	26990
820.324	26830
820.465	26986
820.605	26754
820.746	26716
820.886	26731
821.026	26788
821.167	26785
821.307	26804
821.447	26644
821.588	26705
821.728	26362
821.868	26298
822.008	26221
822.149	26092
822.289	26142
822.429	25921
822.569	25890
822.709	25974
822.849	25624
822.99	25807
823.13	25556
823.27	25586
823.41	25548
823.55	25499
823.69	25491
823.83	25575
823.97	25483
824.11	25381
824.25	25221
824.389	25304
824.529	25441
824.669	25320
824.809	25472
824.949	25388
825.089	25346
825.228	25373
825.368	25278
825.508	25160
825.648	25274
825.787	25247
825.927	25274
826.067	25183
826.206	25148
826.346	25232
826.485	25270
826.625	25061
826.765	25282
826.904	25198
827.044	25050
827.183	25012
827.323	24787
827.462	25050
827.601	24890
827.741	24924
827.88	24973
828.02	24821
828.159	24814
828.298	24791
828.437	24924
828.577	24856
828.716	24882
828.855	24711
828.994	24623
829.134	24616
829.273	24631
829.412	24528
829.551	24620
829.69	24475
829.829	24654
829.968	24749
830.107	24616
830.246	24684
830.385	24635
830.524	24528
830.663	24479
830.802	24266
830.941	24235
831.08	24045
831.219	24311
831.357	24323
831.496	24384
831.635	24148
831.774	24018
831.913	24018
832.051	23965
832.19	23935
832.329	23920
832.467	23847
832.606	23889
832.744	23764
832.883	23923
833.022	23866
833.16	23946
833.299	23855
833.437	23847
833.576	23927
833.714	23931
833.852	24015
833.991	23954
834.129	24011
834.267	24015
834.406	23916
834.544	23939
834.682	23912
834.821	23912
834.959	24041
835.097	23859
835.235	23920
835.373	23878
835.511	23904
835.65	23802
835.788	23710
835.926	23672
836.064	23638
836.202	23592
836.34	23672
836.478	23931
836.615	23836
836.753	23760
836.891	23847
837.029	23809
837.167	23710
837.305	23661
837.443	23592
837.58	23646
837.718	23733
837.856	23570
837.993	23585
838.131	23558
838.269	23467
838.406	23585
838.544	23345
838.681	23337
838.819	23299
838.956	23197
839.094	23216
839.231	23083
839.369	23364
839.506	23402
839.643	23292
839.781	23105
839.918	23018
840.055	23056
840.193	23136
840.33	22923
840.467	23033
840.604	22984
840.742	23311
840.879	22843
841.016	22809
841.153	22877
841.29	23041
841.427	23014
841.564	22953
841.701	22965
841.838	22881
841.975	22904
842.112	22828
842.249	22767
842.385	22797
842.522	22984
842.659	22793
842.796	22675
842.933	22759
843.069	22812
843.206	22683
843.343	22881
843.479	22675
843.616	22710
843.752	22554
843.889	22474
844.025	22588
844.162	22489
844.298	22615
844.435	22531
844.571	22306
844.708	22603
844.844	22713
844.98	22645
845.117	22778
845.253	22512
845.389	22284
845.525	22474
845.661	22413
845.798	22253
845.934	22295
846.07	22211
846.206	22257
846.342	22382
846.478	22291
846.614	22097
846.75	21930
846.886	21930
847.022	22158
847.158	22002
847.294	21972
847.429	22013
847.565	22048
847.701	22196
847.837	21797
847.972	21743
848.108	21861
848.244	21842
848.379	21663
848.515	21564
848.65	21515
848.786	21572
848.921	21553
849.057	21629
849.192	21728
849.328	21690
849.463	21576
849.598	21534
849.734	21587
849.869	21504
850.004	21264
850.14	21306
850.275	21386
850.41	21279
850.545	21279
850.68	21291
850.815	21264
850.95	21408
851.085	21557
851.22	21542
851.355	21291
851.49	21329
851.625	21245
851.76	21321
851.895	21233
852.03	21256
852.165	21340
852.299	21367
852.434	21405
852.569	21306
852.703	21348
852.838	21370
852.973	21393
853.107	21382
853.242	21321
853.376	21116
853.511	21089
853.645	21188
853.78	21131
853.914	21157
854.048	21241
854.183	21203
854.317	21226
854.451	21420
854.585	21077
854.72	21165
854.854	21245
854.988	21089
855.122	21195
855.256	21047
855.39	21165
855.524	21203
855.658	21066
855.792	21085
855.926	21173
856.06	21188
856.194	21218
856.327	21211
856.461	21119
856.595	21058
856.729	21165
856.862	21184
856.996	21279
857.13	21249
857.263	21302
857.397	21321
857.53	21157
857.664	21169
857.797	21207
857.931	21195
858.064	21184
858.197	21374
858.331	21161
858.464	21222
858.597	21028
858.731	21184
858.864	21127
858.997	21199
859.13	21138
859.263	21233
859.396	21195
859.529	21222
859.662	21062
859.795	21135
859.928	21199
860.061	21268
860.194	21424
860.327	21241
860.46	21127
860.592	21283
860.725	21310
860.858	21256
860.99	21119
861.123	21157
861.256	21062
861.388	21036
861.521	21873
861.653	21036
861.786	20925
861.918	20990
862.05	21051
862.183	21062
862.315	21051
862.447	21192
862.58	21039
862.712	20849
862.844	20769
862.976	20967
863.108	20944
863.24	21340
863.372	20811
863.504	20902
863.636	20883
863.768	20758
863.9	20826
864.032	20929
864.164	20921
864.296	20937
864.428	20876
864.559	20872
864.691	21013
864.823	20807
864.954	20872
865.086	20921
865.217	20720
865.349	20811
865.48	20800
865.612	20758
865.743	20861
865.875	20716
866.006	20724
866.137	20739
866.269	20746
866.4	20815
866.531	20636
866.662	20629
866.793	20670
866.924	20705
867.055	20804
867.186	20667
867.317	20758
867.448	20625
867.579	20590
867.71	20522
867.841	20602
867.972	20625
868.103	20689
868.233	20708
868.364	20708
868.495	20781
868.625	21024
868.756	20910
868.886	20895
869.017	20826
869.147	21192
869.278	21093
869.408	20937
869.539	20815
869.669	20933
869.799	20994
869.929	21093
870.06	21005
870.19	21306
870.32	21161
870.45	21157
870.58	21359
870.71	21416
870.84	21412
870.97	21207
871.1	21348
871.23	21519
871.36	21530
871.489	21348
871.619	21587
871.749	21507
871.879	21629
872.008	21603
872.138	21576
872.267	21504
872.397	21458
872.526	21412
872.656	21420
872.785	21344
872.915	21500
873.044	21580
873.173	21500
873.303	21629
873.432	21553
873.561	21732
873.69	21663
873.819	21629
873.948	21690
874.077	21466
874.206	21496
874.335	21492
874.464	21671
874.593	21838
874.722	21622
874.851	21861
874.979	21816
875.108	21816
875.237	21705
875.365	21671
875.494	21827
875.623	21911
875.751	21732
875.88	21827
876.008	21907
876.136	21930
876.265	22116
876.393	22337
876.521	22101
876.65	22272
876.778	22173
876.906	22196
877.034	22055
877.162	22116
877.29	22086
877.418	22120
877.546	22131
877.674	22078
877.802	22070
877.93	22135
878.058	22120
878.185	21972
878.313	22097
878.441	22055
878.568	21937
878.696	21994
878.824	22166
878.951	22124
879.079	22291
879.206	22196
879.333	22284
879.461	22166
879.588	22097
879.715	22200
879.842	22341
879.97	22128
880.097	22048
880.224	21895
880.351	21888
880.478	21937
880.605	21781
880.732	21941
880.859	22276
880.986	22029
881.112	21880
881.239	21762
881.366	21747
881.493	21599
881.619	21694
881.746	21587
881.872	21504
881.999	21504
882.125	21393
882.252	21553
882.378	21526
882.505	21629
882.631	21370
882.757	21340
882.883	21313
883.01	21317
883.136	21123
883.262	21017
883.388	20941
883.514	21245
883.64	21199
883.766	21207
883.892	20990
884.018	20925
884.143	21249
884.269	21180
884.395	20796
884.52	20933
884.646	20952
884.772	20929
884.897	20796
885.023	20963
885.148	20918
885.274	21108
885.399	21024
885.524	20785
885.65	20845
885.775	20868
885.9	20823
886.025	20986
886.15	20864
886.275	20834
886.4	20792
886.525	20918
886.65	20724
886.775	20857
886.9	20979
887.025	21017
887.149	20902
887.274	20842
887.399	20640
887.523	20670
887.648	20526
887.773	20564
887.897	20727
888.021	20735
888.146	20541
888.27	20716
888.395	20708
888.519	20659
888.643	20731
888.767	20598
888.891	20609
889.015	20423
889.139	20617
889.263	20415
889.387	20522
889.511	20750
889.635	20545
889.759	20484
889.883	20366
890.006	20415
890.13	20446
890.254	20389
890.377	20450
890.501	20259
890.624	20328
890.748	20256
890.871	20096
890.995	19986
891.118	20058
891.241	20077
891.364	20191
891.488	20001
891.611	20092
891.734	19978
891.857	20153
891.98	20024
892.103	20046
892.226	20016
892.349	19993
892.471	19837
892.594	19879
892.717	19986
892.839	19986
892.962	19974
893.085	19921
893.207	19932
893.33	19936
893.452	19967
893.575	20081
893.697	19875
893.819	20138
893.941	20172
894.064	20172
894.186	19845
894.308	19822
894.43	20103
894.552	20024
894.674	20092
894.796	19913
894.918	19955
895.04	19879
895.161	20122
895.283	19932
895.405	19852
895.526	19936
895.648	19875
895.769	19925
895.891	20024
896.012	20054
896.134	20081
896.255	20008
896.376	19906
896.498	19978
896.619	20035
896.74	19993
896.861	20088
896.982	20286
897.103	20396
897.224	20286
897.345	20229
897.466	20096
897.587	20233
897.708	20294
897.828	20259
897.949	20191
898.07	20119
898.19	20058
898.311	20221
898.431	20206
898.552	20096
898.672	20320
898.792	20221
898.913	20275
899.033	20122
899.153	19951
899.273	19856
899.393	20065
899.513	20062
899.633	19913
899.753	19879
899.873	19879
899.993	20020
900.113	19849
900.232	19963
900.352	19898
900.472	19795
900.591	19655
900.711	19666
900.83	19712
900.95	19753
901.069	19871
901.189	19613
901.308	19377
901.427	19384
901.546	19434
901.665	19339
901.784	19301
901.904	19187
902.023	19156
902.141	18848
902.26	18802
902.379	18993
902.498	18791
902.617	18871
902.735	18916
902.854	18825
902.973	18798
903.091	18521
903.21	18517
903.328	18414
903.446	18407
903.565	18273
903.683	18273
903.801	18102
903.919	18174
904.038	18171
904.156	18091
904.274	18174
904.392	17977
904.51	17965
904.627	18011
904.745	18064
904.863	18133
904.981	17893
905.098	17889
905.216	17714
905.334	17836
905.451	17798
905.569	17771
905.686	17809
905.803	17710
905.921	17520
906.038	17619
906.155	17509
906.272	17433
906.389	17421
906.506	17239
906.623	17261
906.74	17299
906.857	17212
906.974	17181
907.091	17303
907.208	17292
907.324	17246
907.441	17189
907.557	16999
907.674	17041
907.79	16828
907.907	17033
908.023	17014
908.139	17010
908.256	16968
908.372	16820
908.488	16869
908.604	16679
908.72	16630
908.836	16706
908.952	16687
909.068	16763
909.184	16809
909.3	16698
909.415	16729
909.531	16637
909.647	16497
909.762	16352
909.878	16382
909.993	16382
910.108	16367
910.224	16356
910.339	16440
910.454	16337
910.57	16261
910.685	16021
910.8	16428
910.915	16226
911.03	16101
911.145	16029
911.259	15991
911.374	16025
911.489	15926
911.604	15854
911.718	15747
911.833	15816
911.947	15686
912.062	15618
912.176	15682
912.291	15671
912.405	15694
912.519	15911
912.633	15892
912.748	15876
912.862	15717
912.976	15614
913.09	15477
913.204	15553
913.318	15542
913.431	15641
913.545	15694
913.659	15599
913.772	15500
913.886	15454
914	15363
914.113	15553
914.226	15507
914.34	15431
914.453	15344
914.566	15393
914.68	15310
914.793	15298
914.906	15104
915.019	15051
915.132	14914
915.245	15036
915.358	15055
915.47	14918
915.583	15043
915.696	15055
915.809	15036
915.921	15142
916.034	14887
916.146	14906
916.259	14887
916.371	14906
916.483	15017
916.595	14921
916.708	14845
916.82	14872
916.932	14800
917.044	14678
917.156	14815
917.268	14617
917.38	14663
917.491	14724
917.603	14632
917.715	14724
917.826	14731
917.938	14617
918.049	14438
918.161	14545
918.272	14731
918.384	14670
918.495	14552
918.606	14450
918.717	14385
918.828	14389
918.939	14431
919.05	14301
919.161	14290
919.272	14229
919.383	14290
919.494	14495
919.604	14579
919.715	14298
919.826	14343
919.936	14320
920.047	14442
920.157	14370
920.267	14625
920.378	14385
920.488	14305
920.598	14571
920.708	14712
920.818	14537
920.928	14552
921.038	14648
921.148	14549
921.258	14313
921.368	14423
921.477	14103
921.587	14012
921.697	13947
921.806	14096
921.916	14065
922.025	13776
922.134	13632
922.244	13674
922.353	13772
922.462	13597
922.571	13613
922.68	13441
922.789	13384
922.898	13403
923.007	13384
923.116	13426
923.224	13350
923.333	13240
923.442	13312
923.55	13289
923.659	13206
923.767	13331
923.876	13190
923.984	13316
924.092	13050
924.201	13187
924.309	13160
924.417	13221
924.525	13133
924.633	13031
924.741	13784
924.849	12878
924.956	13019
925.064	12909
925.172	12696
925.279	12791
925.387	12905
925.494	12791
925.602	12905
925.709	12821
925.816	12741
925.924	12844
926.031	12806
926.138	12821
926.245	12856
926.352	12734
926.459	12757
926.566	12817
926.673	12692
926.779	12639
926.886	12525
926.993	12407
927.099	12448
927.206	12388
927.312	12388
927.419	12399
927.525	12353
927.631	12429
927.737	12258
927.843	12247
927.95	12129
928.056	12224
928.162	12114
928.267	12213
928.373	12962
928.479	12380
928.585	12064
928.69	12136
928.796	12216
928.901	12102
929.007	11992
929.112	12064
929.218	12026
929.323	11942
929.428	11946
929.533	12015
929.638	11916
929.743	11870
929.848	11954
929.953	11897
930.058	11843
930.163	11661
930.267	11638
930.372	11805
930.477	11630
930.581	11798
930.685	11600
930.79	11463
930.894	11490
930.998	11554
931.103	11661
931.207	11292
931.311	11181
931.415	11083
931.519	10930
931.623	10942
