Data from test_V78500241_2924.txt Node
Date: Fri Mar 25 15:30:13 CST 2022
User: usil
Spectrometer: V785-0024
Trigger mode: 0
Integration Time (sec): 4.000000E-1
Scans to average: 1
Nonlinearity correction enabled: false
Boxcar width: 0
Storing dark spectrum: false
XAxis mode: Wavelengths
Number of Pixels in Spectrum: 1024
>>>>>Begin Spectral Data<<<<<
801.071	27374
801.214	27272
801.356	26940
801.499	27043
801.641	26804
801.783	26823
801.926	26781
802.068	26807
802.211	26708
802.353	26693
802.496	26659
802.638	26450
802.78	26358
802.923	26434
803.065	26389
803.208	26377
803.35	26370
803.492	26530
803.635	26758
803.777	26374
803.919	26590
804.061	26811
804.204	26655
804.346	26617
804.488	26450
804.63	26636
804.773	26453
804.915	26667
805.057	26724
805.199	26587
805.341	26564
805.483	26815
805.626	26712
805.768	26648
805.91	26785
806.052	26781
806.194	26381
806.336	26750
806.478	26743
806.62	26807
806.762	26815
806.904	26868
807.046	27268
807.188	27036
807.33	27116
807.472	27252
807.614	27146
807.756	27119
807.898	26933
808.04	26914
808.182	26891
808.324	26948
808.465	27013
808.607	27096
808.749	27218
808.891	27397
809.033	27519
809.174	27454
809.316	27332
809.458	27142
809.6	27260
809.741	27397
809.883	27374
810.025	27648
810.166	27629
810.308	27561
810.45	27606
810.591	27511
810.733	27336
810.875	27252
811.016	27142
811.158	27321
811.299	27420
811.441	27641
811.582	27530
811.724	27302
811.865	27260
812.007	27252
812.148	27237
812.29	27401
812.431	27515
812.573	27538
812.714	27736
812.855	27869
812.997	27987
813.138	28040
813.279	27949
813.421	27751
813.562	27759
813.703	27743
813.845	27511
813.986	27249
814.127	27154
814.268	27001
814.41	26982
814.551	26971
814.692	27001
814.833	26982
814.974	26800
815.115	27047
815.256	26815
815.397	26979
815.539	26819
815.68	26663
815.821	26667
815.962	26819
816.103	26769
816.244	26735
816.385	26393
816.526	26446
816.666	26290
816.807	26267
816.948	26278
817.089	26309
817.23	26317
817.371	26271
817.512	26294
817.653	26214
817.793	26084
817.934	26111
818.075	26229
818.216	26347
818.356	26111
818.497	26096
818.638	26126
818.778	26050
818.919	26035
819.06	25997
819.2	26046
819.341	26229
819.481	26256
819.622	26419
819.762	26541
819.903	26549
820.043	26450
820.184	26415
820.324	26389
820.465	26434
820.605	26370
820.746	26313
820.886	26050
821.026	26362
821.167	26309
821.307	26328
821.447	26237
821.588	26096
821.728	26024
821.868	25795
822.008	25723
822.149	25597
822.289	25689
822.429	25502
822.569	25419
822.709	25438
822.849	25209
822.99	25198
823.13	25107
823.27	25126
823.41	24981
823.55	24935
823.69	25050
823.83	25057
823.97	25061
824.11	24757
824.25	24806
824.389	24722
824.529	24905
824.669	24719
824.809	24981
824.949	24928
825.089	24886
825.228	24890
825.368	24665
825.508	24753
825.648	24753
825.787	24791
825.927	24840
826.067	24688
826.206	24715
826.346	24783
826.485	24757
826.625	24741
826.765	24753
826.904	24665
827.044	24505
827.183	24414
827.323	24418
827.462	24445
827.601	24418
827.741	24410
827.88	24441
828.02	24258
828.159	24369
828.298	24388
828.437	24342
828.577	24350
828.716	24528
828.855	24235
828.994	24114
829.134	24121
829.273	24174
829.412	23980
829.551	24045
829.69	24057
829.829	24007
829.968	24152
830.107	24266
830.246	24136
830.385	23958
830.524	23980
830.663	23961
830.802	23733
830.941	23726
831.08	23665
831.219	23798
831.357	23809
831.496	23977
831.635	23619
831.774	23741
831.913	23528
832.051	23448
832.19	23516
832.329	23490
832.467	23417
832.606	23383
832.744	23395
832.883	23391
833.022	23246
833.16	23280
833.299	23356
833.437	23398
833.576	23387
833.714	23448
833.852	23467
833.991	23341
834.129	23471
834.267	23398
834.406	23417
834.544	23611
834.682	23406
834.821	23387
834.959	23577
835.097	23265
835.235	23497
835.373	23372
835.511	23410
835.65	23280
835.788	23326
835.926	23159
836.064	23060
836.202	23113
836.34	23360
836.478	23425
836.615	23147
836.753	23200
836.891	23254
837.029	23246
837.167	23109
837.305	23086
837.443	23037
837.58	23052
837.718	23181
837.856	23242
837.993	22949
838.131	23041
838.269	22957
838.406	22911
838.544	23037
838.681	22774
838.819	22782
838.956	22516
839.094	22615
839.231	22763
839.369	22717
839.506	22961
839.643	22713
839.781	22554
839.918	22497
840.055	22546
840.193	22569
840.33	22451
840.467	22607
840.604	22542
840.742	22824
840.879	22318
841.016	22519
841.153	22424
841.29	22516
841.427	22405
841.564	22500
841.701	22542
841.838	22367
841.975	22363
842.112	22402
842.249	22348
842.385	22249
842.522	22481
842.659	22314
842.796	22154
842.933	22253
843.069	22158
843.206	22234
843.343	22238
843.479	22284
843.616	22272
843.752	22204
843.889	21949
844.025	22257
844.162	22074
844.298	22101
844.435	21956
844.571	21907
844.708	22036
844.844	22162
844.98	22204
845.117	22223
845.253	21968
845.389	21873
845.525	21956
845.661	21880
845.798	21743
845.934	21846
846.07	21610
846.206	21800
846.342	21876
846.478	21701
846.614	21580
846.75	21462
846.886	21549
847.022	21561
847.158	21511
847.294	21572
847.429	21534
847.565	21496
847.701	21827
847.837	21287
847.972	21237
848.108	21313
848.244	21283
848.379	21058
848.515	21108
848.65	20921
848.786	21119
848.921	20975
849.057	21176
849.192	21165
849.328	21169
849.463	21108
849.598	21081
849.734	20895
849.869	21180
850.004	20792
850.14	20895
850.275	20815
850.41	20853
850.545	20705
850.68	20686
850.815	20967
850.95	20910
851.085	20944
851.22	20891
851.355	20785
851.49	20883
851.625	20956
851.76	20849
851.895	20826
852.03	20857
852.165	20849
852.299	20960
852.434	21039
852.569	20864
852.703	20956
852.838	20876
852.973	21009
853.107	20998
853.242	20773
853.376	20659
853.511	20575
853.645	20632
853.78	20864
853.914	20651
854.048	20644
854.183	20693
854.317	20655
854.451	20838
854.585	20644
854.72	20708
854.854	20754
854.988	20583
855.122	20731
855.256	20648
855.39	20686
855.524	20781
855.658	20762
855.792	20651
855.926	20769
856.06	20636
856.194	20716
856.327	20625
856.461	20678
856.595	20609
856.729	20598
856.862	20758
856.996	20689
857.13	20762
857.263	20891
857.397	20765
857.53	20678
857.664	20739
857.797	20731
857.931	20762
858.064	20750
858.197	20872
858.331	20648
858.464	20655
858.597	20598
858.731	20663
858.864	20712
858.997	20533
859.13	20625
859.263	20655
859.396	20720
859.529	20636
859.662	20625
859.795	20712
859.928	20746
860.061	20777
860.194	20845
860.327	20750
860.46	20720
860.592	20720
860.725	20769
860.858	20887
860.99	20590
861.123	20609
861.256	20689
861.388	20602
861.521	21264
861.653	20598
861.786	20507
861.918	20609
862.05	20594
862.183	20625
862.315	20621
862.447	20731
862.58	20674
862.712	20332
862.844	20336
862.976	20484
863.108	20438
863.24	20883
863.372	20355
863.504	20450
863.636	20442
863.768	20431
863.9	20362
864.032	20278
864.164	20313
864.296	20537
864.428	20419
864.559	20434
864.691	20396
864.823	20522
864.954	20461
865.086	20408
865.217	20278
865.349	20263
865.48	20320
865.612	20301
865.743	20370
865.875	20176
866.006	20290
866.137	20187
866.269	20282
866.4	20343
866.531	20168
866.662	20240
866.793	20172
866.924	20244
867.055	20149
867.186	20183
867.317	20176
867.448	20138
867.579	20191
867.71	20202
867.841	20187
867.972	20168
868.103	20183
868.233	20244
868.364	20248
868.495	20415
868.625	20457
868.756	20518
868.886	20343
869.017	20438
869.147	20629
869.278	20598
869.408	20552
869.539	20507
869.669	20511
869.799	20556
869.929	20511
870.06	20629
870.19	20682
870.32	20788
870.45	20785
870.58	20887
870.71	20891
870.84	21070
870.97	20826
871.1	20944
871.23	20944
871.36	21062
871.489	20975
871.619	21058
871.749	21017
871.879	21222
872.008	21317
872.138	21157
872.267	21112
872.397	21039
872.526	20880
872.656	20994
872.785	20895
872.915	21131
873.044	21207
873.173	21043
873.303	21104
873.432	21043
873.561	21176
873.69	21142
873.819	21100
873.948	21058
874.077	21036
874.206	21085
874.335	21138
874.464	21264
874.593	21283
874.722	21268
874.851	21256
874.979	21302
875.108	21279
875.237	21214
875.365	21233
875.494	21325
875.623	21245
875.751	21245
875.88	21428
876.008	21580
876.136	21545
876.265	21759
876.393	21823
876.521	21804
876.65	21835
876.778	21785
876.906	21713
877.034	21682
877.162	21709
877.29	21572
877.418	21743
877.546	21835
877.674	21694
877.802	21667
877.93	21667
878.058	21671
878.185	21603
878.313	21682
878.441	21701
878.568	21389
878.696	21549
878.824	21747
878.951	21751
879.079	21819
879.206	22051
879.333	21812
879.461	21785
879.588	21751
879.715	21827
879.842	21968
879.97	21728
880.097	21564
880.224	21420
880.351	21675
880.478	21603
880.605	21568
880.732	21606
880.859	21831
880.986	21500
881.112	21587
881.239	21469
881.366	21329
881.493	21096
881.619	21062
881.746	21096
881.872	21093
881.999	21039
882.125	21176
882.252	21085
882.378	21157
882.505	21161
882.631	20883
882.757	20868
882.883	20853
883.01	20857
883.136	20667
883.262	20667
883.388	20533
883.514	20849
883.64	20823
883.766	20629
883.892	20552
884.018	20640
884.143	20868
884.269	20800
884.395	20625
884.52	20427
884.646	20450
884.772	20419
884.897	20309
885.023	20530
885.148	20450
885.274	20606
885.399	20526
885.524	20575
885.65	20366
885.775	20393
885.9	20396
886.025	20552
886.15	20457
886.275	20381
886.4	20454
886.525	20347
886.65	20336
886.775	20404
886.9	20484
887.025	20526
887.149	20427
887.274	20248
887.399	20294
887.523	20317
887.648	20062
887.773	20065
887.897	20351
888.021	20180
888.146	20229
888.27	20355
888.395	20362
888.519	20309
888.643	20336
888.767	20275
888.891	20153
889.015	20035
889.139	20069
889.263	20016
889.387	20096
889.511	20218
889.635	20130
889.759	20062
889.883	20020
890.006	20005
890.13	20172
890.254	20031
890.377	19932
890.501	19712
890.624	19799
890.748	19913
890.871	19696
890.995	19613
891.118	19491
891.241	19544
891.364	19670
891.488	19685
891.611	19685
891.734	19582
891.857	19594
891.98	19605
892.103	19799
892.226	19613
892.349	19613
892.471	19365
892.594	19495
892.717	19548
892.839	19502
892.962	19597
893.085	19597
893.207	19544
893.33	19514
893.452	19582
893.575	19571
893.697	19563
893.819	19662
893.941	19757
894.064	19632
894.186	19400
894.308	19518
894.43	19537
894.552	19685
894.674	19586
894.796	19331
894.918	19514
895.04	19483
895.161	19624
895.283	19578
895.405	19616
895.526	19609
895.648	19563
895.769	19548
895.891	19563
896.012	19514
896.134	19556
896.255	19460
896.376	19537
896.498	19635
896.619	19563
896.74	19407
896.861	19655
896.982	19970
897.103	19852
897.224	19833
897.345	19788
897.466	19788
897.587	19826
897.708	19940
897.828	19849
897.949	19746
898.07	19655
898.19	19791
898.311	19890
898.431	19734
898.552	19693
898.672	19746
898.792	19814
898.913	19830
899.033	19666
899.153	19533
899.273	19415
899.393	19537
899.513	19582
899.633	19495
899.753	19597
899.873	19392
899.993	19506
900.113	19575
900.232	19422
900.352	19434
900.472	19350
900.591	19240
900.711	19331
900.83	19324
900.95	19396
901.069	19392
901.189	19198
901.308	18970
901.427	18859
901.546	18863
901.665	18852
901.784	18901
901.904	18848
902.023	18658
902.141	18498
902.26	18467
902.379	18452
902.498	18445
902.617	18350
902.735	18460
902.854	18273
902.973	18311
903.091	18197
903.21	18026
903.328	18167
903.446	18019
903.565	17946
903.683	18019
903.801	17813
903.919	17889
904.038	17866
904.156	17760
904.274	17786
904.392	17665
904.51	17589
904.627	17718
904.745	17760
904.863	17687
904.981	17493
905.098	17414
905.216	17558
905.334	17383
905.451	17406
905.569	17315
905.686	17414
905.803	17417
905.921	17075
906.038	17284
906.155	17117
906.272	17033
906.389	16991
906.506	16812
906.623	16930
906.74	16869
906.857	16786
906.974	16774
907.091	16892
907.208	16965
907.324	16995
907.441	16782
907.557	16672
907.674	16603
907.79	16546
907.907	16599
908.023	16683
908.139	16740
908.256	16622
908.372	16542
908.488	16462
908.604	16363
908.72	16348
908.836	16325
908.952	16268
909.068	16371
909.184	16466
909.3	16242
909.415	16314
909.531	16284
909.647	16040
909.762	16006
909.878	16131
909.993	16162
910.108	16071
910.224	16010
910.339	16021
910.454	15930
910.57	15857
910.685	15739
910.8	16029
910.915	16029
911.03	15739
911.145	15701
911.259	15625
911.374	15751
911.489	15622
911.604	15618
911.718	15408
911.833	15408
911.947	15348
912.062	15397
912.176	15424
912.291	15469
912.405	15454
912.519	15633
912.633	15667
912.748	15450
912.862	15408
912.976	15256
913.09	15256
913.204	15245
913.318	15184
913.431	15287
913.545	15226
913.659	15367
913.772	15176
913.886	15013
914	15161
914.113	15123
914.226	15157
914.34	15013
914.453	14937
914.566	15093
914.68	14804
914.793	14883
914.906	14735
915.019	14689
915.132	14640
915.245	14606
915.358	14689
915.47	14686
915.583	14651
915.696	14659
915.809	14727
915.921	14777
916.034	14511
916.146	14549
916.259	14583
916.371	14632
916.483	14606
916.595	14492
916.708	14442
916.82	14594
916.932	14438
917.044	14499
917.156	14389
917.268	14366
917.38	14431
917.491	14324
917.603	14400
917.715	14385
917.826	14396
917.938	14263
918.049	14111
918.161	14309
918.272	14389
918.384	14389
918.495	14324
918.606	14058
918.717	14039
918.828	14111
918.939	14050
919.05	13963
919.161	14081
919.272	13890
919.383	13959
919.494	14119
919.604	14332
919.715	14073
919.826	14012
919.936	14001
920.047	14073
920.157	14149
920.267	14259
920.378	14142
920.488	13963
920.598	14153
920.708	14431
920.818	14214
920.928	14145
921.038	14374
921.148	14248
921.258	13947
921.368	13940
921.477	13765
921.587	13757
921.697	13689
921.806	13830
921.916	13696
922.025	13483
922.134	13563
922.244	13457
922.353	13540
922.462	13285
922.571	13270
922.68	13110
922.789	13236
922.898	13095
923.007	13088
923.116	13194
923.224	13072
923.333	13027
923.442	12996
923.55	12935
923.659	12920
923.767	12947
923.876	12909
923.984	12939
924.092	12779
924.201	12859
924.309	12939
924.417	12844
924.525	12814
924.633	12711
924.741	13761
924.849	12585
924.956	12722
925.064	12604
925.172	12528
925.279	12547
925.387	12555
925.494	12521
925.602	12669
925.709	12566
925.816	12426
925.924	12540
926.031	12555
926.138	12452
926.245	12483
926.352	12327
926.459	12589
926.566	12601
926.673	12536
926.779	12330
926.886	12319
926.993	12235
927.099	12186
927.206	12079
927.312	12083
927.419	12098
927.525	12152
927.631	12197
927.737	12087
927.843	11965
927.95	11832
928.056	11916
928.162	11996
928.267	12079
928.373	12639
928.479	11999
928.585	11859
928.69	11961
928.796	11950
928.901	11863
929.007	11653
929.112	11870
929.218	11882
929.323	11726
929.428	11680
929.533	11836
929.638	11634
929.743	11718
929.848	11809
929.953	11707
930.058	11585
930.163	11398
930.267	11421
930.372	11509
930.477	11379
930.581	11577
930.685	11520
930.79	11277
930.894	11402
930.998	11246
931.103	11334
931.207	11136
931.311	10927
931.415	10847
931.519	10618
931.623	10634
