Data from test_V78500241_3400.txt Node
Date: Fri Mar 25 15:33:32 CST 2022
User: usil
Spectrometer: V785-0024
Trigger mode: 0
Integration Time (sec): 4.000000E-1
Scans to average: 1
Nonlinearity correction enabled: false
Boxcar width: 0
Storing dark spectrum: false
XAxis mode: Wavelengths
Number of Pixels in Spectrum: 1024
>>>>>Begin Spectral Data<<<<<
801.071	27450
801.214	27245
801.356	27058
801.499	27100
801.641	26887
801.783	26899
801.926	26883
802.068	26785
802.211	26800
802.353	26712
802.496	26549
802.638	26587
802.78	26545
802.923	26313
803.065	26267
803.208	26400
803.35	26518
803.492	26598
803.635	26609
803.777	26545
803.919	26495
804.061	26963
804.204	26785
804.346	26659
804.488	26613
804.63	26731
804.773	26511
804.915	26735
805.057	26731
805.199	26583
805.341	26549
805.483	26823
805.626	26708
805.768	26678
805.91	26708
806.052	26823
806.194	26632
806.336	26823
806.478	26598
806.62	26720
806.762	26849
806.904	27028
807.046	27131
807.188	27199
807.33	27256
807.472	27138
807.614	27154
807.756	27032
807.898	27013
808.04	26910
808.182	26792
808.324	27005
808.465	27165
808.607	27332
808.749	27283
808.891	27427
809.033	27618
809.174	27260
809.316	27397
809.458	27336
809.6	27230
809.741	27382
809.883	27454
810.025	27591
810.166	27599
810.308	27618
810.45	27656
810.591	27523
810.733	27370
810.875	27096
811.016	27279
811.158	27237
811.299	27344
811.441	27382
811.582	27515
811.724	27321
811.865	27226
812.007	27374
812.148	27298
812.29	27389
812.431	27447
812.573	27599
812.714	27694
812.855	27770
812.997	27861
813.138	28006
813.279	27972
813.421	27865
813.562	27759
813.703	27625
813.845	27523
813.986	27192
814.127	27093
814.268	27039
814.41	27028
814.551	26967
814.692	27081
814.833	27047
814.974	26891
815.115	27028
815.256	26868
815.397	26861
815.539	26838
815.68	26773
815.821	26667
815.962	26864
816.103	26663
816.244	26545
816.385	26408
816.526	26480
816.666	26434
816.807	26240
816.948	26393
817.089	26282
817.23	26256
817.371	26267
817.512	26301
817.653	26218
817.793	26145
817.934	26248
818.075	26298
818.216	26275
818.356	26195
818.497	26100
818.638	25894
818.778	26081
818.919	25986
819.06	26020
819.2	26157
819.341	26218
819.481	26161
819.622	26423
819.762	26541
819.903	26442
820.043	26358
820.184	26434
820.324	26404
820.465	26476
820.605	26336
820.746	26317
820.886	26214
821.026	26347
821.167	26309
821.307	26278
821.447	26355
821.588	26153
821.728	25955
821.868	25944
822.008	25734
822.149	25628
822.289	25525
822.429	25510
822.569	25396
822.709	25365
822.849	25225
822.99	25129
823.13	25129
823.27	25118
823.41	25019
823.55	24992
823.69	24996
823.83	24924
823.97	25012
824.11	24719
824.25	24878
824.389	24905
824.529	24913
824.669	24757
824.809	24947
824.949	24905
825.089	24939
825.228	24894
825.368	24627
825.508	24559
825.648	24631
825.787	24711
825.927	24730
826.067	24677
826.206	24700
826.346	24776
826.485	24913
826.625	24741
826.765	24696
826.904	24703
827.044	24441
827.183	24502
827.323	24433
827.462	24448
827.601	24441
827.741	24384
827.88	24418
828.02	24338
828.159	24521
828.298	24448
828.437	24410
828.577	24403
828.716	24418
828.855	24429
828.994	24190
829.134	24098
829.273	24171
829.412	24110
829.551	24102
829.69	24129
829.829	24079
829.968	24254
830.107	24247
830.246	24083
830.385	24167
830.524	23961
830.663	24076
830.802	23764
830.941	23786
831.08	23737
831.219	23870
831.357	23748
831.496	23916
831.635	23786
831.774	23589
831.913	23649
832.051	23524
832.19	23497
832.329	23642
832.467	23368
832.606	23341
832.744	23368
832.883	23406
833.022	23383
833.16	23444
833.299	23505
833.437	23486
833.576	23551
833.714	23512
833.852	23516
833.991	23490
834.129	23611
834.267	23600
834.406	23505
834.544	23391
834.682	23478
834.821	23467
834.959	23634
835.097	23402
835.235	23665
835.373	23520
835.511	23516
835.65	23425
835.788	23334
835.926	23178
836.064	23208
836.202	23029
836.34	23315
836.478	23417
836.615	23303
836.753	23448
836.891	23459
837.029	23337
837.167	23387
837.305	23147
837.443	23227
837.58	23136
837.718	23170
837.856	23265
837.993	23140
838.131	23223
838.269	23109
838.406	23067
838.544	23029
838.681	22915
838.819	22809
838.956	22698
839.094	22577
839.231	22782
839.369	22771
839.506	23037
839.643	22923
839.781	22679
839.918	22557
840.055	22679
840.193	22603
840.33	22535
840.467	22527
840.604	22489
840.742	22968
840.879	22493
841.016	22519
841.153	22474
841.29	22698
841.427	22497
841.564	22672
841.701	22656
841.838	22508
841.975	22641
842.112	22607
842.249	22508
842.385	22386
842.522	22679
842.659	22474
842.796	22344
842.933	22341
843.069	22379
843.206	22379
843.343	22481
843.479	22299
843.616	22386
843.752	22090
843.889	22135
844.025	22276
844.162	22166
844.298	22230
844.435	22246
844.571	22265
844.708	22196
844.844	22337
844.98	22162
845.117	22204
845.253	22226
845.389	22025
845.525	22070
845.661	22078
845.798	21827
845.934	21972
846.07	21850
846.206	21899
846.342	22006
846.478	21812
846.614	21778
846.75	21603
846.886	21652
847.022	21671
847.158	21755
847.294	21507
847.429	21701
847.565	21656
847.701	21854
847.837	21336
847.972	21279
848.108	21412
848.244	21526
848.379	21207
848.515	21169
848.65	21142
848.786	21173
848.921	21245
849.057	21211
849.192	21252
849.328	21199
849.463	21169
849.598	21173
849.734	20990
849.869	21123
850.004	21005
850.14	21104
850.275	20975
850.41	20944
850.545	20960
850.68	20891
850.815	21039
850.95	21036
851.085	21241
851.22	21085
851.355	20979
851.49	20960
851.625	20861
851.76	20986
851.895	20933
852.03	20914
852.165	20937
852.299	21043
852.434	21047
852.569	21020
852.703	20986
852.838	21081
852.973	21112
853.107	21100
853.242	20887
853.376	20758
853.511	20678
853.645	20834
853.78	20929
853.914	20804
854.048	20727
854.183	20705
854.317	20845
854.451	20986
854.585	20727
854.72	20739
854.854	20849
854.988	20823
855.122	20777
855.256	20762
855.39	20804
855.524	20849
855.658	20872
855.792	20876
855.926	20800
856.06	20880
856.194	20849
856.327	20644
856.461	20689
856.595	20773
856.729	20899
856.862	20956
856.996	20785
857.13	20811
857.263	20895
857.397	20830
857.53	20750
857.664	20918
857.797	20845
857.931	20952
858.064	20785
858.197	20925
858.331	20804
858.464	20773
858.597	20697
858.731	20800
858.864	20861
858.997	20663
859.13	20815
859.263	20727
859.396	20739
859.529	20834
859.662	20712
859.795	20689
859.928	20975
860.061	20925
860.194	21055
860.327	20788
860.46	20811
860.592	20804
860.725	21096
860.858	20948
860.99	20960
861.123	20754
861.256	20785
861.388	20891
861.521	21477
861.653	20632
861.786	20514
861.918	20743
862.05	20640
862.183	20746
862.315	20788
862.447	20781
862.58	20769
862.712	20476
862.844	20495
862.976	20579
863.108	20564
863.24	20971
863.372	20419
863.504	20564
863.636	20446
863.768	20651
863.9	20518
864.032	20347
864.164	20442
864.296	20598
864.428	20636
864.559	20549
864.691	20522
864.823	20537
864.954	20541
865.086	20488
865.217	20408
865.349	20438
865.48	20362
865.612	20438
865.743	20427
865.875	20488
866.006	20450
866.137	20377
866.269	20442
866.4	20423
866.531	20256
866.662	20298
866.793	20305
866.924	20419
867.055	20313
867.186	20339
867.317	20294
867.448	20252
867.579	20286
867.71	20271
867.841	20218
867.972	20351
868.103	20343
868.233	20408
868.364	20374
868.495	20461
868.625	20450
868.756	20697
868.886	20537
869.017	20648
869.147	20648
869.278	20575
869.408	20663
869.539	20583
869.669	20606
869.799	20712
869.929	20674
870.06	20781
870.19	20998
870.32	20914
870.45	20921
870.58	20998
870.71	21058
870.84	21020
870.97	20994
871.1	21009
871.23	21116
871.36	21138
871.489	21184
871.619	21150
871.749	21184
871.879	21169
872.008	21298
872.138	21214
872.267	21214
872.397	21127
872.526	20933
872.656	21043
872.785	21100
872.915	21252
873.044	21275
873.173	21127
873.303	21382
873.432	21370
873.561	21203
873.69	21256
873.819	21245
873.948	21302
874.077	21275
874.206	21165
874.335	21245
874.464	21321
874.593	21549
874.722	21397
874.851	21530
874.979	21477
875.108	21534
875.237	21469
875.365	21370
875.494	21466
875.623	21519
875.751	21367
875.88	21466
876.008	21561
876.136	21759
876.265	21892
876.393	21949
876.521	21892
876.65	21918
876.778	21972
876.906	21698
877.034	21797
877.162	21956
877.29	21774
877.418	21846
877.546	21949
877.674	21850
877.802	21884
877.93	21770
878.058	21793
878.185	21663
878.313	21861
878.441	21766
878.568	21637
878.696	21633
878.824	21808
878.951	21915
879.079	21884
879.206	22078
879.333	22032
879.461	21808
879.588	21964
879.715	22036
879.842	22025
879.97	21888
880.097	21724
880.224	21701
880.351	21743
880.478	21739
880.605	21572
880.732	21698
880.859	21949
880.986	21694
881.112	21648
881.239	21511
881.366	21351
881.493	21298
881.619	21264
881.746	21291
881.872	21169
881.999	21226
882.125	21089
882.252	21329
882.378	21077
882.505	21233
882.631	21093
882.757	20918
882.883	21024
883.01	21062
883.136	20788
883.262	20754
883.388	20826
883.514	20979
883.64	20967
883.766	20792
883.892	20678
884.018	20842
884.143	20823
884.269	21013
884.395	20602
884.52	20594
884.646	20667
884.772	20533
884.897	20469
885.023	20701
885.148	20602
885.274	20792
885.399	20674
885.524	20579
885.65	20655
885.775	20549
885.9	20522
886.025	20724
886.15	20598
886.275	20590
886.4	20560
886.525	20495
886.65	20549
886.775	20545
886.9	20655
887.025	20785
887.149	20469
887.274	20457
887.399	20415
887.523	20336
887.648	20298
887.773	20278
887.897	20408
888.021	20431
888.146	20248
888.27	20507
888.395	20480
888.519	20366
888.643	20324
888.767	20434
888.891	20320
889.015	20111
889.139	20256
889.263	20218
889.387	20206
889.511	20320
889.635	20278
889.759	20202
889.883	20119
890.006	20233
890.13	20259
890.254	19989
890.377	20126
890.501	19898
890.624	19887
890.748	19963
890.871	19696
890.995	19715
891.118	19795
891.241	19776
891.364	19780
891.488	19902
891.611	19719
891.734	19651
891.857	19662
891.98	19719
892.103	19776
892.226	19731
892.349	19700
892.471	19411
892.594	19727
892.717	19772
892.839	19639
892.962	19540
893.085	19769
893.207	19826
893.33	19529
893.452	19643
893.575	19582
893.697	19620
893.819	19791
893.941	19871
894.064	19871
894.186	19635
894.308	19582
894.43	19818
894.552	19799
894.674	19757
894.796	19693
894.918	19635
895.04	19616
895.161	19704
895.283	19620
895.405	19658
895.526	19696
895.648	19620
895.769	19613
895.891	19655
896.012	19780
896.134	19628
896.255	19700
896.376	19670
896.498	19651
896.619	19689
896.74	19582
896.861	19818
896.982	20031
897.103	20168
897.224	19841
897.345	19871
897.466	19826
897.587	19852
897.708	19921
897.828	19921
897.949	19875
898.07	19674
898.19	19868
898.311	19989
898.431	19871
898.552	19951
898.672	19978
898.792	19986
898.913	19883
899.033	19715
899.153	19609
899.273	19616
899.393	19632
899.513	19734
899.633	19670
899.753	19575
899.873	19521
899.993	19639
900.113	19609
900.232	19674
900.352	19529
900.472	19460
900.591	19346
900.711	19426
900.83	19422
900.95	19426
901.069	19529
901.189	19384
901.308	19179
901.427	19019
901.546	19038
901.665	18958
901.784	19053
901.904	18802
902.023	18764
902.141	18574
902.26	18448
902.379	18521
902.498	18547
902.617	18448
902.735	18460
902.854	18426
902.973	18437
903.091	18239
903.21	18209
903.328	18121
903.446	18121
903.565	18003
903.683	18076
903.801	17882
903.919	18011
904.038	17859
904.156	17840
904.274	17843
904.392	17756
904.51	17771
904.627	17745
904.745	17767
904.863	17817
904.981	17570
905.098	17505
905.216	17478
905.334	17436
905.451	17497
905.569	17383
905.686	17501
905.803	17436
905.921	17254
906.038	17318
906.155	17254
906.272	17117
906.389	17151
906.506	17109
906.623	17045
906.74	16991
906.857	16771
906.974	16847
907.091	17045
907.208	17143
907.324	17052
907.441	16847
907.557	16687
907.674	16767
907.79	16679
907.907	16725
908.023	16801
908.139	16744
908.256	16702
908.372	16573
908.488	16664
908.604	16485
908.72	16344
908.836	16497
908.952	16337
909.068	16474
909.184	16497
909.3	16451
909.415	16440
909.531	16447
909.647	16002
909.762	16139
909.878	16105
909.993	16173
910.108	16051
910.224	16071
910.339	16128
910.454	16025
910.57	15926
910.685	15861
910.8	16090
910.915	16093
911.03	15922
911.145	15781
911.259	15816
911.374	15751
911.489	15625
911.604	15504
911.718	15492
911.833	15538
911.947	15374
912.062	15332
912.176	15542
912.291	15553
912.405	15447
912.519	15698
912.633	15610
912.748	15568
912.862	15466
912.976	15329
913.09	15211
913.204	15294
913.318	15386
913.431	15443
913.545	15443
913.659	15401
913.772	15237
913.886	15138
914	15066
914.113	15173
914.226	15287
914.34	15165
914.453	15032
914.566	15062
914.68	15005
914.793	14994
914.906	14819
915.019	14800
915.132	14743
915.245	14724
915.358	14727
915.47	14899
915.583	14830
915.696	14758
915.809	14861
915.921	14857
916.034	14765
916.146	14727
916.259	14670
916.371	14621
916.483	14590
916.595	14526
916.708	14583
916.82	14545
916.932	14476
917.044	14549
917.156	14412
917.268	14355
917.38	14438
917.491	14396
917.603	14469
917.715	14545
917.826	14579
917.938	14294
918.049	14278
918.161	14328
918.272	14499
918.384	14537
918.495	14415
918.606	14199
918.717	14111
918.828	14225
918.939	14214
919.05	14081
919.161	14126
919.272	14062
919.383	14115
919.494	14202
919.604	14381
919.715	14084
919.826	14107
919.936	14149
920.047	14164
920.157	14084
920.267	14271
920.378	14100
920.488	14111
920.598	14332
920.708	14473
920.818	14400
920.928	14195
921.038	14438
921.148	14427
921.258	14134
921.368	13993
921.477	13852
921.587	13856
921.697	13780
921.806	13944
921.916	13784
922.025	13632
922.134	13525
922.244	13464
922.353	13613
922.462	13460
922.571	13388
922.68	13278
922.789	13217
922.898	13183
923.007	13129
923.116	13145
923.224	13206
923.333	13114
923.442	13084
923.55	13050
923.659	12993
923.767	13061
923.876	13004
923.984	13069
924.092	12977
924.201	13012
924.309	12920
924.417	13019
924.525	12821
924.633	12878
924.741	13788
924.849	12658
924.956	12844
925.064	12696
925.172	12536
925.279	12521
925.387	12532
925.494	12620
925.602	12783
925.709	12684
925.816	12597
925.924	12597
926.031	12684
926.138	12601
926.245	12616
926.352	12399
926.459	12536
926.566	12616
926.673	12502
926.779	12350
926.886	12422
926.993	12232
927.099	12194
927.206	12079
927.312	12163
927.419	12247
927.525	12224
927.631	12182
927.737	12095
927.843	12091
927.95	11912
928.056	12026
928.162	12102
928.267	12095
928.373	12555
928.479	12163
928.585	11828
928.69	12019
928.796	11950
928.901	11874
929.007	11737
929.112	11855
929.218	11817
929.323	11832
929.428	11668
929.533	11847
929.638	11726
929.743	11733
929.848	11714
929.953	11752
930.058	11581
930.163	11471
930.267	11509
930.372	11573
930.477	11512
930.581	11691
930.685	11482
930.79	11318
930.894	11379
930.998	11353
931.103	11467
931.207	11170
931.311	10987
931.415	10976
931.519	10740
931.623	10755
