Data from test_V78500241_2053.txt Node
Date: Fri Mar 25 15:24:09 CST 2022
User: usil
Spectrometer: V785-0024
Trigger mode: 0
Integration Time (sec): 4.000000E-1
Scans to average: 1
Nonlinearity correction enabled: false
Boxcar width: 0
Storing dark spectrum: false
XAxis mode: Wavelengths
Number of Pixels in Spectrum: 1024
>>>>>Begin Spectral Data<<<<<
801.071	27633
801.214	27424
801.356	27397
801.499	27184
801.641	27214
801.783	27199
801.926	27188
802.068	27077
802.211	27062
802.353	26929
802.496	26891
802.638	26686
802.78	26785
802.923	26868
803.065	26720
803.208	26609
803.35	26777
803.492	26948
803.635	26929
803.777	26804
803.919	26861
804.061	27275
804.204	27051
804.346	27001
804.488	26804
804.63	27013
804.773	26781
804.915	26948
805.057	27077
805.199	26940
805.341	27058
805.483	27085
805.626	27017
805.768	27020
805.91	27089
806.052	27176
806.194	27020
806.336	27283
806.478	27077
806.62	27039
806.762	27108
806.904	27397
807.046	27488
807.188	27553
807.33	27610
807.472	27424
807.614	27405
807.756	27401
807.898	27359
808.04	27268
808.182	27272
808.324	27313
808.465	27431
808.607	27572
808.749	27686
808.891	27789
809.033	27827
809.174	27770
809.316	27622
809.458	27846
809.6	27625
809.741	27781
809.883	27869
810.025	27892
810.166	28055
810.308	27903
810.45	27873
810.591	27747
810.733	27679
810.875	27648
811.016	27701
811.158	27427
811.299	27812
811.441	27884
811.582	27827
811.724	27580
811.865	27671
812.007	27580
812.148	27625
812.29	27709
812.431	27884
812.573	28036
812.714	28211
812.855	28226
812.997	28211
813.138	28466
813.279	28382
813.421	28135
813.562	28021
813.703	27991
813.845	27819
813.986	27663
814.127	27603
814.268	27359
814.41	27439
814.551	27374
814.692	27401
814.833	27325
814.974	27306
815.115	27351
815.256	27291
815.397	27184
815.539	27264
815.68	27169
815.821	27062
815.962	27112
816.103	27070
816.244	26982
816.385	26994
816.526	26925
816.666	26773
816.807	26480
816.948	26629
817.089	26777
817.23	26602
817.371	26716
817.512	26731
817.653	26686
817.793	26545
817.934	26609
818.075	26613
818.216	26609
818.356	26636
818.497	26492
818.638	26355
818.778	26442
818.919	26317
819.06	26419
819.2	26564
819.341	26670
819.481	26560
819.622	26864
819.762	26971
819.903	26883
820.043	26804
820.184	26716
820.324	26701
820.465	26754
820.605	26693
820.746	26701
820.886	26617
821.026	26773
821.167	26769
821.307	26670
821.447	26568
821.588	26480
821.728	26438
821.868	26225
822.008	26248
822.149	26142
822.289	26187
822.429	25875
822.569	25761
822.709	25803
822.849	25689
822.99	25609
823.13	25643
823.27	25590
823.41	25438
823.55	25324
823.69	25415
823.83	25453
823.97	25331
824.11	25335
824.25	25114
824.389	25213
824.529	25396
824.669	25126
824.809	25343
824.949	25369
825.089	25247
825.228	25206
825.368	24981
825.508	25091
825.648	25065
825.787	25065
825.927	25187
826.067	25076
826.206	25118
826.346	25091
826.485	25156
826.625	25107
826.765	25232
826.904	25206
827.044	24958
827.183	24882
827.323	24757
827.462	24844
827.601	24844
827.741	24760
827.88	24840
828.02	24802
828.159	24916
828.298	24871
828.437	24951
828.577	24901
828.716	24848
828.855	24707
828.994	24441
829.134	24604
829.273	24574
829.412	24551
829.551	24403
829.69	24399
829.829	24585
829.968	24707
830.107	24505
830.246	24509
830.385	24486
830.524	24494
830.663	24315
830.802	24197
830.941	24163
831.08	24201
831.219	24251
831.357	24167
831.496	24353
831.635	24220
831.774	24015
831.913	24057
832.051	23912
832.19	23923
832.329	23809
832.467	23817
832.606	23870
832.744	23748
832.883	23790
833.022	23646
833.16	23794
833.299	23764
833.437	23813
833.576	23794
833.714	23843
833.852	23897
833.991	24041
834.129	23950
834.267	23939
834.406	23798
834.544	23847
834.682	23912
834.821	23767
834.959	23840
835.097	23813
835.235	23984
835.373	23729
835.511	23851
835.65	23672
835.788	23672
835.926	23581
836.064	23539
836.202	23467
836.34	23748
836.478	23767
836.615	23627
836.753	23718
836.891	23802
837.029	23710
837.167	23592
837.305	23653
837.443	23531
837.58	23551
837.718	23668
837.856	23608
837.993	23410
838.131	23482
838.269	23429
838.406	23372
838.544	23429
838.681	23315
838.819	23140
838.956	23041
839.094	22915
839.231	22976
839.369	23258
839.506	23429
839.643	23235
839.781	22972
839.918	23010
840.055	23102
840.193	23014
840.33	22790
840.467	22984
840.604	22991
840.742	23193
840.879	22774
841.016	22839
841.153	22744
841.29	22976
841.427	22889
841.564	23079
841.701	22904
841.838	22755
841.975	22885
842.112	22790
842.249	22736
842.385	22596
842.522	22847
842.659	22691
842.796	22577
842.933	22691
843.069	22672
843.206	22630
843.343	22668
843.479	22649
843.616	22839
843.752	22588
843.889	22379
844.025	22550
844.162	22352
844.298	22615
844.435	22489
844.571	22363
844.708	22546
844.844	22687
844.98	22710
845.117	22508
845.253	22322
845.389	22329
845.525	22390
845.661	22390
845.798	22211
845.934	22207
846.07	22105
846.206	22284
846.342	22253
846.478	22135
846.614	22055
846.75	21903
846.886	21899
847.022	22021
847.158	21949
847.294	22109
847.429	22017
847.565	21994
847.701	22291
847.837	21656
847.972	21526
848.108	21804
848.244	21713
848.379	21469
848.515	21606
848.65	21458
848.786	21671
848.921	21534
849.057	21622
849.192	21694
849.328	21549
849.463	21496
849.598	21485
849.734	21420
849.869	21405
850.004	21389
850.14	21302
850.275	21351
850.41	21169
850.545	21173
850.68	21230
850.815	21279
850.95	21291
851.085	21386
851.22	21428
851.355	21351
851.49	21329
851.625	21256
851.76	21233
851.895	21184
852.03	21169
852.165	21310
852.299	21237
852.434	21313
852.569	21287
852.703	21268
852.838	21393
852.973	21348
853.107	21526
853.242	21351
853.376	21077
853.511	20994
853.645	21028
853.78	21245
853.914	21207
854.048	21070
854.183	21150
854.317	21127
854.451	21256
854.585	21146
854.72	21077
854.854	21165
854.988	21051
855.122	21116
855.256	20941
855.39	21192
855.524	21169
855.658	21089
855.792	21009
855.926	21100
856.06	21173
856.194	21173
856.327	21131
856.461	21070
856.595	21017
856.729	21116
856.862	21230
856.996	21169
857.13	21173
857.263	21161
857.397	21294
857.53	21077
857.664	21203
857.797	21032
857.931	21214
858.064	21211
858.197	21222
858.331	21180
858.464	21047
858.597	21005
858.731	21138
858.864	21081
858.997	21013
859.13	21062
859.263	21062
859.396	21123
859.529	20967
859.662	20986
859.795	21028
859.928	21154
860.061	21302
860.194	21344
860.327	21146
860.46	21123
860.592	21233
860.725	21119
860.858	21268
860.99	21055
861.123	21017
861.256	21066
861.388	21135
861.521	21736
861.653	20925
861.786	20895
861.918	20956
862.05	21085
862.183	21062
862.315	20960
862.447	21085
862.58	21112
862.712	20899
862.844	20735
862.976	20842
863.108	20975
863.24	21245
863.372	20792
863.504	20765
863.636	20906
863.768	20952
863.9	20754
864.032	20804
864.164	20842
864.296	20769
864.428	20773
864.559	20792
864.691	20902
864.823	20861
864.954	20781
865.086	20815
865.217	20648
865.349	20636
865.48	20697
865.612	20674
865.743	20876
865.875	20739
866.006	20720
866.137	20727
866.269	20678
866.4	20712
866.531	20659
866.662	20632
866.793	20670
866.924	20648
867.055	20636
867.186	20716
867.317	20606
867.448	20461
867.579	20670
867.71	20537
867.841	20651
867.972	20632
868.103	20640
868.233	20667
868.364	20625
868.495	20796
868.625	20853
868.756	20941
868.886	20796
869.017	20765
869.147	21005
869.278	20941
869.408	20929
869.539	20933
869.669	20986
869.799	20826
869.929	21062
870.06	21017
870.19	21150
870.32	21245
870.45	21298
870.58	21214
870.71	21408
870.84	21329
870.97	21214
871.1	21184
871.23	21614
871.36	21397
871.489	21412
871.619	21428
871.749	21496
871.879	21526
872.008	21587
872.138	21469
872.267	21515
872.397	21355
872.526	21287
872.656	21359
872.785	21272
872.915	21397
873.044	21538
873.173	21519
873.303	21500
873.432	21572
873.561	21644
873.69	21557
873.819	21466
873.948	21583
874.077	21545
874.206	21561
874.335	21458
874.464	21599
874.593	21739
874.722	21663
874.851	21823
874.979	21717
875.108	21739
875.237	21724
875.365	21690
875.494	21713
875.623	21774
875.751	21671
875.88	21842
876.008	21846
876.136	21854
876.265	22074
876.393	22268
876.521	22173
876.65	22169
876.778	22109
876.906	22017
877.034	22124
877.162	22204
877.29	22040
877.418	22150
877.546	22105
877.674	22188
877.802	22109
877.93	22021
878.058	22067
878.185	21998
878.313	22055
878.441	22029
878.568	21895
878.696	21964
878.824	22188
878.951	22063
879.079	22192
879.206	22356
879.333	22280
879.461	22124
879.588	22173
879.715	22177
879.842	22314
879.97	22036
880.097	21934
880.224	21888
880.351	21930
880.478	21895
880.605	21922
880.732	21911
880.859	22147
880.986	21831
881.112	21903
881.239	21739
881.366	21739
881.493	21675
881.619	21504
881.746	21576
881.872	21382
881.999	21405
882.125	21370
882.252	21561
882.378	21462
882.505	21488
882.631	21374
882.757	21119
882.883	21142
883.01	21245
883.136	21173
883.262	21036
883.388	21077
883.514	21226
883.64	21264
883.766	21154
883.892	20990
884.018	20956
884.143	21093
884.269	21264
884.395	20937
884.52	20735
884.646	20826
884.772	20705
884.897	20773
885.023	20830
885.148	20887
885.274	21020
885.399	20982
885.524	20864
885.65	20849
885.775	20758
885.9	20819
886.025	20994
886.15	20819
886.275	20785
886.4	20716
886.525	20697
886.65	20754
886.775	20724
886.9	20872
887.025	21036
887.149	20823
887.274	20621
887.399	20651
887.523	20495
887.648	20644
887.773	20507
887.897	20674
888.021	20678
888.146	20336
888.27	20686
888.395	20632
888.519	20590
888.643	20571
888.767	20632
888.891	20530
889.015	20450
889.139	20507
889.263	20358
889.387	20537
889.511	20514
889.635	20594
889.759	20427
889.883	20423
890.006	20385
890.13	20507
890.254	20221
890.377	20267
890.501	20077
890.624	20119
890.748	20149
890.871	20050
890.995	19986
891.118	20016
891.241	19887
891.364	19936
891.488	20088
891.611	20043
891.734	20020
891.857	20084
891.98	19978
892.103	19925
892.226	19955
892.349	19909
892.471	19852
892.594	19864
892.717	19849
892.839	19845
892.962	19989
893.085	19986
893.207	19932
893.33	19738
893.452	19822
893.575	19841
893.697	19772
893.819	19993
893.941	20134
894.064	19871
894.186	19841
894.308	19696
894.43	19978
894.552	19955
894.674	19944
894.796	19689
894.918	19959
895.04	19894
895.161	19959
895.283	19959
895.405	19776
895.526	19856
895.648	19830
895.769	19849
895.891	19917
896.012	19970
896.134	19883
896.255	19902
896.376	19780
896.498	19864
896.619	20031
896.74	19822
896.861	19928
896.982	20157
897.103	20343
897.224	20130
897.345	20187
897.466	20050
897.587	20069
897.708	20278
897.828	20176
897.949	20027
898.07	20020
898.19	19978
898.311	20233
898.431	20122
898.552	20233
898.672	20073
898.792	20233
898.913	20111
899.033	20058
899.153	19951
899.273	19807
899.393	19837
899.513	19887
899.633	19944
899.753	19852
899.873	19811
899.993	19967
900.113	19822
900.232	19776
900.352	19776
900.472	19757
900.591	19563
900.711	19571
900.83	19571
900.95	19620
901.069	19727
901.189	19502
901.308	19339
901.427	19331
901.546	19251
901.665	19221
901.784	19179
901.904	19065
902.023	18981
902.141	18920
902.26	18795
902.379	18935
902.498	18738
902.617	18688
902.735	18814
902.854	18764
902.973	18555
903.091	18395
903.21	18536
903.328	18403
903.446	18338
903.565	18315
903.683	18296
903.801	18114
903.919	18167
904.038	18159
904.156	17992
904.274	18064
904.392	18057
904.51	17927
904.627	17973
904.745	17984
904.863	17980
904.981	17771
905.098	17642
905.216	17668
905.334	17722
905.451	17642
905.569	17627
905.686	17805
905.803	17596
905.921	17440
906.038	17410
906.155	17440
906.272	17463
906.389	17288
906.506	17261
906.623	17265
906.74	17170
906.857	17181
906.974	17124
907.091	17318
907.208	17227
907.324	17162
907.441	17094
907.557	16953
907.674	16946
907.79	16835
907.907	16930
908.023	17056
908.139	17052
908.256	16919
908.372	16763
908.488	16816
908.604	16748
908.72	16653
908.836	16588
908.952	16713
909.068	16626
909.184	16763
909.3	16626
909.415	16664
909.531	16622
909.647	16325
909.762	16382
909.878	16390
909.993	16299
910.108	16402
910.224	16348
910.339	16371
910.454	16158
910.57	16215
910.685	16112
910.8	16344
910.915	16299
911.03	16116
911.145	15926
911.259	15949
911.374	15869
911.489	15915
911.604	15869
911.718	15641
911.833	15698
911.947	15561
912.062	15549
912.176	15606
912.291	15701
912.405	15644
912.519	15759
912.633	15808
912.748	15766
912.862	15660
912.976	15561
913.09	15431
913.204	15397
913.318	15580
913.431	15500
913.545	15637
913.659	15572
913.772	15428
913.886	15279
914	15272
914.113	15340
914.226	15454
914.34	15226
914.453	15188
914.566	15378
914.68	15218
914.793	15176
914.906	14914
915.019	14971
915.132	14727
915.245	14937
915.358	14910
915.47	14880
915.583	14845
915.696	14929
915.809	15055
915.921	15085
916.034	14861
916.146	14861
916.259	14758
916.371	14842
916.483	14853
916.595	14727
916.708	14758
916.82	14807
916.932	14754
917.044	14746
917.156	14659
917.268	14552
917.38	14590
917.491	14518
917.603	14560
917.715	14602
917.826	14552
917.938	14530
918.049	14412
918.161	14518
918.272	14644
918.384	14602
918.495	14522
918.606	14396
918.717	14252
918.828	14374
918.939	14339
919.05	14237
919.161	14278
919.272	14065
919.383	14172
919.494	14431
919.604	14507
919.715	14408
919.826	14244
919.936	14210
920.047	14317
920.157	14252
920.267	14412
920.378	14320
920.488	14107
920.598	14377
920.708	14636
920.818	14412
920.928	14408
921.038	14598
921.148	14454
921.258	14271
921.368	14233
921.477	14084
921.587	14161
921.697	13887
921.806	14092
921.916	13890
922.025	13814
922.134	13620
922.244	13719
922.353	13734
922.462	13563
922.571	13518
922.68	13316
922.789	13392
922.898	13365
923.007	13278
923.116	13320
923.224	13304
923.333	13251
923.442	13289
923.55	13217
923.659	13183
923.767	13266
923.876	13129
923.984	13282
924.092	13095
924.201	13183
924.309	13118
924.417	13122
924.525	13046
924.633	13015
924.741	13856
924.849	12932
924.956	12996
925.064	12764
925.172	12760
925.279	12837
925.387	12840
925.494	12665
925.602	12939
925.709	12814
925.816	12665
925.924	12688
926.031	12814
926.138	12730
926.245	12745
926.352	12570
926.459	12814
926.566	12840
926.673	12688
926.779	12506
926.886	12589
926.993	12471
927.099	12338
927.206	12319
927.312	12319
927.419	12422
927.525	12281
927.631	12342
927.737	12338
927.843	12213
927.95	12125
928.056	12243
928.162	12209
928.267	12232
928.373	12833
928.479	12254
928.585	12121
928.69	12140
928.796	12148
928.901	12034
929.007	11999
929.112	11984
929.218	12038
929.323	11961
929.428	11878
929.533	12053
929.638	11874
929.743	11878
929.848	11977
929.953	11901
930.058	11756
930.163	11710
930.267	11592
930.372	11756
930.477	11539
930.581	11798
930.685	11585
930.79	11581
930.894	11448
930.998	11436
931.103	11657
931.207	11315
931.311	11231
931.415	11018
931.519	10923
931.623	10873
