Data from test_V78500241_2150.txt Node
Date: Fri Mar 25 15:24:49 CST 2022
User: usil
Spectrometer: V785-0024
Trigger mode: 0
Integration Time (sec): 4.000000E-1
Scans to average: 1
Nonlinearity correction enabled: false
Boxcar width: 0
Storing dark spectrum: false
XAxis mode: Wavelengths
Number of Pixels in Spectrum: 1024
>>>>>Begin Spectral Data<<<<<
801.071	27580
801.214	27587
801.356	27344
801.499	27116
801.641	27199
801.783	27165
801.926	27252
802.068	27119
802.211	27077
802.353	26956
802.496	26952
802.638	26834
802.78	26731
802.923	26663
803.065	26636
803.208	26697
803.35	26773
803.492	26937
803.635	26956
803.777	26792
803.919	27017
804.061	27264
804.204	26975
804.346	27036
804.488	26830
804.63	27005
804.773	26849
804.915	27005
805.057	27055
805.199	26986
805.341	26918
805.483	27116
805.626	27100
805.768	26956
805.91	27058
806.052	27009
806.194	26918
806.336	27123
806.478	27058
806.62	27184
806.762	27150
806.904	27264
807.046	27538
807.188	27416
807.33	27572
807.472	27580
807.614	27382
807.756	27416
807.898	27306
808.04	27222
808.182	27272
808.324	27340
808.465	27367
808.607	27504
808.749	27690
808.891	27698
809.033	27759
809.174	27709
809.316	27686
809.458	27648
809.6	27652
809.741	27800
809.883	27869
810.025	27873
810.166	28017
810.308	27949
810.45	28040
810.591	27797
810.733	27682
810.875	27701
811.016	27576
811.158	27561
811.299	27816
811.441	27667
811.582	27823
811.724	27660
811.865	27606
812.007	27679
812.148	27583
812.29	27797
812.431	27861
812.573	27953
812.714	28192
812.855	28265
812.997	28337
813.138	28459
813.279	28413
813.421	28306
813.562	28196
813.703	27975
813.845	27865
813.986	27447
814.127	27462
814.268	27279
814.41	27469
814.551	27291
814.692	27477
814.833	27348
814.974	27348
815.115	27378
815.256	27260
815.397	27104
815.539	27104
815.68	27146
815.821	27013
815.962	27222
816.103	27081
816.244	27142
816.385	26902
816.526	26940
816.666	26754
816.807	26625
816.948	26697
817.089	26693
817.23	26644
817.371	26507
817.512	26625
817.653	26556
817.793	26453
817.934	26602
818.075	26617
818.216	26640
818.356	26568
818.497	26438
818.638	26313
818.778	26423
818.919	26374
819.06	26492
819.2	26469
819.341	26659
819.481	26636
819.622	26929
819.762	26914
819.903	26925
820.043	26765
820.184	26632
820.324	26659
820.465	26811
820.605	26743
820.746	26777
820.886	26499
821.026	26720
821.167	26617
821.307	26750
821.447	26644
821.588	26526
821.728	26415
821.868	26248
822.008	26111
822.149	26092
822.289	25970
822.429	25906
822.569	25849
822.709	25795
822.849	25715
822.99	25761
823.13	25575
823.27	25563
823.41	25552
823.55	25266
823.69	25441
823.83	25495
823.97	25266
824.11	25103
824.25	25266
824.389	25270
824.529	25388
824.669	25213
824.809	25270
824.949	25160
825.089	25316
825.228	25339
825.368	25171
825.508	25126
825.648	25069
825.787	25072
825.927	25080
826.067	25129
826.206	25152
826.346	25122
826.485	25225
826.625	25126
826.765	25137
826.904	25217
827.044	24939
827.183	24939
827.323	24817
827.462	24878
827.601	24878
827.741	24692
827.88	24791
828.02	24749
828.159	24730
828.298	24753
828.437	24810
828.577	24703
828.716	25034
828.855	24620
828.994	24646
829.134	24490
829.273	24593
829.412	24532
829.551	24456
829.69	24563
829.829	24669
829.968	24635
830.107	24589
830.246	24475
830.385	24486
830.524	24433
830.663	24395
830.802	24254
830.941	24148
831.08	24079
831.219	24171
831.357	24194
831.496	24296
831.635	24220
831.774	23878
831.913	23980
832.051	23866
832.19	23847
832.329	23946
832.467	23707
832.606	23870
832.744	23901
832.883	23684
833.022	23805
833.16	23794
833.299	23920
833.437	23870
833.576	23931
833.714	23783
833.852	23889
833.991	23954
834.129	24091
834.267	23965
834.406	23904
834.544	23855
834.682	23863
834.821	23798
834.959	24030
835.097	23828
835.235	23897
835.373	23794
835.511	23923
835.65	23668
835.788	23828
835.926	23512
836.064	23482
836.202	23471
836.34	23691
836.478	23771
836.615	23619
836.753	23680
836.891	23760
837.029	23767
837.167	23642
837.305	23509
837.443	23611
837.58	23398
837.718	23634
837.856	23539
837.993	23414
838.131	23433
838.269	23383
838.406	23383
838.544	23356
838.681	23185
838.819	23090
838.956	23025
839.094	22942
839.231	23056
839.369	23223
839.506	23341
839.643	23284
839.781	23018
839.918	22843
840.055	23006
840.193	22972
840.33	22896
840.467	22885
840.604	22885
840.742	23132
840.879	22824
841.016	22809
841.153	22930
841.29	23102
841.427	22885
841.564	23075
841.701	22961
841.838	22782
841.975	22816
842.112	22721
842.249	22767
842.385	22611
842.522	22801
842.659	22729
842.796	22748
842.933	22656
843.069	22573
843.206	22641
843.343	22668
843.479	22653
843.616	22805
843.752	22527
843.889	22580
844.025	22592
844.162	22462
844.298	22516
844.435	22421
844.571	22455
844.708	22417
844.844	22512
844.98	22546
845.117	22565
845.253	22348
845.389	22341
845.525	22363
845.661	22257
845.798	22128
845.934	22173
846.07	22185
846.206	22128
846.342	22310
846.478	22287
846.614	22070
846.75	21964
846.886	21918
847.022	21922
847.158	21892
847.294	21854
847.429	21846
847.565	21926
847.701	22272
847.837	21538
847.972	21667
848.108	21698
848.244	21736
848.379	21500
848.515	21564
848.65	21473
848.786	21523
848.921	21545
849.057	21485
849.192	21576
849.328	21587
849.463	21519
849.598	21488
849.734	21450
849.869	21382
850.004	21443
850.14	21275
850.275	21176
850.41	21150
850.545	21272
850.68	21291
850.815	21264
850.95	21294
851.085	21370
851.22	21412
851.355	21287
851.49	21237
851.625	21176
851.76	21131
851.895	21127
852.03	21199
852.165	21214
852.299	21230
852.434	21317
852.569	21218
852.703	21298
852.838	21348
852.973	21443
853.107	21306
853.242	21184
853.376	21211
853.511	20925
853.645	21036
853.78	21222
853.914	21108
854.048	21096
854.183	21058
854.317	21062
854.451	21256
854.585	21039
854.72	21188
854.854	21252
854.988	21013
855.122	21093
855.256	20960
855.39	21100
855.524	21108
855.658	21077
855.792	21089
855.926	21001
856.06	21077
856.194	21138
856.327	20994
856.461	20982
856.595	21066
856.729	21093
856.862	21165
856.996	21146
857.13	21192
857.263	21131
857.397	21207
857.53	21020
857.664	21127
857.797	21241
857.931	21195
858.064	21100
858.197	21199
858.331	21062
858.464	21047
858.597	20960
858.731	21047
858.864	21047
858.997	21169
859.13	21066
859.263	21108
859.396	21096
859.529	21104
859.662	21066
859.795	21085
859.928	21142
860.061	21310
860.194	21332
860.327	21112
860.46	21138
860.592	21119
860.725	21207
860.858	21211
860.99	21074
861.123	21077
861.256	21066
861.388	21138
861.521	21739
861.653	21005
861.786	20963
861.918	20887
862.05	20941
862.183	20921
862.315	20998
862.447	21157
862.58	21024
862.712	20807
862.844	20804
862.976	20838
863.108	20800
863.24	21336
863.372	20674
863.504	20785
863.636	20864
863.768	20975
863.9	20686
864.032	20670
864.164	20773
864.296	20777
864.428	20899
864.559	20830
864.691	20849
864.823	20811
864.954	20781
865.086	20804
865.217	20644
865.349	20686
865.48	20663
865.612	20750
865.743	20876
865.875	20648
866.006	20735
866.137	20667
866.269	20705
866.4	20796
866.531	20693
866.662	20632
866.793	20613
866.924	20621
867.055	20644
867.186	20777
867.317	20583
867.448	20526
867.579	20556
867.71	20495
867.841	20499
867.972	20617
868.103	20663
868.233	20640
868.364	20556
868.495	20663
868.625	20864
868.756	21024
868.886	20746
869.017	20758
869.147	20891
869.278	20971
869.408	20857
869.539	20861
869.669	21055
869.799	20861
869.929	20933
870.06	21001
870.19	21214
870.32	21005
870.45	21165
870.58	21363
870.71	21367
870.84	21291
870.97	21291
871.1	21237
871.23	21340
871.36	21530
871.489	21378
871.619	21412
871.749	21408
871.879	21488
872.008	21507
872.138	21492
872.267	21553
872.397	21245
872.526	21195
872.656	21435
872.785	21310
872.915	21466
873.044	21507
873.173	21500
873.303	21538
873.432	21545
873.561	21557
873.69	21386
873.819	21542
873.948	21435
874.077	21507
874.206	21469
874.335	21458
874.464	21641
874.593	21766
874.722	21705
874.851	21701
874.979	21762
875.108	21732
875.237	21739
875.365	21629
875.494	21530
875.623	21755
875.751	21656
875.88	21690
876.008	21892
876.136	21918
876.265	22230
876.393	22246
876.521	22219
876.65	22226
876.778	22124
876.906	22124
877.034	21983
877.162	22036
877.29	21956
877.418	21998
877.546	22131
877.674	22006
877.802	22059
877.93	22131
878.058	22010
878.185	21899
878.313	21956
878.441	22044
878.568	21785
878.696	22006
878.824	21949
878.951	22162
879.079	22265
879.206	22363
879.333	22188
879.461	21979
879.588	22158
879.715	22265
879.842	22478
879.97	22173
880.097	21819
880.224	21827
880.351	22044
880.478	21930
880.605	21842
880.732	21937
880.859	22135
880.986	21903
881.112	21854
881.239	21846
881.366	21549
881.493	21622
881.619	21606
881.746	21549
881.872	21431
881.999	21477
882.125	21401
882.252	21587
882.378	21363
882.505	21473
882.631	21367
882.757	21245
882.883	21146
883.01	21138
883.136	21104
883.262	21081
883.388	20891
883.514	21112
883.64	21207
883.766	21085
883.892	20906
884.018	20906
884.143	21089
884.269	21218
884.395	20872
884.52	20701
884.646	20853
884.772	20743
884.897	20777
885.023	20807
885.148	20800
885.274	20800
885.399	20842
885.524	20792
885.65	20788
885.775	20838
885.9	20739
886.025	20941
886.15	20880
886.275	20830
886.4	20632
886.525	20811
886.65	20689
886.775	20670
886.9	20872
887.025	20933
887.149	20842
887.274	20568
887.399	20511
887.523	20682
887.648	20484
887.773	20514
887.897	20541
888.021	20632
888.146	20560
888.27	20655
888.395	20670
888.519	20480
888.643	20575
888.767	20556
888.891	20518
889.015	20434
889.139	20461
889.263	20347
889.387	20484
889.511	20560
889.635	20556
889.759	20286
889.883	20343
890.006	20393
890.13	20484
890.254	20256
890.377	20381
890.501	20134
890.624	20187
890.748	20054
890.871	19963
890.995	19936
891.118	19970
891.241	20024
891.364	20020
891.488	20069
891.611	20081
891.734	19997
891.857	19887
891.98	19951
892.103	20016
892.226	19917
892.349	19837
892.471	19734
892.594	19993
892.717	19860
892.839	19750
892.962	19944
893.085	19902
893.207	19894
893.33	19746
893.452	19776
893.575	19894
893.697	19940
893.819	20073
893.941	19944
894.064	20005
894.186	19852
894.308	19750
894.43	20008
894.552	19913
894.674	20024
894.796	19769
894.918	19818
895.04	19841
895.161	19921
895.283	19833
895.405	19822
895.526	19780
895.648	19822
895.769	19833
895.891	19875
896.012	19947
896.134	19841
896.255	19936
896.376	19947
896.498	19795
896.619	19849
896.74	19940
896.861	20012
896.982	20252
897.103	20408
897.224	20221
897.345	20111
897.466	20031
897.587	20176
897.708	20240
897.828	20210
897.949	20115
898.07	19932
898.19	19993
898.311	20149
898.431	20069
898.552	19989
898.672	20130
898.792	20122
898.913	20039
899.033	20020
899.153	19925
899.273	19852
899.393	19780
899.513	19913
899.633	19795
899.753	19959
899.873	19818
899.993	19909
900.113	19712
900.232	19746
900.352	19780
900.472	19811
900.591	19662
900.711	19795
900.83	19594
900.95	19594
901.069	19681
901.189	19449
901.308	19209
901.427	19156
901.546	19285
901.665	19312
901.784	19251
901.904	19015
902.023	19038
902.141	18932
902.26	18642
902.379	18905
902.498	18601
902.617	18688
902.735	18806
902.854	18711
902.973	18711
903.091	18433
903.21	18525
903.328	18369
903.446	18350
903.565	18243
903.683	18205
903.801	18136
903.919	18155
904.038	18007
904.156	17958
904.274	18003
904.392	17996
904.51	17912
904.627	17931
904.745	18007
904.863	18038
904.981	17794
905.098	17627
905.216	17630
905.334	17707
905.451	17687
905.569	17573
905.686	17668
905.803	17585
905.921	17448
906.038	17551
906.155	17467
906.272	17330
906.389	17280
906.506	17223
906.623	17147
906.74	17151
906.857	17102
906.974	16999
907.091	17360
907.208	17273
907.324	17174
907.441	17128
907.557	16862
907.674	16949
907.79	16809
907.907	16843
908.023	16930
908.139	16816
908.256	16854
908.372	16820
908.488	16774
908.604	16664
908.72	16664
908.836	16596
908.952	16683
909.068	16683
909.184	16675
909.3	16660
909.415	16733
909.531	16603
909.647	16341
909.762	16375
909.878	16261
909.993	16413
910.108	16295
910.224	16325
910.339	16360
910.454	16097
910.57	16116
910.685	16120
910.8	16447
910.915	16268
911.03	16131
911.145	16006
911.259	15972
911.374	15934
911.489	15865
911.604	15781
911.718	15766
911.833	15774
911.947	15542
912.062	15492
912.176	15717
912.291	15656
912.405	15625
912.519	15892
912.633	15846
912.748	15736
912.862	15648
912.976	15557
913.09	15412
913.204	15466
913.318	15534
913.431	15603
913.545	15606
913.659	15614
913.772	15416
913.886	15321
914	15275
914.113	15382
914.226	15340
914.34	15272
914.453	15199
914.566	15272
914.68	15283
914.793	15207
914.906	15009
915.019	15039
915.132	14838
915.245	14895
915.358	14891
915.47	14956
915.583	15005
915.696	15017
915.809	14979
915.921	15085
916.034	14872
916.146	14823
916.259	14739
916.371	14967
916.483	14861
916.595	14754
916.708	14735
916.82	14773
916.932	14697
917.044	14724
917.156	14826
917.268	14602
917.38	14568
917.491	14587
917.603	14621
917.715	14716
917.826	14670
917.938	14526
918.049	14427
918.161	14556
918.272	14632
918.384	14659
918.495	14625
918.606	14366
918.717	14317
918.828	14400
918.939	14408
919.05	14202
919.161	14423
919.272	14244
919.383	14161
919.494	14374
919.604	14495
919.715	14286
919.826	14206
919.936	14324
920.047	14381
920.157	14393
920.267	14594
920.378	14336
920.488	14286
920.598	14434
920.708	14636
920.818	14499
920.928	14476
921.038	14678
921.148	14644
921.258	14301
921.368	14252
921.477	14024
921.587	14103
921.697	13913
921.806	14046
921.916	13921
922.025	13715
922.134	13681
922.244	13613
922.353	13788
922.462	13533
922.571	13422
922.68	13438
922.789	13282
922.898	13343
923.007	13377
923.116	13449
923.224	13358
923.333	13335
923.442	13206
923.55	13061
923.659	13190
923.767	13297
923.876	13084
923.984	13168
924.092	13050
924.201	13099
924.309	13099
924.417	13168
924.525	13053
924.633	12928
924.741	13894
924.849	12840
924.956	12993
925.064	12806
925.172	12715
925.279	12753
925.387	12837
925.494	12798
925.602	12924
925.709	12837
925.816	12654
925.924	12688
926.031	12798
926.138	12753
926.245	12768
926.352	12612
926.459	12749
926.566	12844
926.673	12642
926.779	12536
926.886	12517
926.993	12388
927.099	12426
927.206	12273
927.312	12357
927.419	12338
927.525	12304
927.631	12388
927.737	12239
927.843	12178
927.95	12057
928.056	12224
928.162	12178
928.267	12334
928.373	12916
928.479	12289
928.585	12072
928.69	12186
928.796	12190
928.901	12034
929.007	11809
929.112	12053
929.218	11946
929.323	11866
929.428	11946
929.533	11996
929.638	11771
929.743	11866
929.848	11992
929.953	11805
930.058	11805
930.163	11558
930.267	11680
930.372	11775
930.477	11600
930.581	11790
930.685	11642
930.79	11509
930.894	11524
930.998	11463
931.103	11638
931.207	11239
931.311	11185
931.415	11098
931.519	10889
931.623	10877
