Data from test_V78500241_1972.txt Node
Date: Fri Mar 25 15:23:35 CST 2022
User: usil
Spectrometer: V785-0024
Trigger mode: 0
Integration Time (sec): 4.000000E-1
Scans to average: 1
Nonlinearity correction enabled: false
Boxcar width: 0
Storing dark spectrum: false
XAxis mode: Wavelengths
Number of Pixels in Spectrum: 1024
>>>>>Begin Spectral Data<<<<<
801.071	27823
801.214	27880
801.356	27462
801.499	27439
801.641	27321
801.783	27412
801.926	27363
802.068	27252
802.211	27370
802.353	27283
802.496	27017
802.638	27028
802.78	26921
802.923	26849
803.065	26868
803.208	26895
803.35	26902
803.492	27036
803.635	27279
803.777	27100
803.919	27336
804.061	27431
804.204	27249
804.346	27199
804.488	27055
804.63	27195
804.773	26940
804.915	27138
805.057	27458
805.199	27165
805.341	27252
805.483	27275
805.626	27252
805.768	27222
805.91	27279
806.052	27450
806.194	27203
806.336	27439
806.478	27298
806.62	27317
806.762	27519
806.904	27526
807.046	27774
807.188	27724
807.33	27587
807.472	27812
807.614	27701
807.756	27838
807.898	27614
808.04	27477
808.182	27473
808.324	27637
808.465	27652
808.607	27861
808.749	28021
808.891	28017
809.033	28078
809.174	28143
809.316	27857
809.458	27789
809.6	27854
809.741	28010
809.883	28025
810.025	28158
810.166	28109
810.308	28299
810.45	28246
810.591	28074
810.733	28010
810.875	27987
811.016	27739
811.158	27743
811.299	27869
811.441	28055
811.582	28162
811.724	27960
811.865	27945
812.007	27968
812.148	27835
812.29	27930
812.431	28196
812.573	28200
812.714	28318
812.855	28337
812.997	28569
813.138	28702
813.279	28618
813.421	28497
813.562	28622
813.703	28200
813.845	28116
813.986	27865
814.127	27694
814.268	27679
814.41	27705
814.551	27717
814.692	27770
814.833	27443
814.974	27660
815.115	27698
815.256	27633
815.397	27538
815.539	27458
815.68	27355
815.821	27401
815.962	27378
816.103	27420
816.244	27310
816.385	27218
816.526	27249
816.666	26994
816.807	26910
816.948	27154
817.089	27077
817.23	26990
817.371	26971
817.512	26887
817.653	26769
817.793	26834
817.934	27089
818.075	26937
818.216	26918
818.356	26986
818.497	26804
818.638	26716
818.778	26682
818.919	26716
819.06	26568
819.2	26697
819.341	26925
819.481	26910
819.622	27074
819.762	27351
819.903	27028
820.043	27116
820.184	26960
820.324	27047
820.465	27051
820.605	27024
820.746	27066
820.886	26868
821.026	26971
821.167	26982
821.307	27013
821.447	26895
821.588	26796
821.728	26769
821.868	26442
822.008	26415
822.149	26400
822.289	26294
822.429	26187
822.569	26088
822.709	26122
822.849	25986
822.99	25986
823.13	25989
823.27	25864
823.41	25742
823.55	25567
823.69	25902
823.83	25734
823.97	25639
824.11	25502
824.25	25499
824.389	25487
824.529	25578
824.669	25483
824.809	25769
824.949	25708
825.089	25647
825.228	25502
825.368	25521
825.508	25362
825.648	25384
825.787	25350
825.927	25453
826.067	25411
826.206	25411
826.346	25540
826.485	25407
826.625	25304
826.765	25502
826.904	25388
827.044	25202
827.183	25103
827.323	25152
827.462	25107
827.601	25129
827.741	24962
827.88	25019
828.02	24966
828.159	25069
828.298	25118
828.437	25072
828.577	24932
828.716	25114
828.855	25065
828.994	24806
829.134	24837
829.273	24863
829.412	24764
829.551	24738
829.69	24833
829.829	24928
829.968	24916
830.107	24882
830.246	24856
830.385	24776
830.524	24749
830.663	24711
830.802	24574
830.941	24486
831.08	24422
831.219	24521
831.357	24460
831.496	24635
831.635	24490
831.774	24353
831.913	24292
832.051	24174
832.19	24239
832.329	24350
832.467	24087
832.606	24110
832.744	24121
832.883	24022
833.022	24053
833.16	24030
833.299	24159
833.437	24091
833.576	24194
833.714	24102
833.852	24133
833.991	24220
834.129	24232
834.267	24380
834.406	24216
834.544	24182
834.682	24133
834.821	24155
834.959	24384
835.097	24174
835.235	24277
835.373	24174
835.511	24159
835.65	24018
835.788	24182
835.926	23931
836.064	23722
836.202	23836
836.34	23901
836.478	24152
836.615	24034
836.753	24026
836.891	24144
837.029	23996
837.167	23946
837.305	23878
837.443	23897
837.58	23752
837.718	23908
837.856	23855
837.993	23851
838.131	23790
838.269	23836
838.406	23813
838.544	23615
838.681	23646
838.819	23543
838.956	23391
839.094	23383
839.231	23406
839.369	23414
839.506	23687
839.643	23440
839.781	23322
839.918	23223
840.055	23417
840.193	23284
840.33	23311
840.467	23235
840.604	23315
840.742	23539
840.879	23151
841.016	23132
841.153	23064
841.29	23337
841.427	23159
841.564	23204
841.701	23246
841.838	23155
841.975	23189
842.112	23140
842.249	22976
842.385	23029
842.522	23250
842.659	22965
842.796	23018
842.933	22930
843.069	23006
843.206	22885
843.343	23185
843.479	22949
843.616	23064
843.752	22839
843.889	22771
844.025	22911
844.162	22828
844.298	22873
844.435	22805
844.571	22694
844.708	22778
844.844	22923
844.98	22889
845.117	22900
845.253	22611
845.389	22577
845.525	22702
845.661	22645
845.798	22584
845.934	22455
846.07	22394
846.206	22649
846.342	22637
846.478	22497
846.614	22390
846.75	22246
846.886	22253
847.022	22287
847.158	22337
847.294	22310
847.429	22287
847.565	22211
847.701	22451
847.837	21998
847.972	21922
848.108	22063
848.244	21975
848.379	21968
848.515	21915
848.65	21671
848.786	21789
848.921	21831
849.057	21930
849.192	21842
849.328	21922
849.463	21827
849.598	21842
849.734	21800
849.869	21633
850.004	21648
850.14	21660
850.275	21606
850.41	21610
850.545	21572
850.68	21709
850.815	21580
850.95	21526
851.085	21854
851.22	21663
851.355	21614
851.49	21557
851.625	21622
851.76	21477
851.895	21481
852.03	21511
852.165	21511
852.299	21656
852.434	21831
852.569	21724
852.703	21591
852.838	21618
852.973	21671
853.107	21724
853.242	21515
853.376	21496
853.511	21336
853.645	21367
853.78	21488
853.914	21515
854.048	21447
854.183	21389
854.317	21530
854.451	21599
854.585	21393
854.72	21412
854.854	21439
854.988	21431
855.122	21424
855.256	21294
855.39	21447
855.524	21412
855.658	21329
855.792	21431
855.926	21561
856.06	21397
856.194	21466
856.327	21340
856.461	21321
856.595	21283
856.729	21405
856.862	21405
856.996	21485
857.13	21568
857.263	21641
857.397	21481
857.53	21386
857.664	21458
857.797	21450
857.931	21485
858.064	21462
858.197	21572
858.331	21420
858.464	21336
858.597	21256
858.731	21393
858.864	21466
858.997	21393
859.13	21469
859.263	21454
859.396	21519
859.529	21443
859.662	21367
859.795	21325
859.928	21507
860.061	21553
860.194	21652
860.327	21477
860.46	21420
860.592	21462
860.725	21633
860.858	21397
860.99	21439
861.123	21393
861.256	21336
861.388	21454
861.521	22010
861.653	21367
861.786	21302
861.918	21249
862.05	21306
862.183	21340
862.315	21382
862.447	21458
862.58	21378
862.712	21123
862.844	20998
862.976	21173
863.108	21173
863.24	21610
863.372	21150
863.504	21116
863.636	21146
863.768	21218
863.9	21154
864.032	21066
864.164	21195
864.296	21188
864.428	21184
864.559	21203
864.691	21161
864.823	21192
864.954	21066
865.086	21085
865.217	21043
865.349	20975
865.48	21055
865.612	21005
865.743	20994
865.875	20998
866.006	20918
866.137	20963
866.269	21036
866.4	21085
866.531	20933
866.662	21001
866.793	20986
866.924	20902
867.055	20921
867.186	21036
867.317	20895
867.448	20921
867.579	20944
867.71	20876
867.841	20880
867.972	20918
868.103	20906
868.233	21062
868.364	20887
868.495	20998
868.625	21154
868.756	21294
868.886	21135
869.017	21112
869.147	21287
869.278	21256
869.408	21195
869.539	21207
869.669	21291
869.799	21252
869.929	21252
870.06	21203
870.19	21469
870.32	21420
870.45	21473
870.58	21561
870.71	21656
870.84	21751
870.97	21523
871.1	21504
871.23	21747
871.36	21808
871.489	21736
871.619	21785
871.749	21854
871.879	21781
872.008	21865
872.138	21816
872.267	21895
872.397	21675
872.526	21591
872.656	21698
872.785	21580
872.915	21717
873.044	21983
873.173	21835
873.303	21926
873.432	21835
873.561	21823
873.69	21842
873.819	21819
873.948	21918
874.077	21804
874.206	21720
874.335	21907
874.464	21876
874.593	22090
874.722	21934
874.851	22150
874.979	22063
875.108	22048
875.237	22029
875.365	21915
875.494	21994
875.623	22078
875.751	21991
875.88	22063
876.008	22101
876.136	22268
876.265	22440
876.393	22542
876.521	22519
876.65	22474
876.778	22371
876.906	22417
877.034	22382
877.162	22306
877.29	22314
877.418	22356
877.546	22318
877.674	22322
877.802	22394
877.93	22432
878.058	22318
878.185	22310
878.313	22337
878.441	22398
878.568	22173
878.696	22310
878.824	22409
878.951	22519
879.079	22523
879.206	22713
879.333	22519
879.461	22424
879.588	22584
879.715	22596
879.842	22561
879.97	22481
880.097	22204
880.224	22314
880.351	22196
880.478	22242
880.605	22139
880.732	22192
880.859	22424
880.986	22188
881.112	22215
881.239	21994
881.366	21934
881.493	21755
881.619	21857
881.746	21774
881.872	21865
881.999	21831
882.125	21671
882.252	21781
882.378	21686
882.505	21838
882.631	21625
882.757	21504
882.883	21530
883.01	21496
883.136	21545
883.262	21386
883.388	21340
883.514	21507
883.64	21568
883.766	21511
883.892	21184
884.018	21272
884.143	21466
884.269	21591
884.395	21169
884.52	21184
884.646	21112
884.772	21043
884.897	20998
885.023	21108
885.148	21218
885.274	21237
885.399	21150
885.524	21119
885.65	21138
885.775	21226
885.9	21104
886.025	21203
886.15	21169
886.275	21036
886.4	21100
886.525	21211
886.65	20986
886.775	20986
886.9	21169
887.025	21237
887.149	21138
887.274	20979
887.399	20967
887.523	20864
887.648	20739
887.773	20811
887.897	20990
888.021	20891
888.146	20800
888.27	20929
888.395	21051
888.519	20963
888.643	20838
888.767	21013
888.891	20830
889.015	20667
889.139	20708
889.263	20617
889.387	20811
889.511	20971
889.635	20807
889.759	20632
889.883	20693
890.006	20716
890.13	20701
890.254	20556
890.377	20579
890.501	20469
890.624	20389
890.748	20461
890.871	20336
890.995	20263
891.118	20237
891.241	20229
891.364	20172
891.488	20476
891.611	20248
891.734	20195
891.857	20282
891.98	20377
892.103	20358
892.226	20195
892.349	20221
892.471	19989
892.594	20069
892.717	20309
892.839	20187
892.962	20161
893.085	20084
893.207	20244
893.33	20142
893.452	20073
893.575	20107
893.697	20111
893.819	20355
893.941	20301
894.064	20100
894.186	20096
894.308	20084
894.43	20252
894.552	20366
894.674	20233
894.796	20122
894.918	20195
895.04	20145
895.161	20286
895.283	20157
895.405	20062
895.526	20084
895.648	20210
895.769	20130
895.891	20199
896.012	20218
896.134	20218
896.255	20256
896.376	20157
896.498	20096
896.619	20218
896.74	20065
896.861	20252
896.982	20552
897.103	20648
897.224	20495
897.345	20248
897.466	20263
897.587	20301
897.708	20469
897.828	20419
897.949	20240
898.07	20256
898.19	20336
898.311	20442
898.431	20206
898.552	20408
898.672	20362
898.792	20408
898.913	20366
899.033	20237
899.153	20237
899.273	20111
899.393	20134
899.513	20130
899.633	20065
899.753	20225
899.873	20027
899.993	20111
900.113	19978
900.232	20103
900.352	19955
900.472	19875
900.591	19959
900.711	19925
900.83	19830
900.95	19890
901.069	19951
901.189	19772
901.308	19502
901.427	19491
901.546	19518
901.665	19582
901.784	19525
901.904	19350
902.023	19164
902.141	19012
902.26	19141
902.379	19012
902.498	18913
902.617	18875
902.735	18966
902.854	18996
902.973	18890
903.091	18745
903.21	18665
903.328	18585
903.446	18563
903.565	18456
903.683	18426
903.801	18399
903.919	18342
904.038	18365
904.156	18315
904.274	18224
904.392	18182
904.51	18171
904.627	18281
904.745	18247
904.863	18323
904.981	18098
905.098	17950
905.216	17863
905.334	18049
905.451	17847
905.569	17836
905.686	17901
905.803	17912
905.921	17661
906.038	17775
906.155	17600
906.272	17554
906.389	17577
906.506	17467
906.623	17406
906.74	17368
906.857	17258
906.974	17512
907.091	17520
907.208	17512
907.324	17398
907.441	17296
907.557	17155
907.674	17083
907.79	17105
907.907	17086
908.023	17147
908.139	17159
908.256	17010
908.372	17018
908.488	17025
908.604	16942
908.72	16835
908.836	16938
908.952	16843
909.068	16904
909.184	17014
909.3	16869
909.415	16790
909.531	16721
909.647	16679
909.762	16554
909.878	16634
909.993	16584
910.108	16611
910.224	16478
910.339	16588
910.454	16417
910.57	16504
910.685	16348
910.8	16580
910.915	16512
911.03	16402
911.145	16257
911.259	16147
911.374	16177
911.489	16112
911.604	16025
911.718	15998
911.833	15907
911.947	15732
912.062	15789
912.176	15884
912.291	15895
912.405	15960
912.519	16090
912.633	16135
912.748	15895
912.862	15804
912.976	15675
913.09	15633
913.204	15698
913.318	15873
913.431	15743
913.545	15781
913.659	15907
913.772	15671
913.886	15576
914	15564
914.113	15618
914.226	15652
914.34	15591
914.453	15408
914.566	15576
914.68	15367
914.793	15443
914.906	15233
915.019	15138
915.132	15036
915.245	15127
915.358	15184
915.47	15058
915.583	15226
915.696	15169
915.809	15226
915.921	15260
916.034	15081
916.146	15104
916.259	15039
916.371	15127
916.483	15116
916.595	15024
916.708	14857
916.82	14960
916.932	14925
917.044	15066
917.156	14929
917.268	14739
917.38	14838
917.491	14727
917.603	14815
917.715	14891
917.826	14788
917.938	14762
918.049	14674
918.161	14670
918.272	14887
918.384	14857
918.495	14667
918.606	14606
918.717	14564
918.828	14564
918.939	14640
919.05	14507
919.161	14518
919.272	14381
919.383	14400
919.494	14560
919.604	14731
919.715	14499
919.826	14412
919.936	14400
920.047	14629
920.157	14625
920.267	14606
920.378	14503
920.488	14450
920.598	14746
920.708	14724
920.818	14750
920.928	14678
921.038	14800
921.148	14842
921.258	14465
921.368	14351
921.477	14252
921.587	14221
921.697	14088
921.806	14237
921.916	14100
922.025	13879
922.134	13837
922.244	13871
922.353	13944
922.462	13723
922.571	13731
922.68	13544
922.789	13613
922.898	13476
923.007	13403
923.116	13533
923.224	13514
923.333	13464
923.442	13438
923.55	13316
923.659	13422
923.767	13384
923.876	13339
923.984	13388
924.092	13327
924.201	13270
924.309	13335
924.417	13228
924.525	13152
924.633	13164
924.741	13947
924.849	13088
924.956	13088
925.064	12924
925.172	12848
925.279	12924
925.387	13000
925.494	12970
925.602	13118
925.709	12947
925.816	12795
925.924	12916
926.031	12996
926.138	12905
926.245	12920
926.352	12749
926.459	12897
926.566	12894
926.673	12840
926.779	12700
926.886	12639
926.993	12551
927.099	12582
927.206	12456
927.312	12506
927.419	12547
927.525	12517
927.631	12620
927.737	12467
927.843	12327
927.95	12258
928.056	12292
928.162	12403
928.267	12376
928.373	12951
928.479	12372
928.585	12209
928.69	12247
928.796	12353
928.901	12213
929.007	12087
929.112	12216
929.218	12102
929.323	12163
929.428	12106
929.533	12106
929.638	11946
929.743	12003
929.848	12064
929.953	12034
930.058	11912
930.163	11726
930.267	11863
930.372	11874
930.477	11676
930.581	11950
930.685	11809
930.79	11589
930.894	11741
930.998	11562
931.103	11729
931.207	11429
931.311	11242
931.415	11250
931.519	10987
931.623	10995
