Data from test_V78500241_2478.txt Node
Date: Fri Mar 25 15:27:06 CST 2022
User: usil
Spectrometer: V785-0024
Trigger mode: 0
Integration Time (sec): 4.000000E-1
Scans to average: 1
Nonlinearity correction enabled: false
Boxcar width: 0
Storing dark spectrum: false
XAxis mode: Wavelengths
Number of Pixels in Spectrum: 1024
>>>>>Begin Spectral Data<<<<<
801.071	27317
801.214	27154
801.356	26948
801.499	26872
801.641	26693
801.783	26807
801.926	26678
802.068	26826
802.211	26648
802.353	26571
802.496	26358
802.638	26381
802.78	26290
802.923	26320
803.065	26275
803.208	26206
803.35	26419
803.492	26423
803.635	26549
803.777	26408
803.919	26465
804.061	26785
804.204	26549
804.346	26465
804.488	26374
804.63	26453
804.773	26408
804.915	26549
805.057	26507
805.199	26522
805.341	26488
805.483	26659
805.626	26556
805.768	26453
805.91	26598
806.052	26507
806.194	26689
806.336	26724
806.478	26625
806.62	26617
806.762	26636
806.904	26883
807.046	27013
807.188	27070
807.33	27043
807.472	27017
807.614	27017
807.756	26982
807.898	26849
808.04	26758
808.182	26785
808.324	26891
808.465	26838
808.607	27161
808.749	27256
808.891	27165
809.033	27321
809.174	27074
809.316	27089
809.458	27237
809.6	27020
809.741	27241
809.883	27249
810.025	27389
810.166	27534
810.308	27553
810.45	27344
810.591	27370
810.733	27256
810.875	27275
811.016	27089
811.158	27157
811.299	27348
811.441	27393
811.582	27424
811.724	27287
811.865	27157
812.007	27077
812.148	27119
812.29	27146
812.431	27325
812.573	27576
812.714	27534
812.855	27667
812.997	27781
813.138	27838
813.279	27728
813.421	27629
813.562	27663
813.703	27374
813.845	27363
813.986	27146
814.127	26849
814.268	26842
814.41	26788
814.551	26746
814.692	26823
814.833	26830
814.974	26689
815.115	26826
815.256	26716
815.397	26667
815.539	26583
815.68	26648
815.821	26526
815.962	26583
816.103	26575
816.244	26446
816.385	26362
816.526	26343
816.666	26157
816.807	26172
816.948	26290
817.089	26259
817.23	26084
817.371	26100
817.512	25982
817.653	26065
817.793	25997
817.934	26092
818.075	25951
818.216	26069
818.356	26062
818.497	25986
818.638	25643
818.778	25795
818.919	25818
819.06	25845
819.2	26050
819.341	26001
819.481	26065
819.622	26259
819.762	26408
819.903	26298
820.043	26267
820.184	26069
820.324	26100
820.465	26153
820.605	26309
820.746	26172
820.886	26054
821.026	26168
821.167	26164
821.307	26275
821.447	26172
821.588	25974
821.728	25788
821.868	25811
822.008	25590
822.149	25601
822.289	25578
822.429	25403
822.569	25164
822.709	25240
822.849	25137
822.99	25042
823.13	24947
823.27	24966
823.41	24764
823.55	24825
823.69	24859
823.83	24920
823.97	24802
824.11	24601
824.25	24585
824.389	24722
824.529	24768
824.669	24722
824.809	24890
824.949	24837
825.089	24753
825.228	24730
825.368	24494
825.508	24585
825.648	24509
825.787	24540
825.927	24677
826.067	24521
826.206	24665
826.346	24528
826.485	24604
826.625	24604
826.765	24688
826.904	24620
827.044	24205
827.183	24190
827.323	24304
827.462	24334
827.601	24391
827.741	24330
827.88	24350
828.02	24087
828.159	24266
828.298	24197
828.437	24350
828.577	24209
828.716	24452
828.855	24155
828.994	23893
829.134	23946
829.273	23942
829.412	24098
829.551	23855
829.69	23958
829.829	24053
829.968	24015
830.107	24041
830.246	23958
830.385	23923
830.524	23866
830.663	23741
830.802	23752
830.941	23558
831.08	23611
831.219	23531
831.357	23672
831.496	23931
831.635	23589
831.774	23589
831.913	23524
832.051	23471
832.19	23372
832.329	23379
832.467	23383
832.606	23360
832.744	23265
832.883	23197
833.022	23216
833.16	23368
833.299	23379
833.437	23185
833.576	23318
833.714	23391
833.852	23417
833.991	23258
834.129	23547
834.267	23311
834.406	23353
834.544	23356
834.682	23402
834.821	23318
834.959	23497
835.097	23330
835.235	23341
835.373	23379
835.511	23379
835.65	23288
835.788	23189
835.926	23014
836.064	23029
836.202	23067
836.34	23155
836.478	23113
836.615	23178
836.753	23094
836.891	23239
837.029	23277
837.167	23128
837.305	23105
837.443	23086
837.58	23044
837.718	23052
837.856	23010
837.993	23079
838.131	23067
838.269	22934
838.406	22946
838.544	22801
838.681	22713
838.819	22691
838.956	22459
839.094	22527
839.231	22603
839.369	22755
839.506	22858
839.643	22816
839.781	22497
839.918	22348
840.055	22398
840.193	22611
840.33	22440
840.467	22653
840.604	22535
840.742	22759
840.879	22386
841.016	22371
841.153	22417
841.29	22607
841.427	22432
841.564	22394
841.701	22527
841.838	22428
841.975	22337
842.112	22421
842.249	22363
842.385	22379
842.522	22538
842.659	22352
842.796	22322
842.933	22207
843.069	22166
843.206	22128
843.343	22382
843.479	22154
843.616	22344
843.752	21941
843.889	22036
844.025	22029
844.162	22029
844.298	22074
844.435	21869
844.571	21873
844.708	22116
844.844	22249
844.98	22143
845.117	22158
845.253	21873
845.389	21793
845.525	21888
845.661	21728
845.798	21675
845.934	21819
846.07	21694
846.206	21831
846.342	21770
846.478	21785
846.614	21523
846.75	21439
846.886	21542
847.022	21568
847.158	21591
847.294	21469
847.429	21553
847.565	21462
847.701	21743
847.837	21211
847.972	21146
848.108	21348
848.244	21146
848.379	21036
848.515	21066
848.65	21047
848.786	21192
848.921	20998
849.057	21135
849.192	21241
849.328	21131
849.463	21131
849.598	21085
849.734	20952
849.869	20861
850.004	20872
850.14	20899
850.275	20781
850.41	20731
850.545	20845
850.68	20804
850.815	20834
850.95	20857
851.085	21085
851.22	20891
851.355	20887
851.49	20830
851.625	20967
851.76	20830
851.895	20823
852.03	20853
852.165	20963
852.299	20815
852.434	20975
852.569	20956
852.703	20674
852.838	20960
852.973	20948
853.107	20918
853.242	20727
853.376	20571
853.511	20457
853.645	20686
853.78	20765
853.914	20773
854.048	20518
854.183	20644
854.317	20571
854.451	20921
854.585	20530
854.72	20598
854.854	20807
854.988	20492
855.122	20613
855.256	20473
855.39	20739
855.524	20651
855.658	20697
855.792	20609
855.926	20678
856.06	20746
856.194	20655
856.327	20598
856.461	20632
856.595	20629
856.729	20762
856.862	20697
856.996	20545
857.13	20743
857.263	20792
857.397	20606
857.53	20461
857.664	20655
857.797	20758
857.931	20712
858.064	20648
858.197	20716
858.331	20587
858.464	20423
858.597	20568
858.731	20640
858.864	20617
858.997	20640
859.13	20632
859.263	20689
859.396	20830
859.529	20659
859.662	20625
859.795	20518
859.928	20670
860.061	20815
860.194	20834
860.327	20602
860.46	20678
860.592	20804
860.725	20788
860.858	20754
860.99	20629
861.123	20686
861.256	20552
861.388	20708
861.521	21249
861.653	20473
861.786	20423
861.918	20495
862.05	20442
862.183	20674
862.315	20659
862.447	20716
862.58	20568
862.712	20301
862.844	20408
862.976	20568
863.108	20381
863.24	20807
863.372	20450
863.504	20355
863.636	20320
863.768	20419
863.9	20355
864.032	20271
864.164	20294
864.296	20343
864.428	20484
864.559	20454
864.691	20385
864.823	20446
864.954	20317
865.086	20343
865.217	20320
865.349	20153
865.48	20282
865.612	20252
865.743	20484
865.875	20366
866.006	20237
866.137	20218
866.269	20191
866.4	20225
866.531	20259
866.662	20206
866.793	20229
866.924	20233
867.055	20256
867.186	20199
867.317	20202
867.448	20024
867.579	20286
867.71	20096
867.841	20221
867.972	20195
868.103	20252
868.233	20168
868.364	20168
868.495	20389
868.625	20427
868.756	20457
868.886	20385
869.017	20393
869.147	20522
869.278	20549
869.408	20457
869.539	20434
869.669	20564
869.799	20488
869.929	20640
870.06	20659
870.19	20777
870.32	20667
870.45	20823
870.58	20788
870.71	20944
870.84	20899
870.97	20826
871.1	20845
871.23	20933
871.36	21100
871.489	20971
871.619	21001
871.749	21039
871.879	21032
872.008	21161
872.138	21180
872.267	21093
872.397	20887
872.526	20811
872.656	20933
872.785	20967
872.915	21104
873.044	21127
873.173	21058
873.303	21089
873.432	21142
873.561	21195
873.69	21093
873.819	20990
873.948	21161
874.077	21077
874.206	20956
874.335	21195
874.464	21180
874.593	21374
874.722	21279
874.851	21435
874.979	21306
875.108	21355
875.237	21222
875.365	21272
875.494	21325
875.623	21279
875.751	21272
875.88	21386
876.008	21431
876.136	21500
876.265	21690
876.393	21861
876.521	21789
876.65	21823
876.778	21770
876.906	21557
877.034	21641
877.162	21876
877.29	21534
877.418	21622
877.546	21625
877.674	21667
877.802	21614
877.93	21778
878.058	21618
878.185	21561
878.313	21530
878.441	21667
878.568	21488
878.696	21648
878.824	21785
878.951	21610
879.079	21865
879.206	21968
879.333	21774
879.461	21743
879.588	21804
879.715	21888
879.842	22059
879.97	21720
880.097	21496
880.224	21435
880.351	21557
880.478	21477
880.605	21507
880.732	21466
880.859	21793
880.986	21473
881.112	21523
881.239	21439
881.366	21180
881.493	21146
881.619	21081
881.746	21043
881.872	21047
881.999	21089
882.125	20899
882.252	21112
882.378	21032
882.505	21142
882.631	20937
882.757	20788
882.883	20986
883.01	20842
883.136	20807
883.262	20743
883.388	20560
883.514	20777
883.64	20811
883.766	20724
883.892	20613
884.018	20708
884.143	20701
884.269	20796
884.395	20465
884.52	20457
884.646	20541
884.772	20408
884.897	20317
885.023	20476
885.148	20552
885.274	20629
885.399	20514
885.524	20332
885.65	20408
885.775	20499
885.9	20362
886.025	20537
886.15	20484
886.275	20358
886.4	20366
886.525	20503
886.65	20434
886.775	20484
886.9	20537
887.025	20670
887.149	20328
887.274	20172
887.399	20202
887.523	20107
887.648	20092
887.773	20043
887.897	20332
888.021	20324
888.146	20122
888.27	20332
888.395	20328
888.519	20267
888.643	20221
888.767	20294
888.891	20107
889.015	20058
889.139	20050
889.263	19917
889.387	20149
889.511	20225
889.635	20138
889.759	20016
889.883	20031
890.006	20126
890.13	20214
890.254	19879
890.377	19967
890.501	19791
890.624	19670
890.748	19852
890.871	19651
890.995	19643
891.118	19662
891.241	19613
891.364	19586
891.488	19746
891.611	19586
891.734	19567
891.857	19677
891.98	19620
892.103	19620
892.226	19601
892.349	19651
892.471	19415
892.594	19491
892.717	19578
892.839	19449
892.962	19472
893.085	19487
893.207	19449
893.33	19441
893.452	19525
893.575	19582
893.697	19552
893.819	19670
893.941	19689
894.064	19620
894.186	19510
894.308	19483
894.43	19658
894.552	19746
894.674	19681
894.796	19457
894.918	19533
895.04	19529
895.161	19556
895.283	19597
895.405	19514
895.526	19567
895.648	19483
895.769	19533
895.891	19658
896.012	19594
896.134	19563
896.255	19575
896.376	19578
896.498	19582
896.619	19643
896.74	19696
896.861	19704
896.982	19940
897.103	20119
897.224	19803
897.345	19879
897.466	19643
897.587	19727
897.708	19974
897.828	19772
897.949	19731
898.07	19571
898.19	19780
898.311	19852
898.431	19765
898.552	19689
898.672	19799
898.792	19791
898.913	19753
899.033	19765
899.153	19586
899.273	19658
899.393	19552
899.513	19632
899.633	19537
899.753	19540
899.873	19460
899.993	19655
900.113	19495
900.232	19460
900.352	19495
900.472	19297
900.591	19343
900.711	19365
900.83	19320
900.95	19468
901.069	19464
901.189	19293
901.308	18901
901.427	18970
901.546	18882
901.665	18897
901.784	18958
901.904	18726
902.023	18757
902.141	18441
902.26	18502
902.379	18578
902.498	18429
902.617	18441
902.735	18479
902.854	18437
902.973	18376
903.091	18140
903.21	18152
903.328	18095
903.446	18038
903.565	17988
903.683	18007
903.801	17790
903.919	17779
904.038	17832
904.156	17726
904.274	17836
904.392	17710
904.51	17710
904.627	17638
904.745	17813
904.863	17691
904.981	17516
905.098	17395
905.216	17570
905.334	17368
905.451	17414
905.569	17364
905.686	17421
905.803	17444
905.921	17235
906.038	17254
906.155	17254
906.272	17109
906.389	17029
906.506	16885
906.623	16927
906.74	16839
906.857	16774
906.974	16809
907.091	16938
907.208	17041
907.324	16896
907.441	16812
907.557	16706
907.674	16596
907.79	16504
907.907	16538
908.023	16618
908.139	16634
908.256	16538
908.372	16481
908.488	16493
908.604	16398
908.72	16344
908.836	16371
908.952	16287
909.068	16291
909.184	16497
909.3	16363
909.415	16432
909.531	16322
909.647	16040
909.762	16093
909.878	16071
909.993	16059
910.108	15998
910.224	16017
910.339	15956
910.454	15873
910.57	15819
910.685	15895
910.8	15975
910.915	15991
911.03	15899
911.145	15720
911.259	15747
911.374	15762
911.489	15682
911.604	15496
911.718	15488
911.833	15492
911.947	15401
912.062	15405
912.176	15568
912.291	15564
912.405	15595
912.519	15682
912.633	15652
912.748	15511
912.862	15420
912.976	15329
913.09	15119
913.204	15268
913.318	15256
913.431	15420
913.545	15340
913.659	15363
913.772	15150
913.886	15058
914	15085
914.113	15112
914.226	15192
914.34	15142
914.453	14990
914.566	15100
914.68	14960
914.793	14880
914.906	14750
915.019	14686
915.132	14716
915.245	14640
915.358	14689
915.47	14743
915.583	14659
915.696	14735
915.809	14872
915.921	14823
916.034	14587
916.146	14594
916.259	14556
916.371	14682
916.483	14571
916.595	14594
916.708	14514
916.82	14507
916.932	14495
917.044	14465
917.156	14473
917.268	14332
917.38	14347
917.491	14278
917.603	14362
917.715	14446
917.826	14514
917.938	14332
918.049	14256
918.161	14294
918.272	14389
918.384	14408
918.495	14328
918.606	14161
918.717	14046
918.828	14062
918.939	14039
919.05	14100
919.161	14134
919.272	13967
919.383	14065
919.494	14088
919.604	14286
919.715	14134
919.826	14031
919.936	14012
920.047	14195
920.157	14050
920.267	14138
920.378	14069
920.488	14115
920.598	14256
920.708	14381
920.818	14187
920.928	14119
921.038	14454
921.148	14366
921.258	14115
921.368	13917
921.477	13822
921.587	13856
921.697	13708
921.806	13811
921.916	13677
922.025	13571
922.134	13365
922.244	13407
922.353	13529
922.462	13453
922.571	13324
922.68	13221
922.789	13122
922.898	13164
923.007	13122
923.116	13122
923.224	13175
923.333	13099
923.442	13110
923.55	12951
923.659	12939
923.767	12977
923.876	12981
923.984	13038
924.092	12829
924.201	12901
924.309	12810
924.417	12924
924.525	12768
924.633	12875
924.741	13719
924.849	12604
924.956	12722
925.064	12506
925.172	12528
925.279	12593
925.387	12604
925.494	12578
925.602	12635
925.709	12620
925.816	12563
925.924	12521
926.031	12517
926.138	12509
926.245	12521
926.352	12376
926.459	12551
926.566	12532
926.673	12437
926.779	12311
926.886	12319
926.993	12163
927.099	12232
927.206	12072
927.312	12148
927.419	12213
927.525	12235
927.631	12300
927.737	12049
927.843	11984
927.95	11901
928.056	12057
928.162	11851
928.267	12053
928.373	12703
928.479	12019
928.585	11794
928.69	11931
928.796	11965
928.901	11847
929.007	11710
929.112	11874
929.218	11859
929.323	11680
929.428	11756
929.533	11855
929.638	11638
929.743	11714
929.848	11764
929.953	11649
930.058	11509
930.163	11368
930.267	11429
930.372	11547
930.477	11322
930.581	11608
930.685	11433
930.79	11299
930.894	11364
930.998	11273
931.103	11474
931.207	11083
931.311	10896
931.415	10892
931.519	10729
931.623	10577
