Data from test_V78500241_1701.txt Node
Date: Fri Mar 25 15:21:42 CST 2022
User: usil
Spectrometer: V785-0024
Trigger mode: 0
Integration Time (sec): 4.000000E-1
Scans to average: 1
Nonlinearity correction enabled: false
Boxcar width: 0
Storing dark spectrum: false
XAxis mode: Wavelengths
Number of Pixels in Spectrum: 1024
>>>>>Begin Spectral Data<<<<<
801.071	27732
801.214	27781
801.356	27637
801.499	27351
801.641	27306
801.783	27275
801.926	27393
802.068	27401
802.211	27226
802.353	27169
802.496	27039
802.638	26918
802.78	26960
802.923	26891
803.065	26838
803.208	26933
803.35	26906
803.492	26982
803.635	27127
803.777	27009
803.919	27058
804.061	27355
804.204	27252
804.346	27127
804.488	26990
804.63	27146
804.773	27104
804.915	27237
805.057	27283
805.199	27218
805.341	27226
805.483	27256
805.626	27287
805.768	27180
805.91	27226
806.052	27291
806.194	27192
806.336	27306
806.478	27131
806.62	27279
806.762	27313
806.904	27515
807.046	27857
807.188	27644
807.33	27686
807.472	27629
807.614	27519
807.756	27705
807.898	27427
808.04	27458
808.182	27439
808.324	27648
808.465	27538
808.607	27679
808.749	27899
808.891	27979
809.033	28112
809.174	27857
809.316	27736
809.458	27926
809.6	27804
809.741	28040
809.883	28112
810.025	28219
810.166	28223
810.308	28188
810.45	28029
810.591	28002
810.733	27899
810.875	27717
811.016	27660
811.158	27827
811.299	27972
811.441	28105
811.582	27880
811.724	27941
811.865	27774
812.007	27903
812.148	27854
812.29	27945
812.431	28040
812.573	28276
812.714	28162
812.855	28390
812.997	28512
813.138	28599
813.279	28360
813.421	28333
813.562	28360
813.703	28246
813.845	28036
813.986	27781
814.127	27587
814.268	27469
814.41	27534
814.551	27618
814.692	27496
814.833	27450
814.974	27545
815.115	27583
815.256	27511
815.397	27492
815.539	27382
815.68	27272
815.821	27108
815.962	27359
816.103	27291
816.244	27226
816.385	27146
816.526	27131
816.666	26940
816.807	26868
816.948	26998
817.089	27032
817.23	26853
817.371	26701
817.512	26895
817.653	26853
817.793	26667
817.934	26845
818.075	26895
818.216	26838
818.356	26674
818.497	26712
818.638	26518
818.778	26651
818.919	26579
819.06	26507
819.2	26632
819.341	26883
819.481	26880
819.622	26979
819.762	27062
819.903	27199
820.043	27085
820.184	26940
820.324	27055
820.465	27070
820.605	26990
820.746	26967
820.886	26750
821.026	26933
821.167	26727
821.307	26990
821.447	26796
821.588	26678
821.728	26629
821.868	26511
822.008	26343
822.149	26328
822.289	26351
822.429	26062
822.569	25989
822.709	25898
822.849	25856
822.99	25841
823.13	25696
823.27	25753
823.41	25635
823.55	25559
823.69	25578
823.83	25765
823.97	25734
824.11	25407
824.25	25316
824.389	25373
824.529	25407
824.669	25441
824.809	25582
824.949	25495
825.089	25525
825.228	25422
825.368	25377
825.508	25339
825.648	25255
825.787	25240
825.927	25365
826.067	25266
826.206	25301
826.346	25282
826.485	25460
826.625	25312
826.765	25407
826.904	25476
827.044	25095
827.183	25164
827.323	25069
827.462	25122
827.601	25038
827.741	24985
827.88	25122
828.02	24989
828.159	25076
828.298	25027
828.437	25080
828.577	25004
828.716	25129
828.855	24913
828.994	24700
829.134	24776
829.273	24776
829.412	24639
829.551	24688
829.69	24646
829.829	24650
829.968	24741
830.107	24840
830.246	24776
830.385	24681
830.524	24768
830.663	24437
830.802	24418
830.941	24471
831.08	24315
831.219	24437
831.357	24483
831.496	24528
831.635	24357
831.774	24251
831.913	24095
832.051	24197
832.19	24095
832.329	24136
832.467	24110
832.606	23939
832.744	24045
832.883	23935
833.022	24041
833.16	23969
833.299	24007
833.437	24083
833.576	24190
833.714	24106
833.852	24136
833.991	24194
834.129	24209
834.267	24167
834.406	24053
834.544	24121
834.682	24068
834.821	24110
834.959	24403
835.097	24129
835.235	24064
835.373	23920
835.511	23992
835.65	23973
835.788	24057
835.926	23973
836.064	23813
836.202	23680
836.34	23897
836.478	24003
836.615	23786
836.753	23954
836.891	24022
837.029	23878
837.167	23809
837.305	23882
837.443	23802
837.58	23794
837.718	23756
837.856	23710
837.993	23714
838.131	23794
838.269	23653
838.406	23562
838.544	23630
838.681	23448
838.819	23433
838.956	23280
839.094	23200
839.231	23242
839.369	23429
839.506	23672
839.643	23509
839.781	23360
839.918	23117
840.055	23349
840.193	23212
840.33	23159
840.467	22965
840.604	23277
840.742	23455
840.879	23086
841.016	23090
841.153	23090
841.29	23162
841.427	23136
841.564	23265
841.701	23094
841.838	23105
841.975	22980
842.112	22980
842.249	22915
842.385	22911
842.522	23090
842.659	22976
842.796	22896
842.933	22892
843.069	22927
843.206	22942
843.343	22961
843.479	22961
843.616	22980
843.752	22824
843.889	22755
844.025	22854
844.162	22717
844.298	22835
844.435	22786
844.571	22759
844.708	22702
844.844	22843
844.98	22771
845.117	22786
845.253	22622
845.389	22607
845.525	22675
845.661	22485
845.798	22428
845.934	22512
846.07	22466
846.206	22561
846.342	22569
846.478	22466
846.614	22356
846.75	22048
846.886	22394
847.022	22207
847.158	22162
847.294	22242
847.429	22211
847.565	22055
847.701	22447
847.837	21892
847.972	21808
848.108	22013
848.244	21975
848.379	21812
848.515	21762
848.65	21812
848.786	21797
848.921	21720
849.057	21804
849.192	21720
849.328	21827
849.463	21739
849.598	21660
849.734	21705
849.869	21591
850.004	21580
850.14	21580
850.275	21454
850.41	21507
850.545	21576
850.68	21542
850.815	21412
850.95	21542
851.085	21713
851.22	21595
851.355	21572
851.49	21530
851.625	21580
851.76	21599
851.895	21431
852.03	21462
852.165	21462
852.299	21576
852.434	21591
852.569	21534
852.703	21610
852.838	21690
852.973	21652
853.107	21766
853.242	21488
853.376	21298
853.511	21283
853.645	21313
853.78	21469
853.914	21363
854.048	21355
854.183	21306
854.317	21424
854.451	21462
854.585	21313
854.72	21268
854.854	21401
854.988	21306
855.122	21386
855.256	21161
855.39	21283
855.524	21473
855.658	21389
855.792	21458
855.926	21359
856.06	21264
856.194	21302
856.327	21355
856.461	21298
856.595	21233
856.729	21317
856.862	21511
856.996	21439
857.13	21401
857.263	21477
857.397	21416
857.53	21325
857.664	21481
857.797	21420
857.931	21496
858.064	21382
858.197	21542
858.331	21374
858.464	21272
858.597	21214
858.731	21386
858.864	21389
858.997	21256
859.13	21332
859.263	21393
859.396	21420
859.529	21329
859.662	21298
859.795	21367
859.928	21363
860.061	21633
860.194	21576
860.327	21416
860.46	21367
860.592	21485
860.725	21587
860.858	21511
860.99	21408
861.123	21173
861.256	21340
861.388	21294
861.521	22010
861.653	21298
861.786	21127
861.918	21184
862.05	21150
862.183	21245
862.315	21325
862.447	21272
862.58	21389
862.712	21043
862.844	21028
862.976	21199
863.108	21032
863.24	21374
863.372	21062
863.504	21032
863.636	21085
863.768	21066
863.9	21036
864.032	21043
864.164	20982
864.296	21028
864.428	21127
864.559	21116
864.691	21150
864.823	21074
864.954	21180
865.086	21047
865.217	20948
865.349	20887
865.48	20883
865.612	20975
865.743	21077
865.875	21039
866.006	20819
866.137	20902
866.269	20982
866.4	20971
866.531	20849
866.662	20823
866.793	20823
866.924	20800
867.055	20914
867.186	20899
867.317	20853
867.448	20701
867.579	20921
867.71	20842
867.841	20788
867.972	20861
868.103	20762
868.233	20906
868.364	20743
868.495	20811
868.625	21089
868.756	21104
868.886	21180
869.017	21112
869.147	21325
869.278	21199
869.408	21214
869.539	21123
869.669	21157
869.799	21150
869.929	21230
870.06	21203
870.19	21447
870.32	21351
870.45	21249
870.58	21561
870.71	21580
870.84	21599
870.97	21447
871.1	21561
871.23	21625
871.36	21690
871.489	21603
871.619	21614
871.749	21618
871.879	21679
872.008	21857
872.138	21709
872.267	21606
872.397	21656
872.526	21477
872.656	21553
872.785	21530
872.915	21629
873.044	21781
873.173	21701
873.303	21751
873.432	21728
873.561	21838
873.69	21770
873.819	21728
873.948	21766
874.077	21720
874.206	21762
874.335	21720
874.464	21812
874.593	21975
874.722	21949
874.851	21941
874.979	22051
875.108	22055
875.237	21873
875.365	21812
875.494	21892
875.623	22086
875.751	22013
875.88	21998
876.008	22230
876.136	22109
876.265	22284
876.393	22481
876.521	22405
876.65	22481
876.778	22352
876.906	22253
877.034	22310
877.162	22398
877.29	22409
877.418	22272
877.546	22382
877.674	22306
877.802	22272
877.93	22371
878.058	22249
878.185	22177
878.313	22291
878.441	22299
878.568	22078
878.696	22246
878.824	22276
878.951	22394
879.079	22531
879.206	22580
879.333	22512
879.461	22386
879.588	22356
879.715	22402
879.842	22561
879.97	22329
880.097	22215
880.224	22109
880.351	22135
880.478	22143
880.605	22173
880.732	22139
880.859	22333
880.986	22150
881.112	22143
881.239	21922
881.366	21812
881.493	21895
881.619	21694
881.746	21671
881.872	21808
881.999	21644
882.125	21713
882.252	21865
882.378	21599
882.505	21876
882.631	21614
882.757	21408
882.883	21523
883.01	21431
883.136	21325
883.262	21321
883.388	21237
883.514	21424
883.64	21515
883.766	21317
883.892	21203
884.018	21249
884.143	21424
884.269	21469
884.395	21081
884.52	21104
884.646	21085
884.772	20956
884.897	20979
885.023	21112
885.148	21119
885.274	21100
885.399	21180
885.524	21001
885.65	20902
885.775	21116
885.9	20979
886.025	21161
886.15	21169
886.275	21009
886.4	20990
886.525	20963
886.65	21161
886.775	21017
886.9	21062
887.025	21264
887.149	21131
887.274	20792
887.399	20819
887.523	20819
887.648	20849
887.773	20746
887.897	20868
888.021	20815
888.146	20834
888.27	20819
888.395	20834
888.519	20887
888.643	20823
888.767	20925
888.891	20750
889.015	20686
889.139	20644
889.263	20587
889.387	20617
889.511	20773
889.635	20804
889.759	20431
889.883	20495
890.006	20613
890.13	20701
890.254	20507
890.377	20571
890.501	20362
890.624	20385
890.748	20438
890.871	20320
890.995	20176
891.118	20168
891.241	20119
891.364	20130
891.488	20313
891.611	20115
891.734	20301
891.857	20305
891.98	20142
892.103	20240
892.226	20199
892.349	20065
892.471	20016
892.594	20062
892.717	20088
892.839	20077
892.962	20134
893.085	20176
893.207	20130
893.33	19967
893.452	20039
893.575	20115
893.697	20168
893.819	20278
893.941	20355
894.064	20267
894.186	20024
894.308	20024
894.43	20176
894.552	20259
894.674	20115
894.796	20035
894.918	20107
895.04	20008
895.161	20119
895.283	19997
895.405	20058
895.526	20130
895.648	19989
895.769	20126
895.891	20065
896.012	20153
896.134	20168
896.255	20111
896.376	20069
896.498	20149
896.619	20084
896.74	20069
896.861	20096
896.982	20393
897.103	20564
897.224	20423
897.345	20282
897.466	20248
897.587	20199
897.708	20423
897.828	20473
897.949	20164
898.07	20065
898.19	20347
898.311	20305
898.431	20191
898.552	20278
898.672	20396
898.792	20298
898.913	20351
899.033	20081
899.153	20058
899.273	19944
899.393	20039
899.513	20115
899.633	20054
899.753	20081
899.873	19967
899.993	20084
900.113	20035
900.232	20107
900.352	19906
900.472	19967
900.591	19909
900.711	19753
900.83	19761
900.95	19852
901.069	19894
901.189	19708
901.308	19578
901.427	19392
901.546	19411
901.665	19373
901.784	19297
901.904	19270
902.023	19107
902.141	19023
902.26	18890
902.379	18894
902.498	18920
902.617	18779
902.735	18970
902.854	18859
902.973	18844
903.091	18623
903.21	18528
903.328	18536
903.446	18506
903.565	18395
903.683	18486
903.801	18239
903.919	18395
904.038	18422
904.156	18155
904.274	18186
904.392	18140
904.51	18171
904.627	18167
904.745	18258
904.863	18182
904.981	18045
905.098	17863
905.216	17802
905.334	17794
905.451	17836
905.569	17779
905.686	17855
905.803	17840
905.921	17611
906.038	17710
906.155	17661
906.272	17589
906.389	17452
906.506	17410
906.623	17417
906.74	17406
906.857	17239
906.974	17132
907.091	17478
907.208	17455
907.324	17455
907.441	17189
907.557	17155
907.674	17105
907.79	16991
907.907	16961
908.023	17083
908.139	17098
908.256	17022
908.372	17033
908.488	16949
908.604	16816
908.72	16717
908.836	16877
908.952	16729
909.068	16812
909.184	16919
909.3	16721
909.415	16793
909.531	16763
909.647	16599
909.762	16550
909.878	16440
909.993	16527
910.108	16516
910.224	16470
910.339	16478
910.454	16341
910.57	16363
910.685	16242
910.8	16550
910.915	16592
911.03	16379
911.145	16154
911.259	16154
911.374	16013
911.489	16040
911.604	15945
911.718	15838
911.833	15873
911.947	15800
912.062	15686
912.176	15835
912.291	15918
912.405	15819
912.519	15934
912.633	16124
912.748	15838
912.862	15747
912.976	15648
913.09	15606
913.204	15584
913.318	15690
913.431	15827
913.545	15789
913.659	15717
913.772	15641
913.886	15545
914	15355
914.113	15500
914.226	15625
914.34	15439
914.453	15279
914.566	15526
914.68	15348
914.793	15241
914.906	15104
915.019	15066
915.132	15001
915.245	15108
915.358	15161
915.47	15070
915.583	15039
915.696	15020
915.809	15135
915.921	15237
916.034	15001
916.146	15077
916.259	14967
916.371	15104
916.483	15051
916.595	14910
916.708	14944
916.82	14906
916.932	14891
917.044	14754
917.156	14819
917.268	14762
917.38	14800
917.491	14659
917.603	14712
917.715	14762
917.826	14777
917.938	14705
918.049	14545
918.161	14716
918.272	14815
918.384	14845
918.495	14629
918.606	14503
918.717	14469
918.828	14545
918.939	14495
919.05	14404
919.161	14415
919.272	14305
919.383	14313
919.494	14552
919.604	14674
919.715	14503
919.826	14408
919.936	14423
920.047	14473
920.157	14446
920.267	14610
920.378	14495
920.488	14469
920.598	14606
920.708	14769
920.818	14583
920.928	14522
921.038	14670
921.148	14689
921.258	14396
921.368	14267
921.477	14187
921.587	14233
921.697	14016
921.806	14172
921.916	14058
922.025	13890
922.134	13845
922.244	13765
922.353	13795
922.462	13712
922.571	13628
922.68	13533
922.789	13483
922.898	13468
923.007	13369
923.116	13487
923.224	13388
923.333	13472
923.442	13251
923.55	13278
923.659	13308
923.767	13316
923.876	13244
923.984	13343
924.092	13217
924.201	13221
924.309	13282
924.417	13175
924.525	13095
924.633	13213
924.741	13894
924.849	12966
924.956	13149
925.064	12886
925.172	12798
925.279	12875
925.387	12939
925.494	12886
925.602	13023
925.709	12943
925.816	12715
925.924	12852
926.031	12954
926.138	12871
926.245	12958
926.352	12658
926.459	12916
926.566	12958
926.673	12741
926.779	12631
926.886	12593
926.993	12445
927.099	12456
927.206	12467
927.312	12429
927.419	12479
927.525	12433
927.631	12464
927.737	12448
927.843	12346
927.95	12315
928.056	12330
928.162	12334
928.267	12327
928.373	12821
928.479	12353
928.585	12167
928.69	12277
928.796	12334
928.901	12232
929.007	11988
929.112	12201
929.218	12057
929.323	12072
929.428	11912
929.533	12091
929.638	11927
929.743	11973
929.848	12049
929.953	11935
930.058	11836
930.163	11691
930.267	11657
930.372	11745
930.477	11589
930.581	11843
930.685	11783
930.79	11589
930.894	11672
930.998	11566
931.103	11695
931.207	11349
931.311	11216
931.415	11204
931.519	10934
931.623	11010
