Data from test_V78500241_377.txt Node
Date: Fri Mar 25 15:12:29 CST 2022
User: usil
Spectrometer: V785-0024
Trigger mode: 0
Integration Time (sec): 4.000000E-1
Scans to average: 1
Nonlinearity correction enabled: false
Boxcar width: 0
Storing dark spectrum: false
XAxis mode: Wavelengths
Number of Pixels in Spectrum: 1024
>>>>>Begin Spectral Data<<<<<
801.071	26845
801.214	26883
801.356	26549
801.499	26450
801.641	26404
801.783	26480
801.926	26488
802.068	26374
802.211	26366
802.353	26252
802.496	26134
802.638	26050
802.78	26096
802.923	25993
803.065	25982
803.208	26008
803.35	25963
803.492	26199
803.635	26187
803.777	26153
803.919	26172
804.061	26488
804.204	26187
804.346	26062
804.488	26039
804.63	26115
804.773	26202
804.915	26183
805.057	26191
805.199	26054
805.341	26221
805.483	26168
805.626	26164
805.768	26115
805.91	26282
806.052	26309
806.194	26145
806.336	26404
806.478	26225
806.62	26035
806.762	26355
806.904	26450
807.046	26750
807.188	26686
807.33	26754
807.472	26842
807.614	26560
807.756	26545
807.898	26568
808.04	26450
808.182	26533
808.324	26484
808.465	26396
808.607	26693
808.749	26819
808.891	27039
809.033	27112
809.174	27036
809.316	26804
809.458	26845
809.6	26743
809.741	26876
809.883	26902
810.025	27108
810.166	27157
810.308	27157
810.45	26971
810.591	27047
810.733	26925
810.875	26956
811.016	26746
811.158	26678
811.299	26948
811.441	26940
811.582	27089
811.724	26876
811.865	26686
812.007	26834
812.148	26750
812.29	26773
812.431	26937
812.573	27169
812.714	27211
812.855	27260
812.997	27439
813.138	27496
813.279	27431
813.421	27359
813.562	27344
813.703	27055
813.845	26956
813.986	26785
814.127	26629
814.268	26568
814.41	26366
814.551	26412
814.692	26579
814.833	26450
814.974	26320
815.115	26434
815.256	26244
815.397	26301
815.539	26431
815.68	26237
815.821	26202
815.962	26412
816.103	26275
816.244	26218
816.385	26081
816.526	26005
816.666	25947
816.807	25742
816.948	25807
817.089	25883
817.23	25757
817.371	25849
817.512	25826
817.653	25712
817.793	25757
817.934	25795
818.075	25670
818.216	25845
818.356	25700
818.497	25537
818.638	25400
818.778	25578
818.919	25537
819.06	25655
819.2	25540
819.341	25666
819.481	25677
819.622	25887
819.762	26100
819.903	26031
820.043	25811
820.184	25928
820.324	25582
820.465	25864
820.605	25856
820.746	25856
820.886	25788
821.026	25909
821.167	25833
821.307	25868
821.447	25715
821.588	25552
821.728	25548
821.868	25354
822.008	25304
822.149	25206
822.289	25202
822.429	24852
822.569	24837
822.709	24935
822.849	24597
822.99	24707
823.13	24806
823.27	24623
823.41	24574
823.55	24502
823.69	24464
823.83	24601
823.97	24437
824.11	24403
824.25	24262
824.389	24334
824.529	24540
824.669	24247
824.809	24418
824.949	24346
825.089	24456
825.228	24281
825.368	24129
825.508	24243
825.648	24266
825.787	24315
825.927	24205
826.067	24182
826.206	24292
826.346	24178
826.485	24201
826.625	24163
826.765	24300
826.904	24270
827.044	24060
827.183	23984
827.323	23843
827.462	24011
827.601	23859
827.741	23859
827.88	23897
828.02	23767
828.159	23901
828.298	23984
828.437	24045
828.577	23821
828.716	23935
828.855	23840
828.994	23733
829.134	23729
829.273	23646
829.412	23448
829.551	23642
829.69	23566
829.829	23642
829.968	23809
830.107	23741
830.246	23729
830.385	23520
830.524	23520
830.663	23452
830.802	23280
830.941	23303
831.08	23174
831.219	23345
831.357	23391
831.496	23490
831.635	23311
831.774	23178
831.913	23029
832.051	22991
832.19	23056
832.329	23014
832.467	22919
832.606	22873
832.744	22862
832.883	22938
833.022	22896
833.16	22999
833.299	22881
833.437	22949
833.576	22991
833.714	22942
833.852	23155
833.991	23117
834.129	23117
834.267	23079
834.406	22957
834.544	22972
834.682	23117
834.821	22892
834.959	23189
835.097	22877
835.235	23147
835.373	22999
835.511	22995
835.65	22885
835.788	22877
835.926	22786
836.064	22611
836.202	22630
836.34	22809
836.478	23041
836.615	22892
836.753	22858
836.891	22862
837.029	22847
837.167	22786
837.305	22869
837.443	22797
837.58	22771
837.718	22930
837.856	22759
837.993	22645
838.131	22771
838.269	22535
838.406	22588
838.544	22519
838.681	22451
838.819	22322
838.956	22169
839.094	22135
839.231	22246
839.369	22299
839.506	22584
839.643	22371
839.781	22211
839.918	22124
840.055	22143
840.193	22067
840.33	22143
840.467	22082
840.604	22051
840.742	22390
840.879	22055
841.016	21968
841.153	21865
841.29	22242
841.427	22131
841.564	22143
841.701	22021
841.838	22124
841.975	22055
842.112	22090
842.249	21918
842.385	21812
842.522	22048
842.659	21899
842.796	21857
842.933	21907
843.069	21823
843.206	21778
843.343	21960
843.479	21960
843.616	21808
843.752	21671
843.889	21705
844.025	21842
844.162	21591
844.298	21717
844.435	21641
844.571	21595
844.708	21736
844.844	21812
844.98	21797
845.117	21762
845.253	21625
845.389	21526
845.525	21606
845.661	21454
845.798	21469
845.934	21469
846.07	21405
846.206	21515
846.342	21488
846.478	21389
846.614	21176
846.75	21093
846.886	21192
847.022	21260
847.158	21108
847.294	21077
847.429	21165
847.565	21058
847.701	21336
847.837	20910
847.972	20902
848.108	20948
848.244	20994
848.379	20648
848.515	20769
848.65	20765
848.786	20739
848.921	20674
849.057	20914
849.192	20815
849.328	20758
849.463	20838
849.598	20693
849.734	20727
849.869	20606
850.004	20461
850.14	20648
850.275	20526
850.41	20522
850.545	20423
850.68	20400
850.815	20530
850.95	20450
851.085	20705
851.22	20613
851.355	20533
851.49	20476
851.625	20522
851.76	20522
851.895	20434
852.03	20339
852.165	20336
852.299	20598
852.434	20590
852.569	20590
852.703	20492
852.838	20579
852.973	20644
853.107	20503
853.242	20480
853.376	20366
853.511	20240
853.645	20351
853.78	20495
853.914	20305
854.048	20237
854.183	20324
854.317	20244
854.451	20499
854.585	20351
854.72	20358
854.854	20408
854.988	20259
855.122	20275
855.256	20233
855.39	20229
855.524	20290
855.658	20404
855.792	20343
855.926	20370
856.06	20324
856.194	20461
856.327	20366
856.461	20256
856.595	20275
856.729	20271
856.862	20480
856.996	20400
857.13	20427
857.263	20545
857.397	20415
857.53	20461
857.664	20400
857.797	20320
857.931	20461
858.064	20374
858.197	20450
858.331	20301
858.464	20271
858.597	20153
858.731	20362
858.864	20286
858.997	20164
859.13	20328
859.263	20328
859.396	20469
859.529	20259
859.662	20393
859.795	20183
859.928	20301
860.061	20526
860.194	20537
860.327	20332
860.46	20252
860.592	20400
860.725	20438
860.858	20377
860.99	20385
861.123	20210
861.256	20267
861.388	20355
861.521	20883
861.653	20271
861.786	20195
861.918	20145
862.05	20199
862.183	20202
862.315	20259
862.447	20370
862.58	20237
862.712	20027
862.844	19951
862.976	20180
863.108	20157
863.24	20511
863.372	19993
863.504	20020
863.636	20050
863.768	20005
863.9	20031
864.032	19982
864.164	19989
864.296	20115
864.428	20096
864.559	20065
864.691	20149
864.823	20100
864.954	20039
865.086	20012
865.217	20062
865.349	19784
865.48	19974
865.612	19997
865.743	20088
865.875	20039
866.006	20039
866.137	19993
866.269	19887
866.4	19967
866.531	19868
866.662	19875
866.793	19947
866.924	19868
867.055	19921
867.186	19776
867.317	19738
867.448	19967
867.579	19887
867.71	19879
867.841	19814
867.972	19963
868.103	19902
868.233	19955
868.364	19803
868.495	19993
868.625	20084
868.756	20393
868.886	20100
869.017	20210
869.147	20278
869.278	20343
869.408	20180
869.539	20069
869.669	20180
869.799	20271
869.929	20286
870.06	20240
870.19	20484
870.32	20480
870.45	20450
870.58	20564
870.71	20743
870.84	20716
870.97	20583
871.1	20575
871.23	20708
871.36	20708
871.489	20659
871.619	20891
871.749	20667
871.879	20724
872.008	20853
872.138	20720
872.267	20788
872.397	20735
872.526	20560
872.656	20648
872.785	20655
872.915	20708
873.044	20857
873.173	20914
873.303	20800
873.432	20838
873.561	20857
873.69	20804
873.819	20739
873.948	20914
874.077	20914
874.206	20746
874.335	20769
874.464	20845
874.593	21013
874.722	20921
874.851	21131
874.979	21112
875.108	21081
875.237	21017
875.365	20944
875.494	20929
875.623	21081
875.751	21074
875.88	21104
876.008	21081
876.136	21192
876.265	21511
876.393	21610
876.521	21504
876.65	21393
876.778	21469
876.906	21336
877.034	21348
877.162	21450
877.29	21370
877.418	21275
877.546	21412
877.674	21378
877.802	21412
877.93	21424
878.058	21279
878.185	21252
878.313	21370
878.441	21340
878.568	21188
878.696	21469
878.824	21462
878.951	21473
879.079	21568
879.206	21679
879.333	21538
879.461	21500
879.588	21500
879.715	21599
879.842	21717
879.97	21443
880.097	21150
880.224	21214
880.351	21195
880.478	21283
880.605	21062
880.732	21260
880.859	21428
880.986	21112
881.112	21192
881.239	20990
881.366	20979
881.493	20845
881.619	20788
881.746	20830
881.872	20743
881.999	20708
882.125	20804
882.252	20861
882.378	20872
882.505	20811
882.631	20727
882.757	20590
882.883	20602
883.01	20499
883.136	20480
883.262	20381
883.388	20389
883.514	20495
883.64	20469
883.766	20469
883.892	20286
884.018	20419
884.143	20492
884.269	20450
884.395	20164
884.52	20244
884.646	20107
884.772	20077
884.897	20077
885.023	20278
885.148	20134
885.274	20320
885.399	20275
885.524	20168
885.65	20119
885.775	20256
885.9	20088
886.025	20259
886.15	20191
886.275	20046
886.4	20119
886.525	20062
886.65	20130
886.775	20077
886.9	20313
887.025	20381
887.149	20172
887.274	19925
887.399	19944
887.523	19944
887.648	19921
887.773	19830
887.897	20122
888.021	19959
888.146	19807
888.27	20092
888.395	19989
888.519	19894
888.643	19894
888.767	20016
888.891	19925
889.015	19811
889.139	19700
889.263	19742
889.387	19951
889.511	20031
889.635	19833
889.759	19719
889.883	19788
890.006	19799
890.13	19776
890.254	19681
890.377	19544
890.501	19563
890.624	19468
890.748	19529
890.871	19453
890.995	19289
891.118	19362
891.241	19335
891.364	19350
891.488	19521
891.611	19335
891.734	19270
891.857	19312
891.98	19244
892.103	19324
892.226	19327
892.349	19266
892.471	19160
892.594	19263
892.717	19183
892.839	19274
892.962	19251
893.085	19335
893.207	19324
893.33	19012
893.452	19148
893.575	19346
893.697	19194
893.819	19407
893.941	19460
894.064	19426
894.186	19137
894.308	19080
894.43	19324
894.552	19346
894.674	19354
894.796	19114
894.918	19198
895.04	19289
895.161	19324
895.283	19320
895.405	19236
895.526	19293
895.648	19274
895.769	19419
895.891	19381
896.012	19343
896.134	19365
896.255	19331
896.376	19308
896.498	19221
896.619	19346
896.74	19240
896.861	19373
896.982	19529
897.103	19715
897.224	19445
897.345	19533
897.466	19411
897.587	19590
897.708	19635
897.828	19514
897.949	19483
898.07	19324
898.19	19400
898.311	19529
898.431	19400
898.552	19396
898.672	19514
898.792	19537
898.913	19556
899.033	19331
899.153	19263
899.273	19168
899.393	19282
899.513	19335
899.633	19183
899.753	19244
899.873	19156
899.993	19251
900.113	19209
900.232	19247
900.352	19084
900.472	19202
900.591	19019
900.711	19126
900.83	19042
900.95	19080
901.069	19160
901.189	18859
901.308	18734
901.427	18506
901.546	18692
901.665	18703
901.784	18616
901.904	18525
902.023	18433
902.141	18285
902.26	18038
902.379	18171
902.498	18133
902.617	18045
902.735	18262
902.854	18121
902.973	18068
903.091	17847
903.21	17885
903.328	17824
903.446	17771
903.565	17554
903.683	17642
903.801	17562
903.919	17596
904.038	17611
904.156	17353
904.274	17520
904.392	17391
904.51	17395
904.627	17368
904.745	17524
904.863	17402
904.981	17261
905.098	17094
905.216	17014
905.334	17197
905.451	17132
905.569	16984
905.686	17197
905.803	17033
905.921	16942
906.038	16889
906.155	16942
906.272	16843
906.389	16691
906.506	16546
906.623	16653
906.74	16740
906.857	16558
906.974	16615
907.091	16679
907.208	16744
907.324	16702
907.441	16615
907.557	16390
907.674	16405
907.79	16242
907.907	16268
908.023	16371
908.139	16398
908.256	16318
908.372	16223
908.488	16226
908.604	16112
908.72	16002
908.836	16097
908.952	16040
909.068	16131
909.184	16166
909.3	16067
909.415	16097
909.531	16162
909.647	15888
909.762	15937
909.878	15759
909.993	15873
910.108	15861
910.224	15736
910.339	15831
910.454	15637
910.57	15648
910.685	15584
910.8	15945
910.915	15766
911.03	15667
911.145	15424
911.259	15374
911.374	15458
911.489	15359
911.604	15313
911.718	15199
911.833	15207
911.947	15100
912.062	14914
912.176	15173
912.291	15188
912.405	15112
912.519	15325
912.633	15275
912.748	15157
912.862	15119
912.976	15020
913.09	14872
913.204	14895
913.318	15020
913.431	15108
913.545	15051
913.659	15013
913.772	14868
913.886	14872
914	14773
914.113	14990
914.226	14994
914.34	14857
914.453	14720
914.566	14883
914.68	14674
914.793	14663
914.906	14469
915.019	14377
915.132	14415
915.245	14480
915.358	14412
915.47	14351
915.583	14393
915.696	14495
915.809	14560
915.921	14625
916.034	14374
916.146	14332
916.259	14343
916.371	14450
916.483	14256
916.595	14286
916.708	14282
916.82	14225
916.932	14214
917.044	14244
917.156	14206
917.268	14046
917.38	14176
917.491	14138
917.603	14058
917.715	14237
917.826	14221
917.938	14069
918.049	13917
918.161	14142
918.272	14221
918.384	14183
918.495	14050
918.606	13826
918.717	13921
918.828	13947
918.939	13856
919.05	13875
919.161	13753
919.272	13776
919.383	13647
919.494	13978
919.604	14123
919.715	13833
919.826	13841
919.936	13875
920.047	13944
920.157	13875
920.267	14031
920.378	13822
920.488	13772
920.598	13898
920.708	14221
920.818	13986
920.928	13947
921.038	14183
921.148	14180
921.258	13826
921.368	13712
921.477	13647
921.587	13510
921.697	13438
921.806	13578
921.916	13430
922.025	13354
922.134	13285
922.244	13278
922.353	13331
922.462	13145
922.571	13095
922.68	12973
922.789	12924
922.898	12897
923.007	12905
923.116	13004
923.224	12924
923.333	12871
923.442	12745
923.55	12738
923.659	12798
923.767	12791
923.876	12711
923.984	12810
924.092	12646
924.201	12722
924.309	12722
924.417	12631
924.525	12547
924.633	12700
924.741	13392
924.849	12460
924.956	12540
925.064	12384
925.172	12270
925.279	12365
925.387	12361
925.494	12369
925.602	12399
925.709	12433
925.816	12190
925.924	12315
926.031	12376
926.138	12304
926.245	12376
926.352	12213
926.459	12300
926.566	12372
926.673	12201
926.779	12163
926.886	12201
926.993	12015
927.099	12007
927.206	11939
927.312	11851
927.419	12068
927.525	11882
927.631	12045
927.737	11786
927.843	11798
927.95	11714
928.056	11672
928.162	11813
928.267	11855
928.373	12426
928.479	11901
928.585	11600
928.69	11794
928.796	11794
928.901	11661
929.007	11463
929.112	11657
929.218	11608
929.323	11547
929.428	11570
929.533	11646
929.638	11406
929.743	11505
929.848	11532
929.953	11463
930.058	11387
930.163	11220
930.267	11231
930.372	11376
930.477	11212
930.581	11360
930.685	11277
930.79	11121
930.894	11189
930.998	11071
931.103	11197
931.207	10976
931.311	10809
931.415	10774
931.519	10558
931.623	10516
