Data from test_V78500241_478.txt Node
Date: Fri Mar 25 15:13:11 CST 2022
User: usil
Spectrometer: V785-0024
Trigger mode: 0
Integration Time (sec): 4.000000E-1
Scans to average: 1
Nonlinearity correction enabled: false
Boxcar width: 0
Storing dark spectrum: false
XAxis mode: Wavelengths
Number of Pixels in Spectrum: 1024
>>>>>Begin Spectral Data<<<<<
801.071	27473
801.214	27336
801.356	27302
801.499	27173
801.641	26921
801.783	27070
801.926	27093
802.068	26986
802.211	26678
802.353	26773
802.496	26765
802.638	26659
802.78	26636
802.923	26636
803.065	26568
803.208	26689
803.35	26617
803.492	26731
803.635	26823
803.777	26720
803.919	26807
804.061	27161
804.204	26739
804.346	26629
804.488	26625
804.63	26708
804.773	26674
804.915	26811
805.057	26872
805.199	26792
805.341	26910
805.483	26918
805.626	26769
805.768	26705
805.91	26819
806.052	26849
806.194	26845
806.336	26994
806.478	26883
806.62	26796
806.762	26933
806.904	27135
807.046	27382
807.188	27313
807.33	27325
807.472	27256
807.614	27020
807.756	27127
807.898	27116
808.04	27020
808.182	27199
808.324	27138
808.465	27085
808.607	27313
808.749	27378
808.891	27473
809.033	27698
809.174	27561
809.316	27367
809.458	27542
809.6	27412
809.741	27538
809.883	27618
810.025	27842
810.166	27759
810.308	27759
810.45	27766
810.591	27762
810.733	27686
810.875	27519
811.016	27378
811.158	27332
811.299	27553
811.441	27797
811.582	27637
811.724	27431
811.865	27397
812.007	27466
812.148	27332
812.29	27618
812.431	27637
812.573	27709
812.714	27941
812.855	28082
812.997	28032
813.138	28280
813.279	28169
813.421	28025
813.562	28025
813.703	27819
813.845	27831
813.986	27405
814.127	27344
814.268	27279
814.41	27165
814.551	27165
814.692	27214
814.833	27123
814.974	27070
815.115	27169
815.256	27154
815.397	27077
815.539	26944
815.68	26948
815.821	26918
815.962	26914
816.103	26876
816.244	26883
816.385	26739
816.526	26689
816.666	26457
816.807	26404
816.948	26522
817.089	26492
817.23	26518
817.371	26438
817.512	26442
817.653	26457
817.793	26377
817.934	26583
818.075	26453
818.216	26381
818.356	26328
818.497	26282
818.638	26153
818.778	26039
818.919	26229
819.06	26229
819.2	26408
819.341	26400
819.481	26408
819.622	26594
819.762	26785
819.903	26602
820.043	26720
820.184	26644
820.324	26560
820.465	26716
820.605	26636
820.746	26571
820.886	26442
821.026	26313
821.167	26385
821.307	26526
821.447	26446
821.588	26271
821.728	26259
821.868	25951
822.008	25932
822.149	25925
822.289	25966
822.429	25685
822.569	25559
822.709	25575
822.849	25578
822.99	25377
823.13	25415
823.27	25377
823.41	25244
823.55	25091
823.69	25198
823.83	25175
823.97	25168
824.11	24958
824.25	25000
824.389	24996
824.529	25080
824.669	24962
824.809	25133
824.949	25213
825.089	25259
825.228	25129
825.368	24894
825.508	24897
825.648	24962
825.787	24916
825.927	24878
826.067	24920
826.206	24871
826.346	24783
826.485	24875
826.625	24905
826.765	25019
826.904	25008
827.044	24620
827.183	24764
827.323	24540
827.462	24604
827.601	24597
827.741	24578
827.88	24703
828.02	24505
828.159	24544
828.298	24768
828.437	24604
828.577	24547
828.716	24772
828.855	24582
828.994	24289
829.134	24418
829.273	24365
829.412	24330
829.551	24338
829.69	24376
829.829	24357
829.968	24486
830.107	24319
830.246	24201
830.385	24277
830.524	24262
830.663	24251
830.802	24178
830.941	23927
831.08	23908
831.219	23901
831.357	23980
831.496	24266
831.635	23901
831.774	23771
831.913	23764
832.051	23794
832.19	23703
832.329	23676
832.467	23547
832.606	23585
832.744	23684
832.883	23551
833.022	23653
833.16	23748
833.299	23676
833.437	23756
833.576	23710
833.714	23657
833.852	23714
833.991	23653
834.129	23783
834.267	23642
834.406	23779
834.544	23707
834.682	23741
834.821	23665
834.959	23828
835.097	23619
835.235	23680
835.373	23634
835.511	23687
835.65	23634
835.788	23501
835.926	23307
836.064	23315
836.202	23417
836.34	23531
836.478	23623
836.615	23478
836.753	23573
836.891	23691
837.029	23520
837.167	23414
837.305	23425
837.443	23410
837.58	23429
837.718	23398
837.856	23474
837.993	23284
838.131	23356
838.269	23280
838.406	23242
838.544	23185
838.681	23029
838.819	23140
838.956	22938
839.094	22793
839.231	23041
839.369	23075
839.506	23246
839.643	23044
839.781	22774
839.918	22812
840.055	22831
840.193	22885
840.33	22672
840.467	22733
840.604	22839
840.742	23037
840.879	22763
841.016	22729
841.153	22679
841.29	22946
841.427	22816
841.564	22809
841.701	22790
841.838	22733
841.975	22618
842.112	22748
842.249	22542
842.385	22557
842.522	22782
842.659	22546
842.796	22531
842.933	22489
843.069	22512
843.206	22516
843.343	22618
843.479	22478
843.616	22649
843.752	22261
843.889	22363
844.025	22459
844.162	22272
844.298	22413
844.435	22344
844.571	22234
844.708	22341
844.844	22504
844.98	22390
845.117	22363
845.253	22173
845.389	22112
845.525	22223
845.661	22173
845.798	22055
845.934	22143
846.07	21941
846.206	21975
846.342	22150
846.478	22082
846.614	21823
846.75	21876
846.886	21816
847.022	21937
847.158	21804
847.294	21819
847.429	21835
847.565	21838
847.701	22051
847.837	21572
847.972	21534
848.108	21713
848.244	21637
848.379	21424
848.515	21458
848.65	21374
848.786	21485
848.921	21424
849.057	21538
849.192	21515
849.328	21420
849.463	21317
849.598	21481
849.734	21302
849.869	21291
850.004	21157
850.14	21256
850.275	21127
850.41	21119
850.545	21036
850.68	21176
850.815	21279
850.95	21131
851.085	21367
851.22	21310
851.355	21154
851.49	21173
851.625	21081
851.76	21093
851.895	21013
852.03	21116
852.165	21146
852.299	21142
852.434	21279
852.569	21195
852.703	21165
852.838	21237
852.973	21294
853.107	21211
853.242	21142
853.376	20963
853.511	21009
853.645	21047
853.78	21131
853.914	21017
854.048	21009
854.183	21032
854.317	21017
854.451	21123
854.585	21055
854.72	21005
854.854	21020
854.988	20845
855.122	20986
855.256	20708
855.39	20960
855.524	20982
855.658	20998
855.792	20914
855.926	20990
856.06	20960
856.194	21116
856.327	20899
856.461	20925
856.595	20804
856.729	20941
856.862	21119
856.996	21009
857.13	21062
857.263	21017
857.397	21066
857.53	20971
857.664	21116
857.797	20906
857.931	21089
858.064	21036
858.197	21036
858.331	20944
858.464	20925
858.597	20891
858.731	20941
858.864	20960
858.997	20937
859.13	20963
859.263	21047
859.396	20929
859.529	20921
859.662	21024
859.795	20811
859.928	21070
860.061	21131
860.194	21169
860.327	21051
860.46	20960
860.592	21104
860.725	21112
860.858	21104
860.99	20868
861.123	20921
861.256	20929
861.388	20948
861.521	21785
861.653	20853
861.786	20720
861.918	20868
862.05	20872
862.183	21028
862.315	20842
862.447	20883
862.58	20891
862.712	20708
862.844	20651
862.976	20727
863.108	20819
863.24	21188
863.372	20617
863.504	20678
863.636	20636
863.768	20746
863.9	20746
864.032	20609
864.164	20545
864.296	20678
864.428	20800
864.559	20720
864.691	20735
864.823	20712
864.954	20693
865.086	20644
865.217	20697
865.349	20480
865.48	20689
865.612	20689
865.743	20716
865.875	20617
866.006	20648
866.137	20594
866.269	20503
866.4	20499
866.531	20480
866.662	20514
866.793	20461
866.924	20541
867.055	20507
867.186	20594
867.317	20488
867.448	20484
867.579	20587
867.71	20374
867.841	20503
867.972	20545
868.103	20499
868.233	20450
868.364	20541
868.495	20674
868.625	20746
868.756	20826
868.886	20693
869.017	20796
869.147	20921
869.278	20929
869.408	20823
869.539	20765
869.669	20781
869.799	20819
869.929	20971
870.06	20845
870.19	21066
870.32	21119
870.45	20998
870.58	21146
870.71	21287
870.84	21279
870.97	21127
871.1	21184
871.23	21298
871.36	21408
871.489	21313
871.619	21340
871.749	21294
871.879	21397
872.008	21583
872.138	21313
872.267	21348
872.397	21176
872.526	21294
872.656	21233
872.785	21184
872.915	21386
873.044	21553
873.173	21462
873.303	21492
873.432	21443
873.561	21477
873.69	21462
873.819	21336
873.948	21557
874.077	21424
874.206	21298
874.335	21386
874.464	21595
874.593	21572
874.722	21580
874.851	21736
874.979	21663
875.108	21614
875.237	21557
875.365	21515
875.494	21614
875.623	21724
875.751	21622
875.88	21523
876.008	21713
876.136	21819
876.265	22006
876.393	22181
876.521	22105
876.65	22093
876.778	22051
876.906	21922
877.034	21854
877.162	21994
877.29	21937
877.418	22097
877.546	21998
877.674	22021
877.802	21941
877.93	21975
878.058	21930
878.185	21854
878.313	21994
878.441	21960
878.568	21785
878.696	21884
878.824	21895
878.951	22086
879.079	22143
879.206	22310
879.333	22101
879.461	22074
879.588	22093
879.715	22090
879.842	22379
879.97	21907
880.097	21945
880.224	21690
880.351	21747
880.478	21778
880.605	21869
880.732	21819
880.859	21926
880.986	21812
881.112	21808
881.239	21625
881.366	21458
881.493	21507
881.619	21393
881.746	21348
881.872	21386
881.999	21348
882.125	21291
882.252	21306
882.378	21450
882.505	21488
882.631	21294
882.757	21100
882.883	21214
883.01	21131
883.136	21138
883.262	20971
883.388	20929
883.514	21146
883.64	21043
883.766	21062
883.892	20845
884.018	20944
884.143	21066
884.269	21108
884.395	20701
884.52	20621
884.646	20743
884.772	20712
884.897	20678
885.023	20735
885.148	20807
885.274	20712
885.399	20804
885.524	20750
885.65	20739
885.775	20785
885.9	20659
886.025	20834
886.15	20750
886.275	20655
886.4	20594
886.525	20743
886.65	20746
886.775	20594
886.9	20804
887.025	20845
887.149	20758
887.274	20609
887.399	20488
887.523	20488
887.648	20480
887.773	20473
887.897	20564
888.021	20568
888.146	20457
888.27	20602
888.395	20651
888.519	20492
888.643	20393
888.767	20606
888.891	20427
889.015	20225
889.139	20282
889.263	20301
889.387	20404
889.511	20499
889.635	20461
889.759	20180
889.883	20271
890.006	20290
890.13	20507
890.254	20237
890.377	20157
890.501	20092
890.624	19978
890.748	20081
890.871	20008
890.995	19875
891.118	19788
891.241	19811
891.364	19921
891.488	20031
891.611	19879
891.734	19894
891.857	19883
891.98	19909
892.103	19974
892.226	19837
892.349	19894
892.471	19738
892.594	19932
892.717	19795
892.839	19868
892.962	19746
893.085	19826
893.207	19803
893.33	19666
893.452	19681
893.575	19833
893.697	19776
893.819	19944
893.941	20005
894.064	19906
894.186	19689
894.308	19734
894.43	19883
894.552	19917
894.674	19894
894.796	19635
894.918	19693
895.04	19761
895.161	19902
895.283	19864
895.405	19807
895.526	19662
895.648	19772
895.769	19906
895.891	19864
896.012	19849
896.134	19856
896.255	19715
896.376	19803
896.498	19818
896.619	19894
896.74	19681
896.861	19856
896.982	20202
897.103	20259
897.224	20119
897.345	19936
897.466	19936
897.587	19940
897.708	20020
897.828	20065
897.949	20062
898.07	19894
898.19	19887
898.311	19947
898.431	19902
898.552	19989
898.672	20100
898.792	20107
898.913	19989
899.033	19917
899.153	19807
899.273	19590
899.393	19811
899.513	19776
899.633	19715
899.753	19753
899.873	19632
899.993	19887
900.113	19746
900.232	19704
900.352	19635
900.472	19635
900.591	19483
900.711	19620
900.83	19430
900.95	19586
901.069	19620
901.189	19514
901.308	19278
901.427	19114
901.546	19061
901.665	19232
901.784	19141
901.904	18928
902.023	18897
902.141	18760
902.26	18715
902.379	18696
902.498	18631
902.617	18616
902.735	18604
902.854	18570
902.973	18612
903.091	18273
903.21	18243
903.328	18448
903.446	18311
903.565	18072
903.683	18171
903.801	17988
903.919	18068
904.038	18136
904.156	17923
904.274	17889
904.392	17859
904.51	17832
904.627	17893
904.745	17828
904.863	17984
904.981	17714
905.098	17627
905.216	17467
905.334	17535
905.451	17592
905.569	17474
905.686	17558
905.803	17600
905.921	17478
906.038	17452
906.155	17478
906.272	17273
906.389	17208
906.506	17132
906.623	17235
906.74	17185
906.857	17086
906.974	17143
907.091	17197
907.208	17132
907.324	17151
907.441	16995
907.557	16839
907.674	16809
907.79	16862
907.907	16725
908.023	16805
908.139	16797
908.256	16721
908.372	16740
908.488	16752
908.604	16615
908.72	16596
908.836	16550
908.952	16481
909.068	16580
909.184	16660
909.3	16584
909.415	16527
909.531	16485
909.647	16257
909.762	16280
909.878	16166
909.993	16299
910.108	16249
910.224	16234
910.339	16230
910.454	16116
910.57	16017
910.685	15953
910.8	16318
910.915	16207
911.03	16158
911.145	15987
911.259	15922
911.374	15907
911.489	15778
911.604	15648
911.718	15671
911.833	15534
911.947	15561
912.062	15424
912.176	15492
912.291	15561
912.405	15584
912.519	15812
912.633	15732
912.748	15671
912.862	15481
912.976	15431
913.09	15241
913.204	15355
913.318	15367
913.431	15564
913.545	15553
913.659	15481
913.772	15431
913.886	15199
914	15218
914.113	15329
914.226	15351
914.34	15367
914.453	15211
914.566	15173
914.68	15074
914.793	15043
914.906	14899
915.019	14899
915.132	14746
915.245	14804
915.358	14838
915.47	14849
915.583	14857
915.696	14914
915.809	15005
915.921	14910
916.034	14743
916.146	14815
916.259	14727
916.371	14849
916.483	14834
916.595	14712
916.708	14712
916.82	14583
916.932	14629
917.044	14667
917.156	14575
917.268	14545
917.38	14606
917.491	14568
917.603	14518
917.715	14598
917.826	14644
917.938	14412
918.049	14358
918.161	14556
918.272	14552
918.384	14571
918.495	14423
918.606	14290
918.717	14210
918.828	14328
918.939	14286
919.05	14164
919.161	14286
919.272	14039
919.383	14065
919.494	14275
919.604	14351
919.715	14237
919.826	14172
919.936	14191
920.047	14313
920.157	14320
920.267	14488
920.378	14339
920.488	14233
920.598	14313
920.708	14530
920.818	14339
920.928	14400
921.038	14587
921.148	14442
921.258	14142
921.368	14065
921.477	14024
921.587	14050
921.697	13974
921.806	14020
921.916	13837
922.025	13772
922.134	13628
922.244	13559
922.353	13753
922.462	13525
922.571	13426
922.68	13282
922.789	13266
922.898	13312
923.007	13244
923.116	13377
923.224	13202
923.333	13209
923.442	13179
923.55	13122
923.659	13141
923.767	13107
923.876	13053
923.984	13099
924.092	13053
924.201	13004
924.309	13053
924.417	13072
924.525	12859
924.633	13012
924.741	13860
924.849	12829
924.956	12897
925.064	12715
925.172	12570
925.279	12707
925.387	12753
925.494	12772
925.602	12859
925.709	12787
925.816	12589
925.924	12635
926.031	12627
926.138	12696
926.245	12776
926.352	12555
926.459	12650
926.566	12684
926.673	12623
926.779	12559
926.886	12410
926.993	12327
927.099	12308
927.206	12232
927.312	12186
927.419	12353
927.525	12308
927.631	12228
927.737	12228
927.843	12087
927.95	12007
928.056	12114
928.162	12140
928.267	12057
928.373	12631
928.479	12121
928.585	11977
928.69	12076
928.796	12049
928.901	11958
929.007	11805
929.112	11908
929.218	11901
929.323	11809
929.428	11817
929.533	11908
929.638	11710
929.743	11802
929.848	11885
929.953	11813
930.058	11661
930.163	11501
930.267	11558
930.372	11585
930.477	11596
930.581	11767
930.685	11638
930.79	11436
930.894	11478
930.998	11459
931.103	11551
931.207	11193
931.311	11067
931.415	10976
931.519	10866
931.623	10782
