Data from test_V78500241_2019.txt Node
Date: Fri Mar 25 15:23:55 CST 2022
User: usil
Spectrometer: V785-0024
Trigger mode: 0
Integration Time (sec): 4.000000E-1
Scans to average: 1
Nonlinearity correction enabled: false
Boxcar width: 0
Storing dark spectrum: false
XAxis mode: Wavelengths
Number of Pixels in Spectrum: 1024
>>>>>Begin Spectral Data<<<<<
801.071	27808
801.214	27705
801.356	27511
801.499	27389
801.641	27408
801.783	27325
801.926	27450
802.068	27313
802.211	27348
802.353	27230
802.496	27131
802.638	26986
802.78	27085
802.923	26887
803.065	26887
803.208	26902
803.35	27001
803.492	27051
803.635	27218
803.777	27070
803.919	27142
804.061	27526
804.204	27329
804.346	27135
804.488	27070
804.63	27146
804.773	27180
804.915	27195
805.057	27306
805.199	27096
805.341	27283
805.483	27363
805.626	27370
805.768	27154
805.91	27408
806.052	27408
806.194	27241
806.336	27412
806.478	27211
806.62	27283
806.762	27340
806.904	27477
807.046	27793
807.188	27679
807.33	27736
807.472	27781
807.614	27682
807.756	27759
807.898	27724
808.04	27583
808.182	27530
808.324	27557
808.465	27720
808.607	27751
808.749	27903
808.891	28074
809.033	28192
809.174	27972
809.316	27930
809.458	27930
809.6	27991
809.741	28032
809.883	28013
810.025	28181
810.166	28139
810.308	28325
810.45	28059
810.591	28067
810.733	28010
810.875	27804
811.016	27816
811.158	27869
811.299	28048
811.441	28188
811.582	28226
811.724	27827
811.865	27937
812.007	28040
812.148	27994
812.29	28093
812.431	28074
812.573	28306
812.714	28360
812.855	28363
812.997	28428
813.138	28565
813.279	28424
813.421	28401
813.562	28409
813.703	28318
813.845	28101
813.986	27994
814.127	27831
814.268	27458
814.41	27728
814.551	27561
814.692	27675
814.833	27644
814.974	27561
815.115	27698
815.256	27439
815.397	27427
815.539	27401
815.68	27351
815.821	27412
815.962	27374
816.103	27454
816.244	27176
816.385	27123
816.526	27116
816.666	26940
816.807	26830
816.948	26967
817.089	26975
817.23	26891
817.371	27013
817.512	26811
817.653	26785
817.793	26823
817.934	26876
818.075	26982
818.216	26895
818.356	26800
818.497	26697
818.638	26549
818.778	26701
818.919	26648
819.06	26636
819.2	26769
819.341	26830
819.481	26819
819.622	26975
819.762	27222
819.903	27207
820.043	26979
820.184	26914
820.324	27036
820.465	27188
820.605	27096
820.746	26975
820.886	26781
821.026	26883
821.167	26933
821.307	27013
821.447	26979
821.588	26834
821.728	26644
821.868	26453
822.008	26465
822.149	26484
822.289	26412
822.429	26149
822.569	26058
822.709	25966
822.849	25902
822.99	25837
823.13	25856
823.27	25928
823.41	25757
823.55	25674
823.69	25750
823.83	25582
823.97	25662
824.11	25449
824.25	25468
824.389	25521
824.529	25529
824.669	25381
824.809	25655
824.949	25670
825.089	25559
825.228	25567
825.368	25365
825.508	25350
825.648	25358
825.787	25343
825.927	25491
826.067	25247
826.206	25483
826.346	25483
826.485	25388
826.625	25320
826.765	25324
826.904	25392
827.044	25164
827.183	25141
827.323	25072
827.462	25126
827.601	24992
827.741	25202
827.88	25209
828.02	24939
828.159	24920
828.298	25137
828.437	25171
828.577	25015
828.716	25118
828.855	25019
828.994	24890
829.134	24665
829.273	24935
829.412	24757
829.551	24833
829.69	24760
829.829	24852
829.968	24814
830.107	24817
830.246	24840
830.385	24806
830.524	24848
830.663	24597
830.802	24471
830.941	24384
831.08	24346
831.219	24460
831.357	24445
831.496	24528
831.635	24433
831.774	24334
831.913	24239
832.051	24281
832.19	24205
832.329	24152
832.467	24167
832.606	24007
832.744	24038
832.883	24045
833.022	24106
833.16	24125
833.299	24174
833.437	24022
833.576	24106
833.714	24171
833.852	24163
833.991	24308
834.129	24167
834.267	24205
834.406	24015
834.544	24095
834.682	23999
834.821	24167
834.959	24239
835.097	24022
835.235	24281
835.373	24285
835.511	24136
835.65	24015
835.788	24114
835.926	23878
836.064	23722
836.202	23923
836.34	23885
836.478	24068
836.615	23870
836.753	23912
836.891	24022
837.029	24022
837.167	23817
837.305	23790
837.443	23901
837.58	23809
837.718	23946
837.856	23767
837.993	23874
838.131	23767
838.269	23665
838.406	23745
838.544	23676
838.681	23516
838.819	23455
838.956	23223
839.094	23269
839.231	23337
839.369	23490
839.506	23752
839.643	23516
839.781	23322
839.918	23261
840.055	23307
840.193	23303
840.33	23197
840.467	23231
840.604	23204
840.742	23478
840.879	23029
841.016	23185
841.153	23033
841.29	23296
841.427	23159
841.564	23208
841.701	23083
841.838	23159
841.975	23147
842.112	23064
842.249	23102
842.385	22938
842.522	23242
842.659	22942
842.796	22961
842.933	23029
843.069	22866
843.206	22968
843.343	22953
843.479	23052
843.616	22953
843.752	22729
843.889	22809
844.025	22923
844.162	22645
844.298	22816
844.435	22748
844.571	22706
844.708	22748
844.844	22877
844.98	22900
845.117	22900
845.253	22630
845.389	22546
845.525	22596
845.661	22649
845.798	22618
845.934	22599
846.07	22478
846.206	22497
846.342	22554
846.478	22417
846.614	22230
846.75	22211
846.886	22322
847.022	22257
847.158	22177
847.294	22135
847.429	22215
847.565	22181
847.701	22527
847.837	21987
847.972	21964
848.108	22044
848.244	21998
848.379	21956
848.515	21861
848.65	21781
848.786	21755
848.921	21842
849.057	21918
849.192	21949
849.328	21922
849.463	21907
849.598	21728
849.734	21732
849.869	21705
850.004	21724
850.14	21675
850.275	21751
850.41	21447
850.545	21667
850.68	21591
850.815	21603
850.95	21625
851.085	21736
851.22	21759
851.355	21603
851.49	21553
851.625	21504
851.76	21595
851.895	21519
852.03	21568
852.165	21511
852.299	21538
852.434	21614
852.569	21530
852.703	21603
852.838	21587
852.973	21686
853.107	21648
853.242	21553
853.376	21481
853.511	21291
853.645	21370
853.78	21473
853.914	21378
854.048	21275
854.183	21439
854.317	21469
854.451	21545
854.585	21283
854.72	21389
854.854	21473
854.988	21511
855.122	21485
855.256	21355
855.39	21237
855.524	21382
855.658	21447
855.792	21291
855.926	21450
856.06	21439
856.194	21473
856.327	21435
856.461	21268
856.595	21310
856.729	21321
856.862	21469
856.996	21545
857.13	21416
857.263	21492
857.397	21534
857.53	21336
857.664	21401
857.797	21412
857.931	21496
858.064	21545
858.197	21504
858.331	21313
858.464	21344
858.597	21313
858.731	21302
858.864	21412
858.997	21420
859.13	21367
859.263	21397
859.396	21488
859.529	21287
859.662	21306
859.795	21287
859.928	21367
860.061	21629
860.194	21504
860.327	21431
860.46	21386
860.592	21561
860.725	21534
860.858	21568
860.99	21454
861.123	21367
861.256	21382
861.388	21340
861.521	22082
861.653	21279
861.786	21169
861.918	21222
862.05	21306
862.183	21294
862.315	21408
862.447	21386
862.58	21344
862.712	21131
862.844	21116
862.976	21211
863.108	21142
863.24	21523
863.372	21108
863.504	21070
863.636	21093
863.768	21024
863.9	21150
864.032	21074
864.164	20982
864.296	21085
864.428	21222
864.559	21226
864.691	21135
864.823	21085
864.954	20998
865.086	21043
865.217	21024
865.349	20754
865.48	21089
865.612	21066
865.743	21074
865.875	20952
866.006	21001
866.137	21119
866.269	20963
866.4	21013
866.531	20948
866.662	20853
866.793	21013
866.924	20937
867.055	20986
867.186	20925
867.317	20830
867.448	20804
867.579	20918
867.71	20864
867.841	20857
867.972	20948
868.103	21024
868.233	20933
868.364	20986
868.495	21005
868.625	21207
868.756	21218
868.886	21188
869.017	21199
869.147	21268
869.278	21325
869.408	21302
869.539	21199
869.669	21199
869.799	21233
869.929	21275
870.06	21321
870.19	21553
870.32	21424
870.45	21591
870.58	21580
870.71	21603
870.84	21698
870.97	21599
871.1	21587
871.23	21785
871.36	21762
871.489	21701
871.619	21698
871.749	21732
871.879	21865
872.008	21812
872.138	21842
872.267	21720
872.397	21553
872.526	21686
872.656	21671
872.785	21576
872.915	21755
873.044	21789
873.173	21793
873.303	21911
873.432	21873
873.561	21949
873.69	21835
873.819	21686
873.948	21873
874.077	21918
874.206	21637
874.335	21618
874.464	21869
874.593	21975
874.722	21876
874.851	22105
874.979	22013
875.108	22226
875.237	21964
875.365	21873
875.494	21964
875.623	22192
875.751	22032
875.88	21892
876.008	22128
876.136	22253
876.265	22379
876.393	22592
876.521	22557
876.65	22497
876.778	22394
876.906	22360
877.034	22371
877.162	22409
877.29	22428
877.418	22424
877.546	22363
877.674	22398
877.802	22291
877.93	22497
878.058	22360
878.185	22261
878.313	22352
878.441	22363
878.568	22154
878.696	22215
878.824	22394
878.951	22428
879.079	22455
879.206	22710
879.333	22478
879.461	22306
879.588	22375
879.715	22573
879.842	22721
879.97	22417
880.097	22135
880.224	22177
880.351	22211
880.478	22192
880.605	22128
880.732	22120
880.859	22284
880.986	22318
881.112	22162
881.239	22029
881.366	22059
881.493	21861
881.619	21827
881.746	21800
881.872	21762
881.999	21690
882.125	21793
882.252	21755
882.378	21690
882.505	21808
882.631	21576
882.757	21530
882.883	21545
883.01	21412
883.136	21473
883.262	21355
883.388	21370
883.514	21500
883.64	21504
883.766	21416
883.892	21100
884.018	21150
884.143	21405
884.269	21462
884.395	21192
884.52	21024
884.646	21260
884.772	21123
884.897	21001
885.023	21096
885.148	21138
885.274	21161
885.399	21157
885.524	21199
885.65	21173
885.775	21135
885.9	20994
886.025	21264
886.15	21142
886.275	20967
886.4	20971
886.525	21051
886.65	21047
886.775	21058
886.9	21116
887.025	21237
887.149	21123
887.274	20910
887.399	20891
887.523	20800
887.648	20785
887.773	20811
887.897	20948
888.021	20834
888.146	20807
888.27	20941
888.395	20910
888.519	20876
888.643	20914
888.767	20918
888.891	20777
889.015	20678
889.139	20625
889.263	20640
889.387	20800
889.511	20880
889.635	20834
889.759	20712
889.883	20590
890.006	20697
890.13	20678
890.254	20594
890.377	20526
890.501	20457
890.624	20381
890.748	20355
890.871	20362
890.995	20339
891.118	20202
891.241	20233
891.364	20161
891.488	20259
891.611	20218
891.734	20157
891.857	20362
891.98	20244
892.103	20130
892.226	20225
892.349	20172
892.471	20134
892.594	20218
892.717	20263
892.839	20153
892.962	20172
893.085	20206
893.207	20058
893.33	20100
893.452	20046
893.575	20195
893.697	20065
893.819	20263
893.941	20305
894.064	20259
894.186	20134
894.308	20043
894.43	20157
894.552	20374
894.674	20138
894.796	20111
894.918	20100
895.04	20088
895.161	20130
895.283	20180
895.405	19989
895.526	20130
895.648	20229
895.769	20164
895.891	20145
896.012	20256
896.134	20218
896.255	20191
896.376	20050
896.498	20103
896.619	20225
896.74	20081
896.861	20103
896.982	20530
897.103	20560
897.224	20366
897.345	20351
897.466	20336
897.587	20370
897.708	20454
897.828	20301
897.949	20358
898.07	20142
898.19	20347
898.311	20412
898.431	20286
898.552	20366
898.672	20499
898.792	20450
898.913	20374
899.033	20256
899.153	20168
899.273	20005
899.393	20092
899.513	20065
899.633	20103
899.753	20054
899.873	20069
899.993	20122
900.113	19993
900.232	20081
900.352	19974
900.472	19883
900.591	19894
900.711	19845
900.83	19750
900.95	20031
901.069	20020
901.189	19864
901.308	19491
901.427	19594
901.546	19453
901.665	19445
901.784	19510
901.904	19225
902.023	19183
902.141	18977
902.26	19072
902.379	19065
902.498	18993
902.617	18840
902.735	19034
902.854	18844
902.973	18958
903.091	18646
903.21	18726
903.328	18604
903.446	18532
903.565	18391
903.683	18494
903.801	18350
903.919	18380
904.038	18369
904.156	18330
904.274	18289
904.392	18239
904.51	18213
904.627	18178
904.745	18228
904.863	18304
904.981	17999
905.098	17908
905.216	17874
905.334	17855
905.451	17992
905.569	17836
905.686	17885
905.803	17912
905.921	17604
906.038	17809
906.155	17539
906.272	17532
906.389	17619
906.506	17444
906.623	17429
906.74	17406
906.857	17227
906.974	17387
907.091	17490
907.208	17592
907.324	17410
907.441	17235
907.557	17216
907.674	17235
907.79	17109
907.907	17064
908.023	17178
908.139	17113
908.256	17121
908.372	17102
908.488	16995
908.604	16889
908.72	16835
908.836	16862
908.952	16782
909.068	16892
909.184	16946
909.3	16885
909.415	16908
909.531	16839
909.647	16546
909.762	16512
909.878	16523
909.993	16561
910.108	16462
910.224	16485
910.339	16580
910.454	16493
910.57	16413
910.685	16299
910.8	16561
910.915	16485
911.03	16280
911.145	16158
911.259	16139
911.374	16131
911.489	16135
911.604	16086
911.718	15876
911.833	15899
911.947	15861
912.062	15690
912.176	15785
912.291	15838
912.405	15812
912.519	16082
912.633	15941
912.748	15899
912.862	15903
912.976	15644
913.09	15652
913.204	15698
913.318	15797
913.431	15743
913.545	15899
913.659	15785
913.772	15751
913.886	15481
914	15580
914.113	15618
914.226	15622
914.34	15599
914.453	15523
914.566	15542
914.68	15420
914.793	15374
914.906	15199
915.019	15184
915.132	15051
915.245	15039
915.358	15184
915.47	15009
915.583	15104
915.696	15256
915.809	15226
915.921	15302
916.034	15058
916.146	14982
916.259	14975
916.371	15142
916.483	15093
916.595	15055
916.708	14902
916.82	14963
916.932	14838
917.044	14910
917.156	14842
917.268	14777
917.38	14880
917.491	14731
917.603	14819
917.715	14853
917.826	14864
917.938	14746
918.049	14648
918.161	14792
918.272	14845
918.384	14796
918.495	14667
918.606	14610
918.717	14530
918.828	14644
918.939	14613
919.05	14533
919.161	14552
919.272	14374
919.383	14400
919.494	14606
919.604	14663
919.715	14457
919.826	14476
919.936	14552
920.047	14537
920.157	14549
920.267	14621
920.378	14552
920.488	14396
920.598	14762
920.708	14876
920.818	14731
920.928	14682
921.038	14792
921.148	14830
921.258	14446
921.368	14332
921.477	14294
921.587	14286
921.697	14183
921.806	14248
921.916	14168
922.025	13989
922.134	13913
922.244	13791
922.353	13894
922.462	13799
922.571	13795
922.68	13590
922.789	13563
922.898	13559
923.007	13582
923.116	13620
923.224	13582
923.333	13487
923.442	13350
923.55	13441
923.659	13415
923.767	13384
923.876	13346
923.984	13491
924.092	13297
924.201	13369
924.309	13346
924.417	13221
924.525	13198
924.633	13213
924.741	14035
924.849	12928
924.956	13240
925.064	12973
925.172	12928
925.279	12913
925.387	12973
925.494	12996
925.602	13110
925.709	13057
925.816	12798
925.924	12840
926.031	12901
926.138	12886
926.245	12973
926.352	12764
926.459	12932
926.566	12947
926.673	12817
926.779	12730
926.886	12639
926.993	12616
927.099	12517
927.206	12475
927.312	12536
927.419	12555
927.525	12467
927.631	12540
927.737	12525
927.843	12338
927.95	12216
928.056	12365
928.162	12357
928.267	12433
928.373	12905
928.479	12445
928.585	12285
928.69	12270
928.796	12361
928.901	12209
929.007	12022
929.112	12213
929.218	12209
929.323	12110
929.428	12022
929.533	12175
929.638	11999
929.743	12079
929.848	11996
929.953	12034
930.058	11942
930.163	11695
930.267	11847
930.372	11893
930.477	11813
930.581	11939
930.685	11798
930.79	11600
930.894	11653
930.998	11611
931.103	11752
931.207	11414
931.311	11349
931.415	11292
931.519	11079
931.623	11014
