Data from test_V78500241_1377.txt Node
Date: Fri Mar 25 15:19:26 CST 2022
User: usil
Spectrometer: V785-0024
Trigger mode: 0
Integration Time (sec): 4.000000E-1
Scans to average: 1
Nonlinearity correction enabled: false
Boxcar width: 0
Storing dark spectrum: false
XAxis mode: Wavelengths
Number of Pixels in Spectrum: 1024
>>>>>Begin Spectral Data<<<<<
801.071	28124
801.214	28135
801.356	27876
801.499	27785
801.641	27686
801.783	27568
801.926	27747
802.068	27629
802.211	27618
802.353	27580
802.496	27424
802.638	27367
802.78	27279
802.923	27313
803.065	27233
803.208	27367
803.35	27504
803.492	27542
803.635	27485
803.777	27427
803.919	27576
804.061	27804
804.204	27606
804.346	27553
804.488	27564
804.63	27580
804.773	27496
804.915	27698
805.057	27831
805.199	27641
805.341	27614
805.483	27819
805.626	27614
805.768	27629
805.91	27694
806.052	27682
806.194	27644
806.336	27899
806.478	27823
806.62	27713
806.762	27880
806.904	28032
807.046	28090
807.188	28135
807.33	28226
807.472	28211
807.614	28124
807.756	28188
807.898	28097
808.04	27949
808.182	28086
808.324	28017
808.465	28093
808.607	28287
808.749	28466
808.891	28474
809.033	28622
809.174	28481
809.316	28348
809.458	28417
809.6	28287
809.741	28462
809.883	28538
810.025	28615
810.166	28637
810.308	28664
810.45	28683
810.591	28538
810.733	28440
810.875	28325
811.016	28394
811.158	28306
811.299	28527
811.441	28249
811.582	28542
811.724	28493
811.865	28223
812.007	28417
812.148	28382
812.29	28386
812.431	28611
812.573	28721
812.714	28885
812.855	29006
812.997	29018
813.138	29121
813.279	29083
813.421	29006
813.562	28934
813.703	28782
813.845	28675
813.986	28360
814.127	28192
814.268	28086
814.41	28040
814.551	28112
814.692	27914
814.833	28109
814.974	28086
815.115	28143
815.256	27922
815.397	27899
815.539	28029
815.68	27819
815.821	27930
815.962	27888
816.103	27850
816.244	27591
816.385	27717
816.526	27587
816.666	27591
816.807	27549
816.948	27427
817.089	27363
817.23	27405
817.371	27450
817.512	27355
817.653	27526
817.793	27378
817.934	27370
818.075	27332
818.216	27542
818.356	27458
818.497	27310
818.638	27119
818.778	26975
818.919	27188
819.06	27222
819.2	27374
819.341	27401
819.481	27310
819.622	27492
819.762	27713
819.903	27557
820.043	27595
820.184	27397
820.324	27348
820.465	27492
820.605	27564
820.746	27424
820.886	27412
821.026	27496
821.167	27416
821.307	27431
821.447	27443
821.588	27302
821.728	27108
821.868	26910
822.008	26857
822.149	26956
822.289	26849
822.429	26514
822.569	26640
822.709	26465
822.849	26278
822.99	26336
823.13	26324
823.27	26332
823.41	26275
823.55	26046
823.69	26214
823.83	26294
823.97	26206
824.11	26005
824.25	25894
824.389	26122
824.529	25940
824.669	26008
824.809	26119
824.949	26183
825.089	25989
825.228	25993
825.368	25890
825.508	25826
825.648	25868
825.787	25925
825.927	25898
826.067	25814
826.206	25734
826.346	25974
826.485	25883
826.625	25875
826.765	25894
826.904	25921
827.044	25616
827.183	25639
827.323	25605
827.462	25738
827.601	25540
827.741	25643
827.88	25556
828.02	25537
828.159	25468
828.298	25734
828.437	25635
828.577	25487
828.716	25795
828.855	25426
828.994	25263
829.134	25384
829.273	25141
829.412	25369
829.551	25381
829.69	25263
829.829	25324
829.968	25476
830.107	25445
830.246	25198
830.385	25145
830.524	25209
830.663	25141
830.802	25019
830.941	24897
831.08	24886
831.219	25088
831.357	25019
831.496	25179
831.635	24840
831.774	24939
831.913	24692
832.051	24707
832.19	24722
832.329	24559
832.467	24623
832.606	24528
832.744	24505
832.883	24525
833.022	24559
833.16	24574
833.299	24593
833.437	24570
833.576	24639
833.714	24589
833.852	24734
833.991	24658
834.129	24658
834.267	24661
834.406	24703
834.544	24673
834.682	24627
834.821	24604
834.959	24722
835.097	24532
835.235	24578
835.373	24627
835.511	24673
835.65	24532
835.788	24452
835.926	24456
836.064	24197
836.202	24300
836.34	24486
836.478	24422
836.615	24429
836.753	24505
836.891	24547
837.029	24578
837.167	24418
837.305	24311
837.443	24334
837.58	24330
837.718	24292
837.856	24258
837.993	24258
838.131	24361
838.269	24174
838.406	24163
838.544	24144
838.681	24072
838.819	23908
838.956	23840
839.094	23775
839.231	23809
839.369	23878
839.506	24129
839.643	23927
839.781	23760
839.918	23752
840.055	23786
840.193	23756
840.33	23714
840.467	23733
840.604	23661
840.742	23961
840.879	23547
841.016	23608
841.153	23531
841.29	23840
841.427	23714
841.564	23695
841.701	23577
841.838	23642
841.975	23558
842.112	23646
842.249	23452
842.385	23417
842.522	23649
842.659	23387
842.796	23387
842.933	23383
843.069	23490
843.206	23395
843.343	23520
843.479	23459
843.616	23478
843.752	23208
843.889	23269
844.025	23326
844.162	23151
844.298	23246
844.435	23124
844.571	23136
844.708	23136
844.844	23326
844.98	23242
845.117	23315
845.253	23200
845.389	23048
845.525	23029
845.661	23029
845.798	23037
845.934	22911
846.07	22850
846.206	22987
846.342	22987
846.478	22999
846.614	22744
846.75	22618
846.886	22641
847.022	22744
847.158	22645
847.294	22668
847.429	22630
847.565	22672
847.701	22873
847.837	22497
847.972	22367
848.108	22386
848.244	22550
848.379	22352
848.515	22261
848.65	22234
848.786	22230
848.921	22375
849.057	22367
849.192	22234
849.328	22257
849.463	22249
849.598	22181
849.734	22029
849.869	22055
850.004	22032
850.14	21987
850.275	21949
850.41	21945
850.545	21994
850.68	21922
850.815	21998
850.95	21850
851.085	22135
851.22	22074
851.355	21979
851.49	21979
851.625	22006
851.76	21922
851.895	21964
852.03	21934
852.165	21994
852.299	21994
852.434	22112
852.569	22029
852.703	22128
852.838	22124
852.973	22234
853.107	22207
853.242	21930
853.376	21895
853.511	21732
853.645	21732
853.78	22070
853.914	21705
854.048	21774
854.183	21873
854.317	21876
854.451	22029
854.585	21739
854.72	21873
854.854	21884
854.988	21728
855.122	21800
855.256	21800
855.39	21827
855.524	21930
855.658	21823
855.792	21873
855.926	21751
856.06	21808
856.194	21880
856.327	21762
856.461	21781
856.595	21781
856.729	21842
856.862	21895
856.996	21888
857.13	21865
857.263	21903
857.397	21915
857.53	21831
857.664	21865
857.797	21937
857.931	21922
858.064	21865
858.197	21998
858.331	21759
858.464	21747
858.597	21663
858.731	21838
858.864	21816
858.997	21709
859.13	21915
859.263	21861
859.396	21934
859.529	21781
859.662	21743
859.795	21827
859.928	21800
860.061	21895
860.194	22013
860.327	21903
860.46	21823
860.592	22078
860.725	22032
860.858	21972
860.99	21838
861.123	21709
861.256	21838
861.388	21641
861.521	22447
861.653	21709
861.786	21557
861.918	21762
862.05	21728
862.183	21698
862.315	21698
862.447	21907
862.58	21751
862.712	21492
862.844	21549
862.976	21568
863.108	21534
863.24	21915
863.372	21416
863.504	21553
863.636	21408
863.768	21629
863.9	21447
864.032	21462
864.164	21443
864.296	21587
864.428	21523
864.559	21568
864.691	21496
864.823	21428
864.954	21416
865.086	21523
865.217	21428
865.349	21405
865.48	21443
865.612	21382
865.743	21534
865.875	21428
866.006	21466
866.137	21401
866.269	21416
866.4	21359
866.531	21313
866.662	21336
866.793	21378
866.924	21294
867.055	21447
867.186	21485
867.317	21408
867.448	21386
867.579	21363
867.71	21340
867.841	21249
867.972	21458
868.103	21275
868.233	21355
868.364	21306
868.495	21431
868.625	21595
868.756	21641
868.886	21572
869.017	21561
869.147	21861
869.278	21751
869.408	21557
869.539	21610
869.669	21694
869.799	21720
869.929	21717
870.06	21732
870.19	22017
870.32	21785
870.45	22021
870.58	21854
870.71	22055
870.84	22078
870.97	22006
871.1	21972
871.23	22105
871.36	22139
871.489	22067
871.619	22070
871.749	22086
871.879	22238
872.008	22405
872.138	22143
872.267	22135
872.397	21941
872.526	22048
872.656	21949
872.785	22086
872.915	22147
873.044	22147
873.173	22280
873.303	22162
873.432	22287
873.561	22375
873.69	22242
873.819	22086
873.948	22268
874.077	22223
874.206	22070
874.335	22158
874.464	22242
874.593	22459
874.722	22405
874.851	22470
874.979	22390
875.108	22481
875.237	22329
875.365	22371
875.494	22512
875.623	22481
875.751	22352
875.88	22424
876.008	22622
876.136	22679
876.265	22740
876.393	22896
876.521	22881
876.65	22904
876.778	22793
876.906	22653
877.034	22702
877.162	22706
877.29	22725
877.418	22755
877.546	22717
877.674	22725
877.802	22835
877.93	22656
878.058	22767
878.185	22645
878.313	22733
878.441	22615
878.568	22622
878.696	22618
878.824	22748
878.951	22790
879.079	23014
879.206	23033
879.333	22965
879.461	22698
879.588	22961
879.715	22767
879.842	22908
879.97	22828
880.097	22565
880.224	22500
880.351	22588
880.478	22592
880.605	22485
880.732	22527
880.859	22706
880.986	22611
881.112	22683
881.239	22310
881.366	22318
881.493	22196
881.619	22166
881.746	22204
881.872	22154
881.999	22048
882.125	22074
882.252	22040
882.378	22131
882.505	22074
882.631	21930
882.757	21789
882.883	21983
883.01	21895
883.136	21838
883.262	21717
883.388	21694
883.514	21808
883.64	21888
883.766	21762
883.892	21644
884.018	21629
884.143	21717
884.269	21842
884.395	21568
884.52	21542
884.646	21545
884.772	21500
884.897	21370
885.023	21587
885.148	21549
885.274	21606
885.399	21473
885.524	21534
885.65	21603
885.775	21397
885.9	21424
886.025	21435
886.15	21591
886.275	21469
886.4	21458
886.525	21401
886.65	21466
886.775	21340
886.9	21663
887.025	21652
887.149	21454
887.274	21275
887.399	21157
887.523	21241
887.648	21218
887.773	21066
887.897	21252
888.021	21218
888.146	21135
888.27	21294
888.395	21294
888.519	21199
888.643	21203
888.767	21291
888.891	21169
889.015	21013
889.139	21020
889.263	20975
889.387	21169
889.511	21222
889.635	21138
889.759	20891
889.883	21020
890.006	21047
890.13	21165
890.254	20963
890.377	21066
890.501	20777
890.624	20693
890.748	20758
890.871	20587
890.995	20549
891.118	20518
891.241	20724
891.364	20590
891.488	20777
891.611	20511
891.734	20705
891.857	20594
891.98	20518
892.103	20701
892.226	20469
892.349	20530
892.471	20408
892.594	20461
892.717	20492
892.839	20526
892.962	20518
893.085	20564
893.207	20385
893.33	20366
893.452	20385
893.575	20560
893.697	20408
893.819	20579
893.941	20697
894.064	20568
894.186	20454
894.308	20347
894.43	20564
894.552	20606
894.674	20560
894.796	20374
894.918	20522
895.04	20381
895.161	20484
895.283	20533
895.405	20511
895.526	20450
895.648	20381
895.769	20492
895.891	20495
896.012	20617
896.134	20454
896.255	20423
896.376	20423
896.498	20488
896.619	20499
896.74	20419
896.861	20537
896.982	20785
897.103	20807
897.224	20746
897.345	20686
897.466	20625
897.587	20720
897.708	20754
897.828	20735
897.949	20636
898.07	20511
898.19	20682
898.311	20663
898.431	20602
898.552	20785
898.672	20823
898.792	20762
898.913	20613
899.033	20571
899.153	20507
899.273	20347
899.393	20465
899.513	20602
899.633	20454
899.753	20412
899.873	20366
899.993	20431
900.113	20317
900.232	20454
900.352	20374
900.472	20275
900.591	20225
900.711	20343
900.83	20149
900.95	20286
901.069	20263
901.189	20202
901.308	19925
901.427	19738
901.546	19658
901.665	19761
901.784	19696
901.904	19601
902.023	19616
902.141	19320
902.26	19339
902.379	19362
902.498	19373
902.617	19107
902.735	19316
902.854	19240
902.973	19244
903.091	19053
903.21	18939
903.328	19008
903.446	18817
903.565	18749
903.683	18867
903.801	18620
903.919	18745
904.038	18734
904.156	18460
904.274	18635
904.392	18407
904.51	18597
904.627	18585
904.745	18635
904.863	18509
904.981	18327
905.098	18182
905.216	18194
905.334	18243
905.451	18121
905.569	18178
905.686	18247
905.803	18209
905.921	18041
906.038	18133
906.155	17973
906.272	17889
906.389	17870
906.506	17752
906.623	17707
906.74	17707
906.857	17596
906.974	17589
907.091	17760
907.208	17847
907.324	17722
907.441	17646
907.557	17539
907.674	17429
907.79	17414
907.907	17379
908.023	17429
908.139	17433
908.256	17326
908.372	17227
908.488	17299
908.604	17105
908.72	16980
908.836	17220
908.952	17060
909.068	17174
909.184	17223
909.3	17143
909.415	17296
909.531	17136
909.647	16858
909.762	16797
909.878	16835
909.993	16854
910.108	16896
910.224	16790
910.339	16805
910.454	16679
910.57	16580
910.685	16664
910.8	16759
910.915	16778
911.03	16634
911.145	16512
911.259	16428
911.374	16451
911.489	16337
911.604	16333
911.718	16223
911.833	16306
911.947	16093
912.062	16025
912.176	16112
912.291	16204
912.405	16074
912.519	16280
912.633	16371
912.748	16169
912.862	16101
912.976	16029
913.09	15888
913.204	15892
913.318	15964
913.431	16109
913.545	16006
913.659	16086
913.772	16040
913.886	15804
914	15819
914.113	15812
914.226	15956
914.34	15823
914.453	15698
914.566	15751
914.68	15728
914.793	15682
914.906	15538
915.019	15424
915.132	15256
915.245	15389
915.358	15363
915.47	15367
915.583	15401
915.696	15325
915.809	15374
915.921	15420
916.034	15412
916.146	15294
916.259	15306
916.371	15393
916.483	15359
916.595	15108
916.708	15146
916.82	15173
916.932	15264
917.044	15218
917.156	15119
917.268	14979
917.38	15051
917.491	14998
917.603	15055
917.715	14994
917.826	15097
917.938	14944
918.049	14872
918.161	15043
918.272	15157
918.384	15047
918.495	14967
918.606	14842
918.717	14655
918.828	14811
918.939	14853
919.05	14731
919.161	14792
919.272	14598
919.383	14697
919.494	14834
919.604	15047
919.715	14727
919.826	14655
919.936	14731
920.047	14777
920.157	14712
920.267	14834
920.378	14762
920.488	14648
920.598	14815
920.708	15093
920.818	14883
920.928	14853
921.038	15001
921.148	14842
921.258	14667
921.368	14556
921.477	14434
921.587	14408
921.697	14256
921.806	14518
921.916	14324
922.025	14138
922.134	14058
922.244	14081
922.353	14050
922.462	14001
922.571	13852
922.68	13769
922.789	13871
922.898	13753
923.007	13769
923.116	13769
923.224	13784
923.333	13666
923.442	13666
923.55	13548
923.659	13647
923.767	13567
923.876	13483
923.984	13609
924.092	13464
924.201	13521
924.309	13453
924.417	13540
924.525	13415
924.633	13453
924.741	14202
924.849	13244
924.956	13236
925.064	13091
925.172	13095
925.279	13122
925.387	13126
925.494	13095
925.602	13171
925.709	13152
925.816	13080
925.924	13023
926.031	13110
926.138	13076
926.245	13069
926.352	13084
926.459	13149
926.566	13168
926.673	13023
926.779	12878
926.886	12844
926.993	12825
927.099	12726
927.206	12665
927.312	12722
927.419	12757
927.525	12692
927.631	12753
927.737	12612
927.843	12623
927.95	12334
928.056	12544
928.162	12525
928.267	12635
928.373	13175
928.479	12490
928.585	12292
928.69	12452
928.796	12509
928.901	12414
929.007	12159
929.112	12330
929.218	12353
929.323	12346
929.428	12262
929.533	12323
929.638	12167
929.743	12213
929.848	12224
929.953	12091
930.058	12038
930.163	11950
930.267	11988
930.372	12034
930.477	11893
930.581	12133
930.685	11977
930.79	11752
930.894	11851
930.998	11802
931.103	11961
931.207	11585
931.311	11467
931.415	11433
931.519	11128
931.623	11121
