Data from test_V78500241_2179.txt Node
Date: Fri Mar 25 15:25:01 CST 2022
User: usil
Spectrometer: V785-0024
Trigger mode: 0
Integration Time (sec): 4.000000E-1
Scans to average: 1
Nonlinearity correction enabled: false
Boxcar width: 0
Storing dark spectrum: false
XAxis mode: Wavelengths
Number of Pixels in Spectrum: 1024
>>>>>Begin Spectral Data<<<<<
801.071	27835
801.214	27876
801.356	27477
801.499	27351
801.641	27279
801.783	27275
801.926	27408
802.068	27291
802.211	27218
802.353	27188
802.496	27074
802.638	26872
802.78	26975
802.923	26895
803.065	26815
803.208	26830
803.35	26952
803.492	27032
803.635	27127
803.777	27013
803.919	27047
804.061	27515
804.204	27051
804.346	27070
804.488	27222
804.63	27173
804.773	26937
804.915	27119
805.057	27180
805.199	27203
805.341	27142
805.483	27214
805.626	27351
805.768	27142
805.91	27367
806.052	27294
806.194	27116
806.336	27329
806.478	27218
806.62	27245
806.762	27416
806.904	27431
807.046	27903
807.188	27637
807.33	27690
807.472	27823
807.614	27542
807.756	27576
807.898	27420
808.04	27519
808.182	27397
808.324	27568
808.465	27667
808.607	27759
808.749	27835
808.891	27819
809.033	27975
809.174	28082
809.316	27953
809.458	27972
809.6	27937
809.741	28002
809.883	28055
810.025	28124
810.166	28211
810.308	28097
810.45	28048
810.591	28036
810.733	27850
810.875	27838
811.016	27759
811.158	27637
811.299	27960
811.441	28021
811.582	27941
811.724	27876
811.865	27941
812.007	27903
812.148	27766
812.29	27903
812.431	28048
812.573	28204
812.714	28276
812.855	28531
812.997	28538
813.138	28573
813.279	28531
813.421	28394
813.562	28196
813.703	28200
813.845	28006
813.986	27876
814.127	27648
814.268	27557
814.41	27660
814.551	27534
814.692	27610
814.833	27538
814.974	27515
815.115	27603
815.256	27367
815.397	27435
815.539	27412
815.68	27382
815.821	27131
815.962	27306
816.103	27424
816.244	27241
816.385	27100
816.526	27100
816.666	27066
816.807	26800
816.948	26876
817.089	27058
817.23	26800
817.371	26792
817.512	26891
817.653	26876
817.793	26693
817.934	26659
818.075	26933
818.216	26781
818.356	26785
818.497	26659
818.638	26549
818.778	26465
818.919	26674
819.06	26556
819.2	26674
819.341	26754
819.481	26769
819.622	26990
819.762	27104
819.903	27051
820.043	26998
820.184	26899
820.324	26975
820.465	26979
820.605	27020
820.746	26861
820.886	26842
821.026	26963
821.167	26868
821.307	26872
821.447	26826
821.588	26758
821.728	26465
821.868	26442
822.008	26415
822.149	26278
822.289	26282
822.429	25978
822.569	26008
822.709	26031
822.849	25803
822.99	25868
823.13	25791
823.27	25715
823.41	25605
823.55	25434
823.69	25544
823.83	25628
823.97	25582
824.11	25308
824.25	25422
824.389	25343
824.529	25464
824.669	25293
824.809	25419
824.949	25407
825.089	25556
825.228	25324
825.368	25156
825.508	25278
825.648	25346
825.787	25301
825.927	25381
826.067	25339
826.206	25266
826.346	25225
826.485	25316
826.625	25316
826.765	25278
826.904	25324
827.044	25057
827.183	25148
827.323	24947
827.462	25088
827.601	24939
827.741	24977
827.88	25050
828.02	24814
828.159	24958
828.298	24920
828.437	25042
828.577	24920
828.716	25069
828.855	24973
828.994	24783
829.134	24665
829.273	24661
829.412	24589
829.551	24696
829.69	24669
829.829	24681
829.968	24806
830.107	24684
830.246	24791
830.385	24627
830.524	24563
830.663	24403
830.802	24433
830.941	24277
831.08	24270
831.219	24277
831.357	24429
831.496	24544
831.635	24338
831.774	24159
831.913	24076
832.051	24068
832.19	24095
832.329	24140
832.467	23859
832.606	23863
832.744	24034
832.883	23893
833.022	23973
833.16	23874
833.299	23950
833.437	24018
833.576	24053
833.714	24072
833.852	24079
833.991	24026
834.129	24106
834.267	24133
834.406	24129
834.544	23988
834.682	24057
834.821	24041
834.959	24095
835.097	23931
835.235	24140
835.373	23920
835.511	24022
835.65	23813
835.788	23760
835.926	23695
836.064	23649
836.202	23783
836.34	23927
836.478	23999
836.615	23866
836.753	23783
836.891	23836
837.029	23916
837.167	23901
837.305	23786
837.443	23585
837.58	23798
837.718	23798
837.856	23649
837.993	23566
838.131	23680
838.269	23608
838.406	23657
838.544	23478
838.681	23364
838.819	23391
838.956	23197
839.094	23170
839.231	23143
839.369	23410
839.506	23665
839.643	23455
839.781	23067
839.918	23140
840.055	23113
840.193	23083
840.33	23079
840.467	23037
840.604	23048
840.742	23341
840.879	22911
841.016	23006
841.153	22938
841.29	23166
841.427	23086
841.564	23113
841.701	23018
841.838	23044
841.975	22927
842.112	22980
842.249	22934
842.385	22858
842.522	23041
842.659	22904
842.796	22862
842.933	22866
843.069	22759
843.206	22759
843.343	22942
843.479	22713
843.616	22835
843.752	22580
843.889	22656
844.025	22752
844.162	22538
844.298	22694
844.435	22660
844.571	22557
844.708	22561
844.844	22759
844.98	22740
845.117	22626
845.253	22615
845.389	22428
845.525	22489
845.661	22493
845.798	22287
845.934	22451
846.07	22223
846.206	22375
846.342	22485
846.478	22382
846.614	22166
846.75	22051
846.886	22051
847.022	22143
847.158	22188
847.294	22082
847.429	22093
847.565	21968
847.701	22360
847.837	21869
847.972	21800
848.108	21892
848.244	21884
848.379	21690
848.515	21743
848.65	21591
848.786	21629
848.921	21671
849.057	21747
849.192	21755
849.328	21587
849.463	21629
849.598	21675
849.734	21682
849.869	21610
850.004	21351
850.14	21416
850.275	21416
850.41	21291
850.545	21355
850.68	21466
850.815	21564
850.95	21488
851.085	21576
851.22	21599
851.355	21462
851.49	21485
851.625	21397
851.76	21454
851.895	21256
852.03	21237
852.165	21439
852.299	21428
852.434	21389
852.569	21435
852.703	21317
852.838	21443
852.973	21580
853.107	21439
853.242	21302
853.376	21329
853.511	21161
853.645	21268
853.78	21401
853.914	21268
854.048	21112
854.183	21180
854.317	21192
854.451	21412
854.585	21203
854.72	21291
854.854	21226
854.988	21112
855.122	21203
855.256	21096
855.39	21176
855.524	21279
855.658	21214
855.792	21214
855.926	21192
856.06	21264
856.194	21264
856.327	21249
856.461	21192
856.595	21169
856.729	21176
856.862	21321
856.996	21275
857.13	21310
857.263	21317
857.397	21241
857.53	21230
857.664	21226
857.797	21310
857.931	21359
858.064	21249
858.197	21283
858.331	21256
858.464	21203
858.597	21180
858.731	21214
858.864	21180
858.997	21161
859.13	21233
859.263	21325
859.396	21393
859.529	21306
859.662	21226
859.795	21256
859.928	21374
860.061	21321
860.194	21397
860.327	21256
860.46	21241
860.592	21374
860.725	21393
860.858	21355
860.99	21138
861.123	21150
861.256	21256
861.388	21279
861.521	21911
861.653	21077
861.786	20979
861.918	21108
862.05	21169
862.183	21116
862.315	21119
862.447	21291
862.58	21192
862.712	20845
862.844	20845
862.976	21089
863.108	21001
863.24	21447
863.372	20941
863.504	20941
863.636	20887
863.768	21005
863.9	21024
864.032	20792
864.164	20788
864.296	20815
864.428	21047
864.559	20979
864.691	20914
864.823	20910
864.954	20933
865.086	20952
865.217	20876
865.349	20659
865.48	20868
865.612	20811
865.743	20971
865.875	20773
866.006	20853
866.137	20830
866.269	20807
866.4	20765
866.531	20785
866.662	20785
866.793	20743
866.924	20746
867.055	20811
867.186	20830
867.317	20826
867.448	20556
867.579	20815
867.71	20701
867.841	20667
867.972	20724
868.103	20731
868.233	20853
868.364	20880
868.495	20979
868.625	20986
868.756	21017
868.886	21013
869.017	20975
869.147	21089
869.278	21089
869.408	21043
869.539	21108
869.669	21009
869.799	20971
869.929	21138
870.06	21241
870.19	21386
870.32	21279
870.45	21359
870.58	21252
870.71	21412
870.84	21477
870.97	21378
871.1	21287
871.23	21462
871.36	21591
871.489	21568
871.619	21488
871.749	21633
871.879	21576
872.008	21595
872.138	21644
872.267	21564
872.397	21523
872.526	21397
872.656	21416
872.785	21431
872.915	21686
873.044	21652
873.173	21675
873.303	21637
873.432	21728
873.561	21701
873.69	21720
873.819	21637
873.948	21732
874.077	21568
874.206	21561
874.335	21564
874.464	21701
874.593	21907
874.722	21949
874.851	21850
874.979	21846
875.108	21770
875.237	21736
875.365	21679
875.494	21922
875.623	21979
875.751	21781
875.88	21850
876.008	21991
876.136	22025
876.265	22314
876.393	22390
876.521	22238
876.65	22329
876.778	22291
876.906	22070
877.034	22139
877.162	22207
877.29	22036
877.418	22226
877.546	22207
877.674	22215
877.802	22188
877.93	22048
878.058	22128
878.185	22128
878.313	22059
878.441	22181
878.568	21903
878.696	22242
878.824	22207
878.951	22196
879.079	22382
879.206	22565
879.333	22371
879.461	22226
879.588	22261
879.715	22402
879.842	22352
879.97	22314
880.097	21964
880.224	22128
880.351	21945
880.478	21987
880.605	21934
880.732	22017
880.859	22238
880.986	22017
881.112	21998
881.239	21907
881.366	21797
881.493	21686
881.619	21629
881.746	21686
881.872	21629
881.999	21580
882.125	21504
882.252	21667
882.378	21663
882.505	21515
882.631	21405
882.757	21336
882.883	21412
883.01	21317
883.136	21245
883.262	21085
883.388	21142
883.514	21332
883.64	21260
883.766	21260
883.892	21146
884.018	21089
884.143	21298
884.269	21332
884.395	20982
884.52	20933
884.646	21001
884.772	20838
884.897	20864
885.023	20906
885.148	20971
885.274	21047
885.399	21074
885.524	20986
885.65	20960
885.775	20941
885.9	20921
886.025	20998
886.15	20979
886.275	20845
886.4	20960
886.525	20853
886.65	20743
886.775	20853
886.9	21055
887.025	21013
887.149	20868
887.274	20785
887.399	20667
887.523	20731
887.648	20678
887.773	20606
887.897	20815
888.021	20800
888.146	20727
888.27	20811
888.395	20712
888.519	20777
888.643	20849
888.767	20762
888.891	20560
889.015	20552
889.139	20708
889.263	20499
889.387	20636
889.511	20720
889.635	20545
889.759	20511
889.883	20552
890.006	20442
890.13	20579
890.254	20381
890.377	20377
890.501	20183
890.624	20142
890.748	20305
890.871	20149
890.995	20149
891.118	20043
891.241	20088
891.364	20046
891.488	20054
891.611	20157
891.734	20161
891.857	20035
891.98	20046
892.103	20138
892.226	20088
892.349	20027
892.471	19917
892.594	20062
892.717	20081
892.839	19955
892.962	19925
893.085	20046
893.207	20001
893.33	19860
893.452	19940
893.575	20016
893.697	19997
893.819	20069
893.941	20210
894.064	20088
894.186	19989
894.308	19944
894.43	20035
894.552	20153
894.674	20050
894.796	19898
894.918	20035
895.04	20115
895.161	20027
895.283	20077
895.405	20050
895.526	20024
895.648	20031
895.769	19982
895.891	20016
896.012	20020
896.134	19986
896.255	20031
896.376	19925
896.498	20005
896.619	20202
896.74	19978
896.861	20043
896.982	20237
897.103	20343
897.224	20183
897.345	20237
897.466	20191
897.587	20206
897.708	20328
897.828	20298
897.949	20229
898.07	20111
898.19	20172
898.311	20290
898.431	20210
898.552	20286
898.672	20313
898.792	20233
898.913	20278
899.033	20225
899.153	20001
899.273	19841
899.393	19917
899.513	19921
899.633	20050
899.753	19989
899.873	19845
899.993	19833
900.113	19917
900.232	20062
900.352	19925
900.472	19902
900.591	19826
900.711	19875
900.83	19719
900.95	19833
901.069	19742
901.189	19552
901.308	19540
901.427	19339
901.546	19354
901.665	19468
901.784	19129
901.904	19274
902.023	19152
902.141	18943
902.26	18802
902.379	18916
902.498	18913
902.617	18798
902.735	18840
902.854	18901
902.973	18753
903.091	18437
903.21	18521
903.328	18479
903.446	18429
903.565	18372
903.683	18353
903.801	18338
903.919	18247
904.038	18300
904.156	18102
904.274	18129
904.392	18205
904.51	17977
904.627	18049
904.745	18171
904.863	18076
904.981	17920
905.098	17790
905.216	17805
905.334	17756
905.451	17832
905.569	17657
905.686	17786
905.803	17745
905.921	17562
906.038	17634
906.155	17535
906.272	17440
906.389	17570
906.506	17372
906.623	17505
906.74	17360
906.857	17033
906.974	17216
907.091	17208
907.208	17334
907.324	17273
907.441	17200
907.557	17128
907.674	16984
907.79	16995
907.907	16866
908.023	17041
908.139	17086
908.256	17003
908.372	16919
908.488	16896
908.604	16767
908.72	16752
908.836	16869
908.952	16668
909.068	16816
909.184	16797
909.3	16653
909.415	16694
909.531	16736
909.647	16436
909.762	16493
909.878	16268
909.993	16432
910.108	16367
910.224	16348
910.339	16440
910.454	16402
910.57	16158
910.685	16101
910.8	16485
910.915	16344
911.03	16211
911.145	16097
911.259	16139
911.374	16078
911.489	16044
911.604	15884
911.718	15739
911.833	15762
911.947	15637
912.062	15637
912.176	15770
912.291	15743
912.405	15739
912.519	15937
912.633	15991
912.748	15770
912.862	15713
912.976	15595
913.09	15378
913.204	15564
913.318	15610
913.431	15675
913.545	15656
913.659	15587
913.772	15557
913.886	15412
914	15401
914.113	15370
914.226	15519
914.34	15507
914.453	15256
914.566	15454
914.68	15268
914.793	15264
914.906	14956
915.019	15009
915.132	14952
915.245	14982
915.358	15028
915.47	15036
915.583	14963
915.696	15070
915.809	15135
915.921	15097
916.034	14830
916.146	14933
916.259	14902
916.371	14967
916.483	14990
916.595	14956
916.708	14914
916.82	14807
916.932	14746
917.044	14792
917.156	14720
917.268	14693
917.38	14705
917.491	14655
917.603	14705
917.715	14708
917.826	14826
917.938	14594
918.049	14564
918.161	14648
918.272	14765
918.384	14796
918.495	14583
918.606	14473
918.717	14366
918.828	14450
918.939	14484
919.05	14339
919.161	14415
919.272	14256
919.383	14229
919.494	14507
919.604	14682
919.715	14461
919.826	14267
919.936	14313
920.047	14427
920.157	14374
920.267	14495
920.378	14412
920.488	14366
920.598	14514
920.708	14606
920.818	14499
920.928	14560
921.038	14708
921.148	14689
921.258	14301
921.368	14240
921.477	14107
921.587	14267
921.697	13974
921.806	14153
921.916	13909
922.025	13852
922.134	13856
922.244	13772
922.353	13841
922.462	13575
922.571	13552
922.68	13506
922.789	13472
922.898	13388
923.007	13301
923.116	13460
923.224	13403
923.333	13282
923.442	13236
923.55	13244
923.659	13285
923.767	13301
923.876	13206
923.984	13244
924.092	13107
924.201	13175
924.309	13076
924.417	13137
924.525	13084
924.633	13099
924.741	13822
924.849	12890
924.956	12996
925.064	12890
925.172	12760
925.279	12897
925.387	12871
925.494	12844
925.602	13008
925.709	12905
925.816	12719
925.924	12745
926.031	12825
926.138	12821
926.245	12802
926.352	12707
926.459	12798
926.566	12875
926.673	12749
926.779	12604
926.886	12532
926.993	12399
927.099	12460
927.206	12357
927.312	12342
927.419	12395
927.525	12410
927.631	12448
927.737	12376
927.843	12311
927.95	12076
928.056	12251
928.162	12239
928.267	12243
928.373	12821
928.479	12266
928.585	12049
928.69	12159
928.796	12125
928.901	12045
929.007	11965
929.112	12030
929.218	12060
929.323	11931
929.428	11980
929.533	12076
929.638	11916
929.743	11954
929.848	11912
929.953	11977
930.058	11805
930.163	11577
930.267	11577
930.372	11790
930.477	11615
930.581	11855
930.685	11741
930.79	11570
930.894	11547
930.998	11551
931.103	11748
931.207	11235
931.311	11174
931.415	11067
931.519	10873
931.623	10938
