Data from test_V78500241_3239.txt Node
Date: Fri Mar 25 15:32:24 CST 2022
User: usil
Spectrometer: V785-0024
Trigger mode: 0
Integration Time (sec): 4.000000E-1
Scans to average: 1
Nonlinearity correction enabled: false
Boxcar width: 0
Storing dark spectrum: false
XAxis mode: Wavelengths
Number of Pixels in Spectrum: 1024
>>>>>Begin Spectral Data<<<<<
801.071	27241
801.214	27275
801.356	26925
801.499	26990
801.641	26857
801.783	26731
801.926	26731
802.068	26792
802.211	26667
802.353	26568
802.496	26613
802.638	26507
802.78	26412
802.923	26412
803.065	26252
803.208	26286
803.35	26526
803.492	26552
803.635	26461
803.777	26511
803.919	26590
804.061	26982
804.204	26640
804.346	26457
804.488	26381
804.63	26492
804.773	26503
804.915	26590
805.057	26613
805.199	26617
805.341	26609
805.483	26807
805.626	26727
805.768	26583
805.91	26701
806.052	26659
806.194	26674
806.336	26773
806.478	26804
806.62	26644
806.762	26807
806.904	26887
807.046	27260
807.188	27180
807.33	27032
807.472	27188
807.614	27100
807.756	27096
807.898	26975
808.04	26864
808.182	26967
808.324	26800
808.465	26940
808.607	27150
808.749	27268
808.891	27313
809.033	27450
809.174	27405
809.316	27256
809.458	27336
809.6	27336
809.741	27287
809.883	27424
810.025	27534
810.166	27553
810.308	27397
810.45	27629
810.591	27443
810.733	27245
810.875	27317
811.016	27218
811.158	27192
811.299	27226
811.441	27511
811.582	27447
811.724	27310
811.865	27192
812.007	27119
812.148	27245
812.29	27287
812.431	27306
812.573	27599
812.714	27572
812.855	27755
812.997	27838
813.138	28101
813.279	27846
813.421	27652
813.562	27595
813.703	27618
813.845	27401
813.986	27077
814.127	27077
814.268	26910
814.41	27001
814.551	26971
814.692	26971
814.833	26807
814.974	26914
815.115	27055
815.256	26868
815.397	26739
815.539	26815
815.68	26663
815.821	26636
815.962	26720
816.103	26689
816.244	26590
816.385	26431
816.526	26484
816.666	26294
816.807	26168
816.948	26240
817.089	26252
817.23	26271
817.371	26164
817.512	26142
817.653	26218
817.793	26142
817.934	26161
818.075	26180
818.216	26145
818.356	26145
818.497	26096
818.638	25833
818.778	25966
818.919	25993
819.06	26027
819.2	25989
819.341	26138
819.481	26111
819.622	26229
819.762	26621
819.903	26442
820.043	26408
820.184	26294
820.324	26320
820.465	26328
820.605	26202
820.746	26168
820.886	26134
821.026	26259
821.167	26202
821.307	26408
821.447	26111
821.588	26218
821.728	25925
821.868	25830
822.008	25780
822.149	25647
822.289	25677
822.429	25430
822.569	25350
822.709	25285
822.849	25145
822.99	25103
823.13	25225
823.27	25255
823.41	24943
823.55	24932
823.69	24894
823.83	24989
823.97	24981
824.11	24764
824.25	24726
824.389	24738
824.529	24840
824.669	24768
824.809	24947
824.949	24795
825.089	24852
825.228	24852
825.368	24620
825.508	24722
825.648	24490
825.787	24627
825.927	24734
826.067	24540
826.206	24681
826.346	24665
826.485	24658
826.625	24544
826.765	24856
826.904	24684
827.044	24464
827.183	24521
827.323	24319
827.462	24521
827.601	24357
827.741	24365
827.88	24407
828.02	24376
828.159	24346
828.298	24350
828.437	24346
828.577	24270
828.716	24388
828.855	24266
828.994	24136
829.134	24053
829.273	24125
829.412	24045
829.551	23996
829.69	23996
829.829	24174
829.968	24125
830.107	24163
830.246	24083
830.385	23996
830.524	24045
830.663	23866
830.802	23695
830.941	23828
831.08	23581
831.219	23676
831.357	23668
831.496	23882
831.635	23745
831.774	23539
831.913	23558
832.051	23539
832.19	23516
832.329	23524
832.467	23292
832.606	23261
832.744	23303
832.883	23330
833.022	23356
833.16	23391
833.299	23341
833.437	23429
833.576	23410
833.714	23417
833.852	23448
833.991	23512
834.129	23520
834.267	23452
834.406	23474
834.544	23429
834.682	23440
834.821	23387
834.959	23608
835.097	23379
835.235	23482
835.373	23463
835.511	23436
835.65	23356
835.788	23341
835.926	23143
836.064	23132
836.202	23113
836.34	23379
836.478	23379
836.615	23311
836.753	23284
836.891	23524
837.029	23383
837.167	23322
837.305	23235
837.443	23090
837.58	23086
837.718	23250
837.856	23212
837.993	23223
838.131	23143
838.269	23029
838.406	23143
838.544	22972
838.681	22809
838.819	22717
838.956	22512
839.094	22672
839.231	22672
839.369	22706
839.506	22976
839.643	22866
839.781	22675
839.918	22516
840.055	22569
840.193	22569
840.33	22455
840.467	22489
840.604	22653
840.742	22820
840.879	22318
841.016	22466
841.153	22455
841.29	22698
841.427	22523
841.564	22561
841.701	22573
841.838	22459
841.975	22409
842.112	22436
842.249	22519
842.385	22379
842.522	22584
842.659	22516
842.796	22318
842.933	22329
843.069	22215
843.206	22295
843.343	22382
843.479	22333
843.616	22371
843.752	22120
843.889	22078
844.025	22268
844.162	22063
844.298	22154
844.435	22181
844.571	22040
844.708	22093
844.844	22249
844.98	22185
845.117	22139
845.253	22051
845.389	22051
845.525	22093
845.661	21941
845.798	21709
845.934	21926
846.07	21846
846.206	21968
846.342	21972
846.478	21850
846.614	21690
846.75	21416
846.886	21416
847.022	21663
847.158	21675
847.294	21496
847.429	21614
847.565	21538
847.701	21770
847.837	21287
847.972	21222
848.108	21408
848.244	21336
848.379	21302
848.515	21226
848.65	21150
848.786	21260
848.921	21116
849.057	21329
849.192	21351
849.328	21351
849.463	21169
849.598	21161
849.734	21074
849.869	21089
850.004	20887
850.14	21005
850.275	20967
850.41	20861
850.545	20838
850.68	20868
850.815	20963
850.95	20952
851.085	21112
851.22	21074
851.355	20990
851.49	20883
851.625	20910
851.76	20918
851.895	20842
852.03	20868
852.165	20883
852.299	20979
852.434	21055
852.569	21001
852.703	20899
852.838	20967
852.973	20982
853.107	20975
853.242	20868
853.376	20788
853.511	20598
853.645	20689
853.78	20819
853.914	20788
854.048	20640
854.183	20731
854.317	20781
854.451	21081
854.585	20792
854.72	20769
854.854	20815
854.988	20697
855.122	20640
855.256	20632
855.39	20785
855.524	20807
855.658	20807
855.792	20762
855.926	20834
856.06	20838
856.194	20754
856.327	20667
856.461	20648
856.595	20693
856.729	20830
856.862	20842
856.996	20678
857.13	20758
857.263	20857
857.397	20800
857.53	20708
857.664	20815
857.797	20857
857.931	20830
858.064	20857
858.197	20872
858.331	20727
858.464	20724
858.597	20644
858.731	20701
858.864	20693
858.997	20705
859.13	20781
859.263	20678
859.396	20746
859.529	20807
859.662	20712
859.795	20731
859.928	20689
860.061	20986
860.194	20952
860.327	20842
860.46	20655
860.592	20811
860.725	20948
860.858	20864
860.99	20773
861.123	20735
861.256	20648
861.388	20765
861.521	21272
861.653	20598
861.786	20526
861.918	20533
862.05	20659
862.183	20686
862.315	20609
862.447	20746
862.58	20697
862.712	20522
862.844	20575
862.976	20541
863.108	20564
863.24	20853
863.372	20423
863.504	20480
863.636	20454
863.768	20579
863.9	20507
864.032	20499
864.164	20469
864.296	20530
864.428	20674
864.559	20541
864.691	20514
864.823	20469
864.954	20412
865.086	20419
865.217	20396
865.349	20305
865.48	20377
865.612	20343
865.743	20537
865.875	20393
866.006	20195
866.137	20320
866.269	20389
866.4	20389
866.531	20434
866.662	20275
866.793	20290
866.924	20408
867.055	20305
867.186	20332
867.317	20412
867.448	20187
867.579	20248
867.71	20218
867.841	20324
867.972	20286
868.103	20332
868.233	20275
868.364	20400
868.495	20465
868.625	20480
868.756	20716
868.886	20533
869.017	20484
869.147	20640
869.278	20693
869.408	20659
869.539	20579
869.669	20689
869.799	20579
869.929	20651
870.06	20697
870.19	20811
870.32	20800
870.45	20823
870.58	21036
870.71	21047
870.84	21199
870.97	21043
871.1	20941
871.23	21226
871.36	21085
871.489	21096
871.619	21222
871.749	21131
871.879	21154
872.008	21260
872.138	21245
872.267	21214
872.397	21055
872.526	21077
872.656	21043
872.785	20975
872.915	21230
873.044	21211
873.173	21275
873.303	21188
873.432	21272
873.561	21317
873.69	21306
873.819	21184
873.948	21287
874.077	21096
874.206	21203
874.335	21260
874.464	21325
874.593	21504
874.722	21355
874.851	21386
874.979	21511
875.108	21435
875.237	21462
875.365	21283
875.494	21477
875.623	21538
875.751	21500
875.88	21393
876.008	21656
876.136	21580
876.265	21895
876.393	22044
876.521	21953
876.65	21926
876.778	21793
876.906	21835
877.034	21804
877.162	21850
877.29	21873
877.418	21816
877.546	21918
877.674	21915
877.802	21797
877.93	21838
878.058	21686
878.185	21656
878.313	21892
878.441	21884
878.568	21679
878.696	21728
878.824	21793
878.951	21800
879.079	21922
879.206	22166
879.333	21926
879.461	21907
879.588	21857
879.715	21979
879.842	22105
879.97	21907
880.097	21515
880.224	21739
880.351	21679
880.478	21603
880.605	21587
880.732	21755
880.859	21945
880.986	21557
881.112	21637
881.239	21538
881.366	21481
881.493	21321
881.619	21195
881.746	21340
881.872	21176
881.999	21275
882.125	21112
882.252	21230
882.378	21218
882.505	21283
882.631	21112
882.757	20941
882.883	20956
883.01	20971
883.136	20929
883.262	20678
883.388	20762
883.514	20960
883.64	20986
883.766	20925
883.892	20701
884.018	20735
884.143	20864
884.269	21020
884.395	20560
884.52	20625
884.646	20606
884.772	20492
884.897	20396
885.023	20598
885.148	20651
885.274	20606
885.399	20545
885.524	20552
885.65	20556
885.775	20640
885.9	20480
886.025	20644
886.15	20568
886.275	20560
886.4	20514
886.525	20507
886.65	20492
886.775	20541
886.9	20648
887.025	20720
887.149	20476
887.274	20469
887.399	20328
887.523	20450
887.648	20412
887.773	20218
887.897	20377
888.021	20336
888.146	20294
888.27	20396
888.395	20511
888.519	20332
888.643	20404
888.767	20415
888.891	20187
889.015	20187
889.139	20221
889.263	20115
889.387	20237
889.511	20324
889.635	20294
889.759	20142
889.883	20138
890.006	20122
890.13	20256
890.254	19978
890.377	20126
890.501	20020
890.624	19788
890.748	20020
890.871	19742
890.995	19731
891.118	19727
891.241	19791
891.364	19696
891.488	19864
891.611	19791
891.734	19655
891.857	19841
891.98	19643
892.103	19715
892.226	19818
892.349	19613
892.471	19594
892.594	19620
892.717	19677
892.839	19616
892.962	19750
893.085	19651
893.207	19670
893.33	19647
893.452	19597
893.575	19677
893.697	19689
893.819	19803
893.941	19879
894.064	19898
894.186	19620
894.308	19586
894.43	19799
894.552	19746
894.674	19639
894.796	19605
894.918	19609
895.04	19628
895.161	19685
895.283	19632
895.405	19655
895.526	19537
895.648	19693
895.769	19658
895.891	19567
896.012	19746
896.134	19578
896.255	19746
896.376	19597
896.498	19655
896.619	19693
896.74	19772
896.861	19696
896.982	20020
897.103	19993
897.224	19871
897.345	19841
897.466	19738
897.587	19871
897.708	19978
897.828	19917
897.949	19830
898.07	19601
898.19	19803
898.311	19917
898.431	19803
898.552	19814
898.672	19879
898.792	19982
898.913	19993
899.033	19765
899.153	19693
899.273	19597
899.393	19681
899.513	19742
899.633	19643
899.753	19689
899.873	19533
899.993	19552
900.113	19544
900.232	19529
900.352	19552
900.472	19529
900.591	19320
900.711	19381
900.83	19369
900.95	19460
901.069	19582
901.189	19228
901.308	19008
901.427	19031
901.546	18954
901.665	18954
901.784	18985
901.904	18905
902.023	18749
902.141	18658
902.26	18460
902.379	18620
902.498	18433
902.617	18506
902.735	18589
902.854	18426
902.973	18437
903.091	18026
903.21	18216
903.328	18235
903.446	18190
903.565	17939
903.683	17920
903.801	17920
903.919	17935
904.038	17992
904.156	17878
904.274	17847
904.392	17764
904.51	17756
904.627	17764
904.745	17779
904.863	17748
904.981	17554
905.098	17395
905.216	17459
905.334	17543
905.451	17425
905.569	17425
905.686	17501
905.803	17330
905.921	17258
906.038	17307
906.155	17284
906.272	17220
906.389	17090
906.506	17037
906.623	17045
906.74	16896
906.857	16877
906.974	16866
907.091	16995
907.208	17067
907.324	17067
907.441	16881
907.557	16717
907.674	16847
907.79	16584
907.907	16641
908.023	16729
908.139	16733
908.256	16713
908.372	16618
908.488	16626
908.604	16542
908.72	16337
908.836	16462
908.952	16348
909.068	16432
909.184	16466
909.3	16390
909.415	16421
909.531	16398
909.647	16135
909.762	16181
909.878	16154
909.993	16249
910.108	16093
910.224	16090
910.339	16120
910.454	16002
910.57	16013
910.685	15941
910.8	16192
910.915	16071
911.03	15918
911.145	15827
911.259	15690
911.374	15728
911.489	15705
911.604	15599
911.718	15469
911.833	15485
911.947	15439
912.062	15412
912.176	15523
912.291	15564
912.405	15538
912.519	15633
912.633	15644
912.748	15511
912.862	15477
912.976	15291
913.09	15188
913.204	15233
913.318	15351
913.431	15389
913.545	15397
913.659	15382
913.772	15325
913.886	15062
914	15142
914.113	15157
914.226	15348
914.34	15218
914.453	15009
914.566	15154
914.68	15043
914.793	15062
914.906	14868
915.019	14765
915.132	14708
915.245	14785
915.358	14830
915.47	14815
915.583	14682
915.696	14842
915.809	14864
915.921	14823
916.034	14727
916.146	14689
916.259	14640
916.371	14750
916.483	14644
916.595	14613
916.708	14511
916.82	14537
916.932	14469
917.044	14526
917.156	14442
917.268	14358
917.38	14423
917.491	14461
917.603	14438
917.715	14393
917.826	14454
917.938	14267
918.049	14210
918.161	14332
918.272	14518
918.384	14476
918.495	14366
918.606	14168
918.717	14123
918.828	14153
918.939	14187
919.05	14123
919.161	14123
919.272	14008
919.383	14062
919.494	14237
919.604	14366
919.715	14149
919.826	14081
919.936	14130
920.047	14237
920.157	14183
920.267	14320
920.378	14092
920.488	14073
920.598	14332
920.708	14488
920.818	14225
920.928	14301
921.038	14514
921.148	14336
921.258	14153
921.368	13951
921.477	13890
921.587	13906
921.697	13830
921.806	13974
921.916	13761
922.025	13700
922.134	13495
922.244	13499
922.353	13586
922.462	13407
922.571	13316
922.68	13240
922.789	13232
922.898	13304
923.007	13141
923.116	13129
923.224	13133
923.333	13266
923.442	13004
923.55	13019
923.659	13015
923.767	13061
923.876	12932
923.984	12981
924.092	12886
924.201	12924
924.309	12966
924.417	12867
924.525	12817
924.633	12894
924.741	13837
924.849	12601
924.956	12776
925.064	12635
925.172	12525
925.279	12639
925.387	12612
925.494	12616
925.602	12798
925.709	12688
925.816	12582
925.924	12574
926.031	12688
926.138	12555
926.245	12597
926.352	12494
926.459	12559
926.566	12639
926.673	12460
926.779	12502
926.886	12361
926.993	12334
927.099	12213
927.206	12155
927.312	12106
927.419	12281
927.525	12121
927.631	12201
927.737	12079
927.843	12038
927.95	11897
928.056	11969
928.162	11969
928.267	12117
928.373	12593
928.479	12117
928.585	11855
928.69	11920
928.796	11954
928.901	11882
929.007	11688
929.112	11855
929.218	11885
929.323	11813
929.428	11756
929.533	11889
929.638	11619
929.743	11684
929.848	11805
929.953	11649
930.058	11611
930.163	11379
930.267	11387
930.372	11501
930.477	11417
930.581	11577
930.685	11543
930.79	11433
930.894	11360
930.998	11334
931.103	11402
931.207	11216
931.311	10991
931.415	10995
931.519	10748
931.623	10660
