Data from test_V78500241_1301.txt Node
Date: Fri Mar 25 15:18:54 CST 2022
User: usil
Spectrometer: V785-0024
Trigger mode: 0
Integration Time (sec): 4.000000E-1
Scans to average: 1
Nonlinearity correction enabled: false
Boxcar width: 0
Storing dark spectrum: false
XAxis mode: Wavelengths
Number of Pixels in Spectrum: 1024
>>>>>Begin Spectral Data<<<<<
801.071	27991
801.214	27778
801.356	27587
801.499	27557
801.641	27427
801.783	27348
801.926	27568
802.068	27576
802.211	27469
802.353	27370
802.496	27214
802.638	27272
802.78	27226
802.923	26918
803.065	26975
803.208	27024
803.35	26906
803.492	27245
803.635	27272
803.777	27131
803.919	27173
804.061	27530
804.204	27256
804.346	27287
804.488	27138
804.63	27298
804.773	27070
804.915	27401
805.057	27329
805.199	27367
805.341	27412
805.483	27511
805.626	27599
805.768	27477
805.91	27447
806.052	27610
806.194	27401
806.336	27679
806.478	27454
806.62	27568
806.762	27618
806.904	27850
807.046	27979
807.188	27892
807.33	27827
807.472	28025
807.614	27759
807.756	27888
807.898	27911
808.04	27732
808.182	27656
808.324	27743
808.465	27774
808.607	27949
808.749	28078
808.891	27968
809.033	28154
809.174	28154
809.316	27953
809.458	28086
809.6	28051
809.741	28215
809.883	28204
810.025	28466
810.166	28436
810.308	28371
810.45	28424
810.591	28337
810.733	28078
810.875	28166
811.016	28074
811.158	27991
811.299	28188
811.441	28314
811.582	28303
811.724	28150
811.865	28032
812.007	28192
812.148	28109
812.29	28055
812.431	28253
812.573	28360
812.714	28557
812.855	28675
812.997	28694
813.138	28919
813.279	28888
813.421	28809
813.562	28736
813.703	28550
813.845	28314
813.986	28131
814.127	27903
814.268	27732
814.41	27949
814.551	27762
814.692	27979
814.833	27800
814.974	27804
815.115	27831
815.256	27694
815.397	27648
815.539	27644
815.68	27591
815.821	27564
815.962	27736
816.103	27637
816.244	27534
816.385	27359
816.526	27359
816.666	27226
816.807	27127
816.948	27142
817.089	27249
817.23	27230
817.371	27154
817.512	27089
817.653	27009
817.793	27077
817.934	26925
818.075	27176
818.216	27188
818.356	27154
818.497	27005
818.638	26830
818.778	26906
818.919	26902
819.06	26834
819.2	27085
819.341	27039
819.481	27150
819.622	27275
819.762	27473
819.903	27370
820.043	27211
820.184	27116
820.324	27195
820.465	27249
820.605	27321
820.746	27272
820.886	26994
821.026	27154
821.167	27055
821.307	27329
821.447	27135
821.588	27036
821.728	26883
821.868	26796
822.008	26602
822.149	26644
822.289	26530
822.429	26324
822.569	26355
822.709	26244
822.849	26210
822.99	26081
823.13	26134
823.27	26103
823.41	25966
823.55	25860
823.69	25993
823.83	25868
823.97	25951
824.11	25677
824.25	25738
824.389	25643
824.529	25784
824.669	25738
824.809	25921
824.949	25917
825.089	25791
825.228	25875
825.368	25639
825.508	25491
825.648	25655
825.787	25548
825.927	25632
826.067	25514
826.206	25483
826.346	25635
826.485	25731
826.625	25594
826.765	25632
826.904	25525
827.044	25335
827.183	25422
827.323	25384
827.462	25293
827.601	25441
827.741	25278
827.88	25377
828.02	25240
828.159	25148
828.298	25217
828.437	25365
828.577	25278
828.716	25324
828.855	25133
828.994	25103
829.134	24996
829.273	25053
829.412	25012
829.551	24970
829.69	24916
829.829	25088
829.968	25099
830.107	25004
830.246	25084
830.385	24947
830.524	24886
830.663	24791
830.802	24768
830.941	24715
831.08	24570
831.219	24814
831.357	24738
831.496	24958
831.635	24810
831.774	24608
831.913	24608
832.051	24353
832.19	24505
832.329	24429
832.467	24357
832.606	24258
832.744	24346
832.883	24361
833.022	24365
833.16	24247
833.299	24353
833.437	24479
833.576	24384
833.714	24285
833.852	24330
833.991	24315
834.129	24505
834.267	24384
834.406	24433
834.544	24380
834.682	24353
834.821	24281
834.959	24525
835.097	24372
835.235	24410
835.373	24407
835.511	24311
835.65	24228
835.788	24296
835.926	24155
836.064	24003
836.202	24201
836.34	24239
836.478	24251
836.615	24232
836.753	24148
836.891	24353
837.029	24186
837.167	24194
837.305	24110
837.443	24003
837.58	23999
837.718	24057
837.856	24083
837.993	23973
838.131	23977
838.269	23912
838.406	23939
838.544	23912
838.681	23790
838.819	23646
838.956	23581
839.094	23391
839.231	23528
839.369	23729
839.506	23885
839.643	23809
839.781	23509
839.918	23440
840.055	23570
840.193	23478
840.33	23570
840.467	23356
840.604	23505
840.742	23779
840.879	23258
841.016	23429
841.153	23318
841.29	23589
841.427	23455
841.564	23528
841.701	23478
841.838	23417
841.975	23376
842.112	23406
842.249	23204
842.385	23208
842.522	23303
842.659	23204
842.796	23159
842.933	23212
843.069	23094
843.206	23140
843.343	23379
843.479	23113
843.616	23284
843.752	23018
843.889	23052
844.025	23124
844.162	23052
844.298	23102
844.435	23075
844.571	22976
844.708	22984
844.844	23090
844.98	23056
845.117	23124
845.253	22908
845.389	22820
845.525	22896
845.661	22793
845.798	22626
845.934	22603
846.07	22672
846.206	22774
846.342	22755
846.478	22717
846.614	22527
846.75	22310
846.886	22447
847.022	22417
847.158	22573
847.294	22493
847.429	22607
847.565	22344
847.701	22736
847.837	22158
847.972	22169
848.108	22291
848.244	22238
848.379	22181
848.515	21934
848.65	22055
848.786	21926
848.921	21998
849.057	22124
849.192	22192
849.328	22105
849.463	22029
849.598	21968
849.734	22063
849.869	21934
850.004	21873
850.14	21816
850.275	21838
850.41	21728
850.545	21713
850.68	21660
850.815	21823
850.95	21762
851.085	21739
851.22	21994
851.355	21804
851.49	21747
851.625	21743
851.76	21709
851.895	21644
852.03	21622
852.165	21698
852.299	21755
852.434	21789
852.569	21793
852.703	21789
852.838	21808
852.973	21930
853.107	21800
853.242	21709
853.376	21583
853.511	21443
853.645	21576
853.78	21667
853.914	21694
854.048	21534
854.183	21599
854.317	21580
854.451	21663
854.585	21694
854.72	21599
854.854	21587
854.988	21557
855.122	21717
855.256	21466
855.39	21743
855.524	21686
855.658	21625
855.792	21675
855.926	21717
856.06	21614
856.194	21686
856.327	21557
856.461	21564
856.595	21507
856.729	21591
856.862	21701
856.996	21515
857.13	21652
857.263	21774
857.397	21648
857.53	21530
857.664	21618
857.797	21755
857.931	21785
858.064	21519
858.197	21781
858.331	21462
858.464	21538
858.597	21542
858.731	21542
858.864	21667
858.997	21603
859.13	21641
859.263	21454
859.396	21652
859.529	21633
859.662	21496
859.795	21580
859.928	21542
860.061	21705
860.194	21850
860.327	21732
860.46	21576
860.592	21755
860.725	21717
860.858	21739
860.99	21675
861.123	21557
861.256	21595
861.388	21690
861.521	22322
861.653	21466
861.786	21519
861.918	21313
862.05	21496
862.183	21431
862.315	21542
862.447	21557
862.58	21530
862.712	21340
862.844	21199
862.976	21412
863.108	21443
863.24	21663
863.372	21146
863.504	21252
863.636	21298
863.768	21401
863.9	21161
864.032	21226
864.164	21275
864.296	21310
864.428	21458
864.559	21329
864.691	21424
864.823	21378
864.954	21237
865.086	21142
865.217	21268
865.349	21116
865.48	21245
865.612	21226
865.743	21317
865.875	21199
866.006	21211
866.137	21313
866.269	21203
866.4	21195
866.531	21074
866.662	21142
866.793	21154
866.924	21142
867.055	21195
867.186	21123
867.317	21192
867.448	20990
867.579	21085
867.71	21009
867.841	21104
867.972	21116
868.103	21108
868.233	21230
868.364	21161
868.495	21214
868.625	21245
868.756	21515
868.886	21272
869.017	21306
869.147	21458
869.278	21485
869.408	21439
869.539	21310
869.669	21477
869.799	21336
869.929	21504
870.06	21332
870.19	21747
870.32	21545
870.45	21728
870.58	21709
870.71	21888
870.84	21785
870.97	21739
871.1	21789
871.23	21960
871.36	21972
871.489	21778
871.619	21922
871.749	21956
871.879	21975
872.008	21968
872.138	21949
872.267	21956
872.397	21797
872.526	21816
872.656	21751
872.785	21812
872.915	21972
873.044	21991
873.173	21968
873.303	21930
873.432	21994
873.561	22116
873.69	21915
873.819	22025
873.948	21926
874.077	21949
874.206	21941
874.335	21975
874.464	22059
874.593	22215
874.722	22154
874.851	22344
874.979	22249
875.108	22219
875.237	22192
875.365	22036
875.494	22234
875.623	22166
875.751	22246
875.88	22093
876.008	22268
876.136	22459
876.265	22618
876.393	22679
876.521	22630
876.65	22622
876.778	22500
876.906	22527
877.034	22497
877.162	22432
877.29	22474
877.418	22577
877.546	22630
877.674	22497
877.802	22466
877.93	22512
878.058	22508
878.185	22474
878.313	22565
878.441	22565
878.568	22440
878.696	22470
878.824	22668
878.951	22516
879.079	22767
879.206	22675
879.333	22660
879.461	22523
879.588	22626
879.715	22744
879.842	22710
879.97	22561
880.097	22417
880.224	22226
880.351	22371
880.478	22371
880.605	22333
880.732	22440
880.859	22546
880.986	22382
881.112	22333
881.239	22162
881.366	22131
881.493	21998
881.619	21998
881.746	22090
881.872	22063
881.999	21998
882.125	21808
882.252	21968
882.378	21888
882.505	21937
882.631	21846
882.757	21679
882.883	21835
883.01	21603
883.136	21530
883.262	21443
883.388	21523
883.514	21743
883.64	21751
883.766	21553
883.892	21397
884.018	21572
884.143	21606
884.269	21625
884.395	21313
884.52	21176
884.646	21389
884.772	21249
884.897	21154
885.023	21382
885.148	21329
885.274	21386
885.399	21450
885.524	21291
885.65	21203
885.775	21173
885.9	21291
886.025	21389
886.15	21306
886.275	21230
886.4	21260
886.525	21344
886.65	21321
886.775	21275
886.9	21439
887.025	21408
887.149	21256
887.274	21237
887.399	21104
887.523	20891
887.648	21043
887.773	20941
887.897	21116
888.021	20960
888.146	21085
888.27	21154
888.395	21032
888.519	21039
888.643	21074
888.767	21127
888.891	20982
889.015	20910
889.139	20883
889.263	20815
889.387	20910
889.511	21032
889.635	20914
889.759	20883
889.883	20750
890.006	20800
890.13	20994
890.254	20868
890.377	20674
890.501	20705
890.624	20613
890.748	20640
890.871	20465
890.995	20400
891.118	20377
891.241	20328
891.364	20419
891.488	20480
891.611	20469
891.734	20438
891.857	20336
891.98	20488
892.103	20446
892.226	20324
892.349	20313
892.471	20149
892.594	20366
892.717	20412
892.839	20370
892.962	20244
893.085	20374
893.207	20339
893.33	20229
893.452	20164
893.575	20434
893.697	20206
893.819	20320
893.941	20590
894.064	20400
894.186	20126
894.308	20176
894.43	20461
894.552	20412
894.674	20461
894.796	20248
894.918	20343
895.04	20259
895.161	20267
895.283	20282
895.405	20256
895.526	20343
895.648	20282
895.769	20267
895.891	20317
896.012	20370
896.134	20355
896.255	20191
896.376	20290
896.498	20324
896.619	20305
896.74	20252
896.861	20362
896.982	20598
897.103	20701
897.224	20549
897.345	20590
897.466	20446
897.587	20537
897.708	20537
897.828	20499
897.949	20511
898.07	20366
898.19	20396
898.311	20590
898.431	20362
898.552	20533
898.672	20598
898.792	20606
898.913	20579
899.033	20423
899.153	20336
899.273	20244
899.393	20233
899.513	20301
899.633	20183
899.753	20362
899.873	20187
899.993	20374
900.113	20161
900.232	20240
900.352	20240
900.472	19898
900.591	19936
900.711	19967
900.83	19936
900.95	20134
901.069	20149
901.189	20016
901.308	19719
901.427	19567
901.546	19502
901.665	19514
901.784	19662
901.904	19540
902.023	19419
902.141	19244
902.26	19072
902.379	19209
902.498	19160
902.617	19084
902.735	19042
902.854	18993
902.973	19076
903.091	18909
903.21	18764
903.328	18753
903.446	18745
903.565	18779
903.683	18536
903.801	18429
903.919	18566
904.038	18513
904.156	18323
904.274	18372
904.392	18285
904.51	18323
904.627	18376
904.745	18429
904.863	18277
904.981	18106
905.098	18095
905.216	18003
905.334	18076
905.451	18053
905.569	18007
905.686	17965
905.803	18030
905.921	17874
906.038	17920
906.155	17946
906.272	17790
906.389	17726
906.506	17615
906.623	17608
906.74	17551
906.857	17452
906.974	17539
907.091	17589
907.208	17684
907.324	17512
907.441	17433
907.557	17254
907.674	17341
907.79	17197
907.907	17242
908.023	17296
908.139	17265
908.256	17231
908.372	17143
908.488	17147
908.604	17045
908.72	16949
908.836	16987
908.952	16984
909.068	16930
909.184	17094
909.3	17010
909.415	17033
909.531	17014
909.647	16793
909.762	16873
909.878	16733
909.993	16691
910.108	16611
910.224	16630
910.339	16660
910.454	16599
910.57	16641
910.685	16402
910.8	16736
910.915	16558
911.03	16485
911.145	16386
911.259	16360
911.374	16367
911.489	16226
911.604	16185
911.718	16029
911.833	16063
911.947	15956
912.062	15778
912.176	15930
912.291	16055
912.405	16002
912.519	16177
912.633	16169
912.748	16017
912.862	15960
912.976	15941
913.09	15698
913.204	15709
913.318	15827
913.431	16036
913.545	15880
913.659	16051
913.772	15793
913.886	15595
914	15633
914.113	15660
914.226	15766
914.34	15846
914.453	15519
914.566	15641
914.68	15492
914.793	15485
914.906	15359
915.019	15268
915.132	15211
915.245	15230
915.358	15203
915.47	15245
915.583	15180
915.696	15294
915.809	15367
915.921	15443
916.034	15165
916.146	15119
916.259	15066
916.371	15169
916.483	15180
916.595	15055
916.708	15108
916.82	15138
916.932	14963
917.044	15074
917.156	15005
917.268	14967
917.38	14986
917.491	14845
917.603	14960
917.715	14876
917.826	14986
917.938	14842
918.049	14765
918.161	14899
918.272	15017
918.384	14914
918.495	14845
918.606	14716
918.717	14556
918.828	14587
918.939	14636
919.05	14522
919.161	14587
919.272	14431
919.383	14488
919.494	14716
919.604	14864
919.715	14613
919.826	14511
919.936	14663
920.047	14670
920.157	14651
920.267	14739
920.378	14640
920.488	14575
920.598	14800
920.708	14948
920.818	14857
920.928	14659
921.038	14887
921.148	14883
921.258	14575
921.368	14503
921.477	14427
921.587	14301
921.697	14305
921.806	14301
921.916	14229
922.025	14039
922.134	14024
922.244	13925
922.353	14024
922.462	13887
922.571	13719
922.68	13666
922.789	13559
922.898	13719
923.007	13609
923.116	13696
923.224	13624
923.333	13578
923.442	13499
923.55	13518
923.659	13483
923.767	13506
923.876	13411
923.984	13529
924.092	13339
924.201	13369
924.309	13373
924.417	13381
924.525	13301
924.633	13365
924.741	14199
924.849	13057
924.956	13202
925.064	13088
925.172	13042
925.279	13031
925.387	13088
925.494	12943
925.602	13095
925.709	13084
925.816	12962
925.924	13027
926.031	13046
926.138	13008
926.245	12947
926.352	12894
926.459	12886
926.566	12989
926.673	12916
926.779	12779
926.886	12859
926.993	12688
927.099	12669
927.206	12528
927.312	12612
927.419	12658
927.525	12642
927.631	12555
927.737	12521
927.843	12391
927.95	12285
928.056	12456
928.162	12445
928.267	12486
928.373	12989
928.479	12395
928.585	12243
928.69	12346
928.796	12467
928.901	12311
929.007	12117
929.112	12232
929.218	12216
929.323	12235
929.428	12197
929.533	12213
929.638	12136
929.743	12182
929.848	12152
929.953	12087
930.058	11973
930.163	11805
930.267	11817
930.372	12019
930.477	11764
930.581	11965
930.685	11912
930.79	11676
930.894	11619
930.998	11653
931.103	11813
931.207	11478
931.311	11459
931.415	11246
931.519	11079
931.623	11140
