Data from test_V78500241_2045.txt Node
Date: Fri Mar 25 15:24:05 CST 2022
User: usil
Spectrometer: V785-0024
Trigger mode: 0
Integration Time (sec): 4.000000E-1
Scans to average: 1
Nonlinearity correction enabled: false
Boxcar width: 0
Storing dark spectrum: false
XAxis mode: Wavelengths
Number of Pixels in Spectrum: 1024
>>>>>Begin Spectral Data<<<<<
801.071	27812
801.214	27804
801.356	27580
801.499	27549
801.641	27321
801.783	27306
801.926	27492
802.068	27454
802.211	27287
802.353	27310
802.496	27100
802.638	27036
802.78	27024
802.923	26910
803.065	26933
803.208	26883
803.35	26895
803.492	27062
803.635	27180
803.777	26960
803.919	27222
804.061	27454
804.204	27241
804.346	27252
804.488	27211
804.63	27226
804.773	27104
804.915	27199
805.057	27317
805.199	27207
805.341	27256
805.483	27313
805.626	27256
805.768	27230
805.91	27325
806.052	27214
806.194	27287
806.336	27618
806.478	27241
806.62	27325
806.762	27321
806.904	27736
807.046	27850
807.188	27732
807.33	27641
807.472	27720
807.614	27629
807.756	27686
807.898	27553
808.04	27595
808.182	27599
808.324	27553
808.465	27713
808.607	27991
808.749	27975
808.891	28032
809.033	28268
809.174	28010
809.316	27964
809.458	27914
809.6	27956
809.741	28029
809.883	28246
810.025	28337
810.166	28196
810.308	28223
810.45	28177
810.591	28059
810.733	28169
810.875	27911
811.016	27876
811.158	27911
811.299	28006
811.441	27968
811.582	28006
811.724	28082
811.865	27911
812.007	27812
812.148	27854
812.29	28036
812.431	28135
812.573	28188
812.714	28382
812.855	28516
812.997	28561
813.138	28710
813.279	28527
813.421	28466
813.562	28401
813.703	28329
813.845	28131
813.986	27899
814.127	27869
814.268	27591
814.41	27778
814.551	27542
814.692	27595
814.833	27564
814.974	27549
815.115	27713
815.256	27515
815.397	27561
815.539	27614
815.68	27462
815.821	27374
815.962	27435
816.103	27443
816.244	27317
816.385	27169
816.526	27142
816.666	27017
816.807	26902
816.948	27039
817.089	26990
817.23	27001
817.371	27009
817.512	26914
817.653	26861
817.793	26857
817.934	26910
818.075	26948
818.216	26906
818.356	26705
818.497	26758
818.638	26606
818.778	26625
818.919	26541
819.06	26823
819.2	26849
819.341	26849
819.481	26940
819.622	26982
819.762	27226
819.903	27169
820.043	27108
820.184	26864
820.324	27001
820.465	26982
820.605	27020
820.746	26929
820.886	26823
821.026	26979
821.167	26834
821.307	26940
821.447	26918
821.588	26826
821.728	26765
821.868	26465
822.008	26351
822.149	26263
822.289	26355
822.429	26058
822.569	26084
822.709	26001
822.849	25856
822.99	26024
823.13	26001
823.27	25852
823.41	25643
823.55	25662
823.69	25753
823.83	25696
823.97	25597
824.11	25544
824.25	25377
824.389	25571
824.529	25529
824.669	25635
824.809	25655
824.949	25700
825.089	25514
825.228	25605
825.368	25384
825.508	25354
825.648	25388
825.787	25381
825.927	25468
826.067	25335
826.206	25266
826.346	25422
826.485	25529
826.625	25377
826.765	25518
826.904	25453
827.044	25171
827.183	25118
827.323	25129
827.462	25316
827.601	25107
827.741	24954
827.88	25084
828.02	24905
828.159	25042
828.298	25160
828.437	25110
828.577	25080
828.716	25206
828.855	24901
828.994	24928
829.134	24856
829.273	24837
829.412	24837
829.551	24696
829.69	24886
829.829	24753
829.968	24817
830.107	24825
830.246	24764
830.385	24810
830.524	24646
830.663	24673
830.802	24532
830.941	24251
831.08	24235
831.219	24350
831.357	24502
831.496	24616
831.635	24445
831.774	24429
831.913	24232
832.051	24186
832.19	24083
832.329	24270
832.467	24114
832.606	23992
832.744	24026
832.883	23923
833.022	24064
833.16	24030
833.299	24030
833.437	24117
833.576	24144
833.714	24144
833.852	24228
833.991	24125
834.129	24102
834.267	24216
834.406	24167
834.544	24076
834.682	24330
834.821	24178
834.959	24304
835.097	24117
835.235	24121
835.373	24045
835.511	24098
835.65	23927
835.788	24049
835.926	23802
836.064	23729
836.202	23832
836.34	24030
836.478	24095
836.615	23885
836.753	23977
836.891	23996
837.029	23961
837.167	24030
837.305	23939
837.443	23847
837.58	23893
837.718	23832
837.856	23786
837.993	23832
838.131	23897
838.269	23710
838.406	23824
838.544	23608
838.681	23474
838.819	23383
838.956	23288
839.094	23178
839.231	23417
839.369	23471
839.506	23592
839.643	23531
839.781	23402
839.918	23193
840.055	23330
840.193	23166
840.33	23231
840.467	23181
840.604	23181
840.742	23433
840.879	23094
841.016	23181
841.153	23109
841.29	23315
841.427	23147
841.564	23208
841.701	23136
841.838	23159
841.975	22980
842.112	23003
842.249	22942
842.385	22934
842.522	23151
842.659	22968
842.796	22961
842.933	22908
843.069	23029
843.206	23018
843.343	22995
843.479	22946
843.616	22949
843.752	22763
843.889	22858
844.025	22793
844.162	22740
844.298	22717
844.435	22721
844.571	22725
844.708	22767
844.844	22831
844.98	22938
845.117	22805
845.253	22675
845.389	22546
845.525	22668
845.661	22694
845.798	22519
845.934	22565
846.07	22474
846.206	22512
846.342	22592
846.478	22405
846.614	22242
846.75	22097
846.886	22124
847.022	22310
847.158	22310
847.294	22215
847.429	22177
847.565	22093
847.701	22287
847.837	21998
847.972	21888
848.108	22013
848.244	22002
848.379	21842
848.515	21686
848.65	21759
848.786	21743
848.921	21895
849.057	21937
849.192	21835
849.328	21865
849.463	21800
849.598	21778
849.734	21637
849.869	21652
850.004	21564
850.14	21530
850.275	21462
850.41	21496
850.545	21523
850.68	21519
850.815	21477
850.95	21629
851.085	21713
851.22	21595
851.355	21641
851.49	21580
851.625	21614
851.76	21519
851.895	21408
852.03	21485
852.165	21424
852.299	21466
852.434	21583
852.569	21641
852.703	21454
852.838	21633
852.973	21732
853.107	21701
853.242	21553
853.376	21355
853.511	21241
853.645	21428
853.78	21561
853.914	21382
854.048	21374
854.183	21469
854.317	21412
854.451	21587
854.585	21351
854.72	21283
854.854	21370
854.988	21195
855.122	21408
855.256	21241
855.39	21389
855.524	21523
855.658	21393
855.792	21302
855.926	21370
856.06	21458
856.194	21496
856.327	21355
856.461	21313
856.595	21192
856.729	21275
856.862	21431
856.996	21386
857.13	21481
857.263	21568
857.397	21443
857.53	21249
857.664	21454
857.797	21393
857.931	21439
858.064	21466
858.197	21538
858.331	21412
858.464	21359
858.597	21252
858.731	21329
858.864	21294
858.997	21298
859.13	21389
859.263	21325
859.396	21492
859.529	21378
859.662	21249
859.795	21287
859.928	21382
860.061	21431
860.194	21511
860.327	21412
860.46	21374
860.592	21450
860.725	21481
860.858	21545
860.99	21355
861.123	21378
861.256	21298
861.388	21416
861.521	21975
861.653	21241
861.786	21150
861.918	21207
862.05	21340
862.183	21344
862.315	21287
862.447	21370
862.58	21287
862.712	21005
862.844	21013
862.976	21154
863.108	21112
863.24	21507
863.372	21005
863.504	21096
863.636	21077
863.768	21093
863.9	21077
864.032	20910
864.164	21131
864.296	21081
864.428	21340
864.559	21062
864.691	21165
864.823	21138
864.954	21005
865.086	21077
865.217	20918
865.349	20902
865.48	20925
865.612	20941
865.743	21142
865.875	20933
866.006	20868
866.137	20979
866.269	20986
866.4	20842
866.531	20815
866.662	20845
866.793	20906
866.924	20762
867.055	20929
867.186	20853
867.317	20861
867.448	20842
867.579	20788
867.71	20872
867.841	20842
867.972	21013
868.103	20868
868.233	20937
868.364	20804
868.495	20952
868.625	21131
868.756	21230
868.886	21135
869.017	21119
869.147	21165
869.278	21211
869.408	21165
869.539	21093
869.669	21252
869.799	21233
869.929	21325
870.06	21192
870.19	21450
870.32	21435
870.45	21477
870.58	21515
870.71	21618
870.84	21648
870.97	21435
871.1	21622
871.23	21648
871.36	21713
871.489	21656
871.619	21720
871.749	21770
871.879	21793
872.008	21800
872.138	21774
872.267	21663
872.397	21553
872.526	21557
872.656	21568
872.785	21583
872.915	21739
873.044	21930
873.173	21709
873.303	21819
873.432	21842
873.561	21907
873.69	21732
873.819	21816
873.948	21709
874.077	21755
874.206	21618
874.335	21618
874.464	21892
874.593	22025
874.722	21895
874.851	22040
874.979	21979
875.108	22025
875.237	22021
875.365	21960
875.494	21934
875.623	21895
875.751	21888
875.88	22013
876.008	22143
876.136	22162
876.265	22295
876.393	22603
876.521	22451
876.65	22451
876.778	22322
876.906	22360
877.034	22238
877.162	22348
877.29	22306
877.418	22382
877.546	22265
877.674	22318
877.802	22337
877.93	22436
878.058	22230
878.185	22306
878.313	22265
878.441	22230
878.568	22131
878.696	22295
878.824	22409
878.951	22421
879.079	22607
879.206	22618
879.333	22497
879.461	22417
879.588	22405
879.715	22466
879.842	22649
879.97	22371
880.097	22303
880.224	22109
880.351	22291
880.478	22246
880.605	22112
880.732	22101
880.859	22303
880.986	22120
881.112	22128
881.239	22063
881.366	21850
881.493	21907
881.619	21675
881.746	21800
881.872	21713
881.999	21682
882.125	21587
882.252	21755
882.378	21709
882.505	21884
882.631	21660
882.757	21473
882.883	21534
883.01	21492
883.136	21416
883.262	21359
883.388	21226
883.514	21447
883.64	21500
883.766	21412
883.892	21268
884.018	21150
884.143	21389
884.269	21507
884.395	21096
884.52	21009
884.646	20994
884.772	21077
884.897	21024
885.023	21123
885.148	21180
885.274	21260
885.399	21131
885.524	21093
885.65	21013
885.775	21146
885.9	21051
886.025	21169
886.15	21135
886.275	20982
886.4	21047
886.525	21005
886.65	21096
886.775	20902
886.9	21207
887.025	21188
887.149	21039
887.274	20906
887.399	20830
887.523	20910
887.648	20739
887.773	20804
887.897	20921
888.021	20872
888.146	20838
888.27	20872
888.395	20960
888.519	20796
888.643	20895
888.767	20845
888.891	20712
889.015	20575
889.139	20682
889.263	20651
889.387	20807
889.511	20834
889.635	20701
889.759	20537
889.883	20507
890.006	20587
890.13	20735
890.254	20590
890.377	20533
890.501	20419
890.624	20351
890.748	20503
890.871	20252
890.995	20153
891.118	20267
891.241	20142
891.364	20134
891.488	20309
891.611	20225
891.734	20168
891.857	20191
891.98	20168
892.103	20180
892.226	20180
892.349	20210
892.471	19982
892.594	20202
892.717	20157
892.839	19944
892.962	20065
893.085	20210
893.207	20164
893.33	20092
893.452	19978
893.575	20168
893.697	20157
893.819	20221
893.941	20301
894.064	20271
894.186	20058
894.308	19932
894.43	20084
894.552	20252
894.674	20202
894.796	19944
894.918	20027
895.04	20054
895.161	20138
895.283	20149
895.405	20043
895.526	20088
895.648	20069
895.769	19955
895.891	20046
896.012	20195
896.134	20119
896.255	20046
896.376	20100
896.498	20043
896.619	20138
896.74	20054
896.861	20142
896.982	20434
897.103	20499
897.224	20282
897.345	20305
897.466	20267
897.587	20343
897.708	20419
897.828	20317
897.949	20199
898.07	20138
898.19	20183
898.311	20450
898.431	20332
898.552	20374
898.672	20404
898.792	20290
898.913	20404
899.033	20278
899.153	20103
899.273	19947
899.393	20180
899.513	20035
899.633	20054
899.753	20024
899.873	20111
899.993	20191
900.113	19917
900.232	19997
900.352	20054
900.472	19925
900.591	19799
900.711	19868
900.83	19750
900.95	19947
901.069	19986
901.189	19830
901.308	19620
901.427	19472
901.546	19578
901.665	19434
901.784	19415
901.904	19228
902.023	19270
902.141	18966
902.26	18977
902.379	19000
902.498	18989
902.617	18859
902.735	18954
902.854	18825
902.973	18817
903.091	18715
903.21	18616
903.328	18536
903.446	18578
903.565	18506
903.683	18395
903.801	18414
903.919	18300
904.038	18319
904.156	18243
904.274	18327
904.392	18251
904.51	18228
904.627	18201
904.745	18433
904.863	18216
904.981	18060
905.098	17878
905.216	17901
905.334	17889
905.451	17756
905.569	17779
905.686	17885
905.803	17828
905.921	17608
906.038	17687
906.155	17786
906.272	17505
906.389	17516
906.506	17376
906.623	17436
906.74	17318
906.857	17364
906.974	17261
907.091	17497
907.208	17539
907.324	17345
907.441	17379
907.557	17200
907.674	17083
907.79	17102
907.907	17090
908.023	17136
908.139	17132
908.256	16942
908.372	16953
908.488	17003
908.604	16858
908.72	16831
908.836	16858
908.952	16828
909.068	16869
909.184	16896
909.3	16873
909.415	16862
909.531	16805
909.647	16626
909.762	16588
909.878	16558
909.993	16519
910.108	16523
910.224	16535
910.339	16531
910.454	16375
910.57	16341
910.685	16226
910.8	16592
910.915	16508
911.03	16371
911.145	16166
911.259	16116
911.374	16158
911.489	16063
911.604	16074
911.718	15869
911.833	15876
911.947	15747
912.062	15816
912.176	15949
912.291	15850
912.405	15770
912.519	16017
912.633	15972
912.748	15884
912.862	15876
912.976	15736
913.09	15557
913.204	15610
913.318	15759
913.431	15751
913.545	15755
913.659	15789
913.772	15606
913.886	15603
914	15523
914.113	15447
914.226	15515
914.34	15519
914.453	15340
914.566	15515
914.68	15393
914.793	15336
914.906	15161
915.019	15028
915.132	15047
915.245	15070
915.358	15074
915.47	15100
915.583	14998
915.696	15131
915.809	15173
915.921	15199
916.034	14990
916.146	15077
916.259	14982
916.371	15058
916.483	14944
916.595	14948
916.708	14906
916.82	14914
916.932	14998
917.044	14845
917.156	14815
917.268	14804
917.38	14788
917.491	14746
917.603	14777
917.715	14811
917.826	14853
917.938	14689
918.049	14648
918.161	14686
918.272	14819
918.384	14842
918.495	14648
918.606	14564
918.717	14507
918.828	14575
918.939	14514
919.05	14343
919.161	14480
919.272	14301
919.383	14385
919.494	14476
919.604	14727
919.715	14450
919.826	14404
919.936	14499
920.047	14450
920.157	14480
920.267	14648
920.378	14434
920.488	14404
920.598	14571
920.708	14712
920.818	14629
920.928	14716
921.038	14785
921.148	14670
921.258	14450
921.368	14343
921.477	14240
921.587	14153
921.697	14103
921.806	14199
921.916	14054
922.025	13902
922.134	13814
922.244	13917
922.353	13875
922.462	13658
922.571	13674
922.68	13422
922.789	13578
922.898	13613
923.007	13487
923.116	13521
923.224	13438
923.333	13502
923.442	13320
923.55	13316
923.659	13335
923.767	13343
923.876	13365
923.984	13449
924.092	13247
924.201	13198
924.309	13247
924.417	13274
924.525	13175
924.633	13122
924.741	13879
924.849	12913
924.956	13091
925.064	12977
925.172	12875
925.279	12886
925.387	12996
925.494	12924
925.602	13042
925.709	12928
925.816	12776
925.924	12894
926.031	12909
926.138	12787
926.245	12894
926.352	12772
926.459	12909
926.566	12901
926.673	12920
926.779	12665
926.886	12749
926.993	12483
927.099	12506
927.206	12410
927.312	12429
927.419	12445
927.525	12513
927.631	12456
927.737	12388
927.843	12304
927.95	12277
928.056	12315
928.162	12346
928.267	12311
928.373	12829
928.479	12357
928.585	12079
928.69	12197
928.796	12376
928.901	12102
929.007	11999
929.112	12148
929.218	12224
929.323	12110
929.428	12007
929.533	12194
929.638	11954
929.743	11920
929.848	12007
929.953	12015
930.058	11863
930.163	11718
930.267	11737
930.372	11843
930.477	11680
930.581	11904
930.685	11779
930.79	11577
930.894	11608
930.998	11551
931.103	11695
931.207	11395
931.311	11307
931.415	11239
931.519	11033
931.623	10957
