Data from test_V78500241_729.txt Node
Date: Fri Mar 25 15:14:56 CST 2022
User: usil
Spectrometer: V785-0024
Trigger mode: 0
Integration Time (sec): 4.000000E-1
Scans to average: 1
Nonlinearity correction enabled: false
Boxcar width: 0
Storing dark spectrum: false
XAxis mode: Wavelengths
Number of Pixels in Spectrum: 1024
>>>>>Begin Spectral Data<<<<<
801.071	27892
801.214	27994
801.356	27762
801.499	27747
801.641	27660
801.783	27553
801.926	27530
802.068	27641
802.211	27294
802.353	27359
802.496	27203
802.638	27161
802.78	27226
802.923	27184
803.065	27199
803.208	27058
803.35	27336
803.492	27302
803.635	27351
803.777	27348
803.919	27310
804.061	27679
804.204	27427
804.346	27374
804.488	27401
804.63	27386
804.773	27272
804.915	27416
805.057	27469
805.199	27389
805.341	27473
805.483	27606
805.626	27576
805.768	27264
805.91	27519
806.052	27500
806.194	27416
806.336	27713
806.478	27614
806.62	27587
806.762	27625
806.904	27880
807.046	28029
807.188	27937
807.33	27911
807.472	28055
807.614	27907
807.756	27941
807.898	27804
808.04	27762
808.182	27781
808.324	27914
808.465	27911
808.607	28090
808.749	28207
808.891	28036
809.033	28401
809.174	28234
809.316	28219
809.458	28280
809.6	28268
809.741	28413
809.883	28424
810.025	28565
810.166	28379
810.308	28561
810.45	28481
810.591	28443
810.733	28249
810.875	28044
811.016	28105
811.158	28021
811.299	28306
811.441	28363
811.582	28394
811.724	28139
811.865	28063
812.007	28112
812.148	28040
812.29	28246
812.431	28318
812.573	28603
812.714	28512
812.855	28691
812.997	28782
813.138	28999
813.279	28809
813.421	28938
813.562	28774
813.703	28645
813.845	28478
813.986	28169
814.127	28112
814.268	27823
814.41	27850
814.551	27899
814.692	28036
814.833	27857
814.974	27865
815.115	27914
815.256	27762
815.397	27850
815.539	27762
815.68	27785
815.821	27724
815.962	27789
816.103	27732
816.244	27637
816.385	27606
816.526	27329
816.666	27389
816.807	27272
816.948	27222
817.089	27351
817.23	27237
817.371	27355
817.512	27230
817.653	27096
817.793	27230
817.934	27165
818.075	27218
818.216	27195
818.356	27154
818.497	27028
818.638	26937
818.778	26990
818.919	26902
819.06	26948
819.2	27085
819.341	27230
819.481	27199
819.622	27329
819.762	27523
819.903	27348
820.043	27306
820.184	27222
820.324	27336
820.465	27450
820.605	27260
820.746	27291
820.886	27226
821.026	27192
821.167	27195
821.307	27363
821.447	27207
821.588	27043
821.728	26979
821.868	26811
822.008	26834
822.149	26773
822.289	26708
822.429	26267
822.569	26328
822.709	26412
822.849	26214
822.99	26077
823.13	26176
823.27	26062
823.41	25959
823.55	25795
823.69	25993
823.83	26039
823.97	25837
824.11	25795
824.25	25738
824.389	25731
824.529	25955
824.669	25894
824.809	25936
824.949	25951
825.089	25879
825.228	25875
825.368	25635
825.508	25693
825.648	25769
825.787	25803
825.927	25837
826.067	25712
826.206	25495
826.346	25594
826.485	25674
826.625	25738
826.765	25837
826.904	25719
827.044	25578
827.183	25472
827.323	25327
827.462	25491
827.601	25411
827.741	25438
827.88	25362
828.02	25289
828.159	25438
828.298	25400
828.437	25358
828.577	25358
828.716	25453
828.855	25350
828.994	25129
829.134	25046
829.273	25103
829.412	25015
829.551	24992
829.69	25206
829.829	25069
829.968	25244
830.107	25225
830.246	25084
830.385	25110
830.524	24962
830.663	24905
830.802	24837
830.941	24635
831.08	24589
831.219	24863
831.357	24810
831.496	24985
831.635	24734
831.774	24715
831.913	24544
832.051	24467
832.19	24608
832.329	24445
832.467	24311
832.606	24334
832.744	24323
832.883	24422
833.022	24384
833.16	24338
833.299	24494
833.437	24433
833.576	24361
833.714	24517
833.852	24452
833.991	24410
834.129	24532
834.267	24563
834.406	24517
834.544	24502
834.682	24315
834.821	24426
834.959	24528
835.097	24346
835.235	24547
835.373	24460
835.511	24513
835.65	24220
835.788	24201
835.926	24266
836.064	24159
836.202	24038
836.34	24315
836.478	24330
836.615	24285
836.753	24228
836.891	24403
837.029	24277
837.167	24140
837.305	24167
837.443	24197
837.58	24110
837.718	24152
837.856	24106
837.993	24034
838.131	24106
838.269	24041
838.406	23916
838.544	23878
838.681	23707
838.819	23809
838.956	23676
839.094	23573
839.231	23630
839.369	23615
839.506	24030
839.643	23897
839.781	23665
839.918	23543
840.055	23615
840.193	23630
840.33	23433
840.467	23524
840.604	23497
840.742	23710
840.879	23337
841.016	23433
841.153	23356
841.29	23570
841.427	23440
841.564	23509
841.701	23585
841.838	23452
841.975	23455
842.112	23429
842.249	23246
842.385	23395
842.522	23452
842.659	23258
842.796	23216
842.933	23322
843.069	23189
843.206	23200
843.343	23334
843.479	23280
843.616	23216
843.752	23048
843.889	23064
844.025	23143
844.162	22961
844.298	23105
844.435	22999
844.571	23022
844.708	22904
844.844	23185
844.98	23204
845.117	23147
845.253	23056
845.389	22824
845.525	22942
845.661	22862
845.798	22679
845.934	22805
846.07	22634
846.206	22759
846.342	22748
846.478	22778
846.614	22546
846.75	22405
846.886	22451
847.022	22462
847.158	22455
847.294	22500
847.429	22516
847.565	22485
847.701	22755
847.837	22185
847.972	22082
848.108	22226
848.244	22234
848.379	22181
848.515	22112
848.65	22070
848.786	22074
848.921	22025
849.057	22230
849.192	22112
849.328	22090
849.463	22086
849.598	21991
849.734	21960
849.869	21915
850.004	21804
850.14	21819
850.275	21819
850.41	21751
850.545	21762
850.68	21789
850.815	21934
850.95	21880
851.085	22067
851.22	21941
851.355	21755
851.49	21850
851.625	21800
851.76	21930
851.895	21770
852.03	21717
852.165	21667
852.299	21831
852.434	21949
852.569	21770
852.703	21816
852.838	21838
852.973	21964
853.107	21998
853.242	21686
853.376	21625
853.511	21557
853.645	21679
853.78	21736
853.914	21797
854.048	21622
854.183	21545
854.317	21625
854.451	21732
854.585	21545
854.72	21610
854.854	21713
854.988	21519
855.122	21629
855.256	21568
855.39	21656
855.524	21732
855.658	21660
855.792	21629
855.926	21701
856.06	21656
856.194	21663
856.327	21595
856.461	21557
856.595	21625
856.729	21686
856.862	21755
856.996	21781
857.13	21717
857.263	21781
857.397	21751
857.53	21633
857.664	21698
857.797	21785
857.931	21854
858.064	21732
858.197	21690
858.331	21568
858.464	21667
858.597	21564
858.731	21530
858.864	21701
858.997	21648
859.13	21652
859.263	21568
859.396	21804
859.529	21641
859.662	21507
859.795	21652
859.928	21686
860.061	21739
860.194	21903
860.327	21842
860.46	21728
860.592	21709
860.725	21842
860.858	21789
860.99	21561
861.123	21545
861.256	21641
861.388	21694
861.521	22462
861.653	21469
861.786	21576
861.918	21485
862.05	21561
862.183	21496
862.315	21656
862.447	21656
862.58	21576
862.712	21302
862.844	21340
862.976	21466
863.108	21473
863.24	21732
863.372	21313
863.504	21359
863.636	21317
863.768	21332
863.9	21367
864.032	21321
864.164	21218
864.296	21203
864.428	21428
864.559	21439
864.691	21340
864.823	21393
864.954	21294
865.086	21161
865.217	21214
865.349	21138
865.48	21233
865.612	21272
865.743	21454
865.875	21306
866.006	21199
866.137	21188
866.269	21298
866.4	21313
866.531	21188
866.662	21283
866.793	21146
866.924	21169
867.055	21169
867.186	21207
867.317	21142
867.448	21001
867.579	21226
867.71	21051
867.841	21135
867.972	21241
868.103	21138
868.233	21135
868.364	21218
868.495	21249
868.625	21416
868.756	21458
868.886	21325
869.017	21332
869.147	21511
869.278	21469
869.408	21469
869.539	21416
869.669	21428
869.799	21549
869.929	21606
870.06	21545
870.19	21781
870.32	21660
870.45	21694
870.58	21972
870.71	21895
870.84	21873
870.97	21808
871.1	21736
871.23	22002
871.36	22010
871.489	21926
871.619	21964
871.749	22032
871.879	22097
872.008	22162
872.138	21968
872.267	21934
872.397	21930
872.526	21854
872.656	21895
872.785	21827
872.915	22101
873.044	22086
873.173	22059
873.303	22044
873.432	22078
873.561	22177
873.69	21994
873.819	22150
873.948	22055
874.077	22048
874.206	21850
874.335	21960
874.464	22131
874.593	22272
874.722	22230
874.851	22196
874.979	22219
875.108	22226
875.237	22097
875.365	22070
875.494	22265
875.623	22306
875.751	22215
875.88	22261
876.008	22382
876.136	22310
876.265	22725
876.393	22824
876.521	22736
876.65	22645
876.778	22588
876.906	22679
877.034	22588
877.162	22588
877.29	22675
877.418	22599
877.546	22470
877.674	22584
877.802	22546
877.93	22603
878.058	22546
878.185	22519
878.313	22478
878.441	22538
878.568	22371
878.696	22523
878.824	22584
878.951	22611
879.079	22656
879.206	22934
879.333	22774
879.461	22649
879.588	22645
879.715	22637
879.842	22930
879.97	22744
880.097	22322
880.224	22432
880.351	22519
880.478	22474
880.605	22325
880.732	22341
880.859	22577
880.986	22333
881.112	22478
881.239	22242
881.366	22086
881.493	21956
881.619	22036
881.746	22025
881.872	21884
881.999	21892
882.125	21865
882.252	22029
882.378	21861
882.505	22223
882.631	21800
882.757	21759
882.883	21800
883.01	21660
883.136	21622
883.262	21625
883.388	21523
883.514	21720
883.64	21686
883.766	21583
883.892	21389
884.018	21450
884.143	21637
884.269	21709
884.395	21359
884.52	21313
884.646	21408
884.772	21188
884.897	21218
885.023	21252
885.148	21431
885.274	21485
885.399	21523
885.524	21230
885.65	21329
885.775	21386
885.9	21218
886.025	21405
886.15	21382
886.275	21317
886.4	21169
886.525	21351
886.65	21283
886.775	21256
886.9	21466
887.025	21504
887.149	21214
887.274	21165
887.399	20967
887.523	21119
887.648	20994
887.773	20990
887.897	21195
888.021	21195
888.146	21036
888.27	21150
888.395	21154
888.519	21184
888.643	21142
888.767	21169
888.891	21100
889.015	20902
889.139	20948
889.263	20785
889.387	21135
889.511	21100
889.635	20891
889.759	20883
889.883	20891
890.006	20918
890.13	20944
890.254	20807
890.377	20887
890.501	20629
890.624	20636
890.748	20636
890.871	20621
890.995	20438
891.118	20313
891.241	20503
891.364	20484
891.488	20541
891.611	20533
891.734	20507
891.857	20564
891.98	20480
892.103	20537
892.226	20408
892.349	20396
892.471	20377
892.594	20381
892.717	20332
892.839	20305
892.962	20476
893.085	20313
893.207	20446
893.33	20278
893.452	20286
893.575	20374
893.697	20275
893.819	20476
893.941	20533
894.064	20518
894.186	20343
894.308	20275
894.43	20393
894.552	20541
894.674	20415
894.796	20298
894.918	20248
895.04	20225
895.161	20503
895.283	20347
895.405	20381
895.526	20351
895.648	20358
895.769	20454
895.891	20480
896.012	20381
896.134	20343
896.255	20465
896.376	20347
896.498	20271
896.619	20374
896.74	20423
896.861	20419
896.982	20705
897.103	20834
897.224	20670
897.345	20549
897.466	20541
897.587	20602
897.708	20724
897.828	20552
897.949	20492
898.07	20396
898.19	20469
898.311	20655
898.431	20412
898.552	20587
898.672	20507
898.792	20674
898.913	20507
899.033	20457
899.153	20313
899.273	20301
899.393	20351
899.513	20355
899.633	20305
899.753	20374
899.873	20313
899.993	20336
900.113	20267
900.232	20400
900.352	20237
900.472	20195
900.591	20183
900.711	20248
900.83	20081
900.95	20191
901.069	20202
901.189	20024
901.308	19807
901.427	19719
901.546	19662
901.665	19647
901.784	19704
901.904	19491
902.023	19483
902.141	19324
902.26	19270
902.379	19327
902.498	19217
902.617	19046
902.735	19129
902.854	19168
902.973	19076
903.091	18817
903.21	18787
903.328	18970
903.446	18703
903.565	18719
903.683	18620
903.801	18570
903.919	18601
904.038	18620
904.156	18384
904.274	18582
904.392	18384
904.51	18296
904.627	18407
904.745	18422
904.863	18521
904.981	18251
905.098	18098
905.216	18095
905.334	18087
905.451	18148
905.569	17958
905.686	18053
905.803	18030
905.921	17790
906.038	17977
906.155	17969
906.272	17859
906.389	17916
906.506	17714
906.623	17604
906.74	17627
906.857	17490
906.974	17524
907.091	17676
907.208	17684
907.324	17687
907.441	17493
907.557	17410
907.674	17364
907.79	17258
907.907	17284
908.023	17383
908.139	17368
908.256	17212
908.372	17189
908.488	17292
908.604	17109
908.72	17029
908.836	17048
908.952	17022
909.068	17090
909.184	17033
909.3	17086
909.415	17006
909.531	17090
909.647	16866
909.762	16885
909.878	16786
909.993	16809
910.108	16672
910.224	16664
910.339	16812
910.454	16656
910.57	16573
910.685	16542
910.8	16816
910.915	16660
911.03	16535
911.145	16390
911.259	16291
911.374	16284
911.489	16363
911.604	16246
911.718	16067
911.833	16074
911.947	16097
912.062	15983
912.176	16067
912.291	16112
912.405	16177
912.519	16246
912.633	16287
912.748	16021
912.862	16090
912.976	15895
913.09	15861
913.204	15892
913.318	15987
913.431	15930
913.545	15884
913.659	15994
913.772	15846
913.886	15709
914	15728
914.113	15724
914.226	15869
914.34	15736
914.453	15610
914.566	15743
914.68	15595
914.793	15553
914.906	15382
915.019	15325
915.132	15233
915.245	15367
915.358	15378
915.47	15241
915.583	15272
915.696	15260
915.809	15397
915.921	15412
916.034	15256
916.146	15104
916.259	15188
916.371	15287
916.483	15146
916.595	14998
916.708	15104
916.82	15184
916.932	15146
917.044	15192
917.156	15032
917.268	14963
917.38	14960
917.491	14899
917.603	15058
917.715	15055
917.826	15017
917.938	14944
918.049	14834
918.161	14876
918.272	14998
918.384	15017
918.495	14941
918.606	14800
918.717	14610
918.828	14826
918.939	14708
919.05	14613
919.161	14777
919.272	14590
919.383	14598
919.494	14792
919.604	14823
919.715	14629
919.826	14746
919.936	14606
920.047	14663
920.157	14674
920.267	14868
920.378	14689
920.488	14610
920.598	14819
920.708	14960
920.818	14743
920.928	14868
921.038	15001
921.148	14918
921.258	14575
921.368	14541
921.477	14366
921.587	14366
921.697	14324
921.806	14461
921.916	14221
922.025	14153
922.134	14073
922.244	13940
922.353	14111
922.462	13864
922.571	13875
922.68	13643
922.789	13632
922.898	13715
923.007	13586
923.116	13658
923.224	13681
923.333	13662
923.442	13613
923.55	13506
923.659	13613
923.767	13483
923.876	13556
923.984	13639
924.092	13384
924.201	13381
924.309	13419
924.417	13480
924.525	13343
924.633	13335
924.741	14077
924.849	13141
924.956	13244
925.064	13145
925.172	13034
925.279	13076
925.387	13080
925.494	13107
925.602	13206
925.709	13198
925.816	12905
925.924	13072
926.031	13190
926.138	12996
926.245	13069
926.352	12901
926.459	13091
926.566	13004
926.673	13053
926.779	12878
926.886	12856
926.993	12654
927.099	12658
927.206	12589
927.312	12604
927.419	12703
927.525	12673
927.631	12673
927.737	12555
927.843	12521
927.95	12456
928.056	12456
928.162	12540
928.267	12509
928.373	13225
928.479	12589
928.585	12342
928.69	12502
928.796	12593
928.901	12327
929.007	12129
929.112	12254
929.218	12323
929.323	12251
929.428	12144
929.533	12300
929.638	12163
929.743	12129
929.848	12190
929.953	12102
930.058	12053
930.163	11946
930.267	11969
930.372	11988
930.477	11855
930.581	12098
930.685	11923
930.79	11722
930.894	11821
930.998	11729
931.103	11851
931.207	11551
931.311	11376
931.415	11368
931.519	11231
931.623	11162
