Data from test_V78500241_342.txt Node
Date: Fri Mar 25 15:12:14 CST 2022
User: usil
Spectrometer: V785-0024
Trigger mode: 0
Integration Time (sec): 4.000000E-1
Scans to average: 1
Nonlinearity correction enabled: false
Boxcar width: 0
Storing dark spectrum: false
XAxis mode: Wavelengths
Number of Pixels in Spectrum: 1024
>>>>>Begin Spectral Data<<<<<
801.071	27017
801.214	26861
801.356	26762
801.499	26853
801.641	26686
801.783	26427
801.926	26609
802.068	26621
802.211	26541
802.353	26396
802.496	26415
802.638	26305
802.78	26256
802.923	26172
803.065	26187
803.208	26183
803.35	26233
803.492	26404
803.635	26313
803.777	26377
803.919	26415
804.061	26765
804.204	26381
804.346	26320
804.488	26355
804.63	26366
804.773	26149
804.915	26324
805.057	26499
805.199	26256
805.341	26484
805.483	26461
805.626	26347
805.768	26374
805.91	26602
806.052	26438
806.194	26389
806.336	26613
806.478	26583
806.62	26590
806.762	26579
806.904	26689
807.046	26982
807.188	26765
807.33	26804
807.472	26929
807.614	26754
807.756	26891
807.898	26765
808.04	26686
808.182	26568
808.324	26716
808.465	26670
808.607	26815
808.749	26971
808.891	27119
809.033	27283
809.174	27093
809.316	27013
809.458	27070
809.6	26933
809.741	27096
809.883	27184
810.025	27275
810.166	27317
810.308	27397
810.45	27272
810.591	27310
810.733	27066
810.875	27013
811.016	26735
811.158	26971
811.299	27154
811.441	27260
811.582	27081
811.724	27154
811.865	26960
812.007	26899
812.148	27036
812.29	27104
812.431	27005
812.573	27420
812.714	27462
812.855	27557
812.997	27793
813.138	27785
813.279	27625
813.421	27698
813.562	27431
813.703	27477
813.845	27226
813.986	26990
814.127	26830
814.268	26830
814.41	26834
814.551	26720
814.692	26849
814.833	26606
814.974	26625
815.115	26781
815.256	26415
815.397	26499
815.539	26629
815.68	26434
815.821	26469
815.962	26629
816.103	26606
816.244	26434
816.385	26313
816.526	26218
816.666	26092
816.807	25966
816.948	25982
817.089	26142
817.23	26081
817.371	26054
817.512	25986
817.653	25917
817.793	26001
817.934	25970
818.075	25970
818.216	26054
818.356	25902
818.497	25852
818.638	25776
818.778	25616
818.919	25772
819.06	25727
819.2	25822
819.341	25890
819.481	25898
819.622	26122
819.762	26221
819.903	26187
820.043	26012
820.184	26027
820.324	26020
820.465	26210
820.605	26039
820.746	26020
820.886	26073
821.026	26164
821.167	25982
821.307	26001
821.447	26039
821.588	25890
821.728	25746
821.868	25662
822.008	25495
822.149	25495
822.289	25464
822.429	25050
822.569	25053
822.709	25160
822.849	25015
822.99	24947
823.13	24890
823.27	24905
823.41	24681
823.55	24684
823.69	24783
823.83	24779
823.97	24722
824.11	24528
824.25	24467
824.389	24593
824.529	24589
824.669	24555
824.809	24764
824.949	24570
825.089	24654
825.228	24601
825.368	24361
825.508	24414
825.648	24395
825.787	24395
825.927	24414
826.067	24407
826.206	24285
826.346	24509
826.485	24467
826.625	24460
826.765	24498
826.904	24494
827.044	24125
827.183	24098
827.323	24102
827.462	24091
827.601	24209
827.741	24125
827.88	24060
828.02	24072
828.159	24098
828.298	24174
828.437	24258
828.577	24190
828.716	24190
828.855	24129
828.994	23840
829.134	23855
829.273	23882
829.412	23771
829.551	23748
829.69	23813
829.829	23977
829.968	23935
830.107	23946
830.246	23889
830.385	23775
830.524	23855
830.663	23657
830.802	23467
830.941	23482
831.08	23505
831.219	23592
831.357	23387
831.496	23630
831.635	23547
831.774	23417
831.913	23330
832.051	23345
832.19	23242
832.329	23414
832.467	23280
832.606	23204
832.744	23193
832.883	23174
833.022	23098
833.16	23204
833.299	23200
833.437	23216
833.576	23235
833.714	23311
833.852	23315
833.991	23220
834.129	23345
834.267	23387
834.406	23189
834.544	23326
834.682	23250
834.821	23265
834.959	23429
835.097	23208
835.235	23288
835.373	23185
835.511	23292
835.65	23136
835.788	23212
835.926	22976
836.064	22900
836.202	22972
836.34	23060
836.478	23174
836.615	23041
836.753	23048
836.891	23117
837.029	23166
837.167	23117
837.305	23067
837.443	22980
837.58	22942
837.718	22934
837.856	22854
837.993	22927
838.131	22984
838.269	22797
838.406	22805
838.544	22706
838.681	22535
838.819	22470
838.956	22352
839.094	22417
839.231	22352
839.369	22660
839.506	22744
839.643	22698
839.781	22405
839.918	22413
840.055	22466
840.193	22432
840.33	22325
840.467	22394
840.604	22356
840.742	22497
840.879	22234
841.016	22173
841.153	22192
841.29	22462
841.427	22249
841.564	22432
841.701	22485
841.838	22344
841.975	22249
842.112	22204
842.249	22147
842.385	22238
842.522	22322
842.659	22234
842.796	21998
842.933	22128
843.069	22032
843.206	22154
843.343	22207
843.479	22067
843.616	22070
843.752	22002
843.889	21960
844.025	22010
844.162	21842
844.298	21892
844.435	21979
844.571	21770
844.708	21873
844.844	22082
844.98	22051
845.117	21968
845.253	21934
845.389	21698
845.525	21766
845.661	21778
845.798	21629
845.934	21652
846.07	21557
846.206	21663
846.342	21671
846.478	21568
846.614	21348
846.75	21443
846.886	21374
847.022	21340
847.158	21389
847.294	21412
847.429	21317
847.565	21317
847.701	21690
847.837	21135
847.972	21108
848.108	21199
848.244	21226
848.379	21013
848.515	20982
848.65	20880
848.786	20979
848.921	20876
849.057	21123
849.192	20998
849.328	21062
849.463	20963
849.598	21024
849.734	20834
849.869	20925
850.004	20746
850.14	20849
850.275	20674
850.41	20667
850.545	20640
850.68	20621
850.815	20750
850.95	20773
851.085	20925
851.22	20883
851.355	20773
851.49	20663
851.625	20693
851.76	20720
851.895	20617
852.03	20560
852.165	20590
852.299	20674
852.434	20792
852.569	20785
852.703	20758
852.838	20731
852.973	20944
853.107	20887
853.242	20750
853.376	20541
853.511	20522
853.645	20560
853.78	20537
853.914	20609
854.048	20484
854.183	20495
854.317	20697
854.451	20785
854.585	20526
854.72	20442
854.854	20613
854.988	20469
855.122	20587
855.256	20366
855.39	20587
855.524	20746
855.658	20564
855.792	20613
855.926	20518
856.06	20670
856.194	20598
856.327	20606
856.461	20495
856.595	20537
856.729	20583
856.862	20590
856.996	20617
857.13	20762
857.263	20602
857.397	20617
857.53	20651
857.664	20598
857.797	20632
857.931	20602
858.064	20560
858.197	20667
858.331	20495
858.464	20514
858.597	20434
858.731	20499
858.864	20549
858.997	20465
859.13	20488
859.263	20514
859.396	20636
859.529	20446
859.662	20590
859.795	20412
859.928	20419
860.061	20750
860.194	20727
860.327	20644
860.46	20518
860.592	20655
860.725	20697
860.858	20625
860.99	20625
861.123	20370
861.256	20499
861.388	20526
861.521	21135
861.653	20537
861.786	20301
861.918	20396
862.05	20499
862.183	20469
862.315	20594
862.447	20606
862.58	20499
862.712	20183
862.844	20309
862.976	20317
863.108	20309
863.24	20743
863.372	20202
863.504	20195
863.636	20256
863.768	20328
863.9	20278
864.032	20248
864.164	20309
864.296	20305
864.428	20362
864.559	20244
864.691	20218
864.823	20248
864.954	20263
865.086	20191
865.217	20180
865.349	20138
865.48	20122
865.612	20035
865.743	20187
865.875	20305
866.006	20145
866.137	20214
866.269	20176
866.4	20130
866.531	20149
866.662	20077
866.793	20100
866.924	20077
867.055	20142
867.186	20183
867.317	20088
867.448	20081
867.579	20145
867.71	20016
867.841	20046
867.972	20180
868.103	20069
868.233	20103
868.364	20134
868.495	20248
868.625	20427
868.756	20465
868.886	20366
869.017	20324
869.147	20537
869.278	20427
869.408	20396
869.539	20248
869.669	20427
869.799	20343
869.929	20412
870.06	20465
870.19	20655
870.32	20667
870.45	20720
870.58	20750
870.71	20765
870.84	20792
870.97	20838
871.1	20727
871.23	20956
871.36	20967
871.489	20937
871.619	21036
871.749	20929
871.879	20963
872.008	20998
872.138	21028
872.267	20906
872.397	20815
872.526	20754
872.656	20785
872.785	20735
872.915	20975
873.044	21066
873.173	20899
873.303	21085
873.432	21077
873.561	21127
873.69	20933
873.819	21043
873.948	21020
874.077	21043
874.206	20941
874.335	20941
874.464	21074
874.593	21180
874.722	21135
874.851	21310
874.979	21226
875.108	21249
875.237	21154
875.365	21112
875.494	21249
875.623	21367
875.751	21306
875.88	21192
876.008	21374
876.136	21553
876.265	21743
876.393	21762
876.521	21701
876.65	21633
876.778	21614
876.906	21450
877.034	21469
877.162	21622
877.29	21568
877.418	21686
877.546	21663
877.674	21580
877.802	21561
877.93	21530
878.058	21538
878.185	21340
878.313	21572
878.441	21633
878.568	21485
878.696	21572
878.824	21469
878.951	21618
879.079	21819
879.206	21842
879.333	21641
879.461	21671
879.588	21671
879.715	21690
879.842	21827
879.97	21732
880.097	21386
880.224	21340
880.351	21538
880.478	21439
880.605	21412
880.732	21351
880.859	21610
880.986	21245
881.112	21344
881.239	21336
881.366	21135
881.493	20967
881.619	20853
881.746	21077
881.872	20990
881.999	20979
882.125	20880
882.252	20910
882.378	20967
882.505	21123
882.631	20853
882.757	20758
882.883	20815
883.01	20712
883.136	20678
883.262	20556
883.388	20568
883.514	20651
883.64	20708
883.766	20590
883.892	20320
884.018	20473
884.143	20552
884.269	20655
884.395	20320
884.52	20298
884.646	20438
884.772	20336
884.897	20218
885.023	20450
885.148	20419
885.274	20598
885.399	20415
885.524	20336
885.65	20351
885.775	20415
885.9	20309
886.025	20419
886.15	20389
886.275	20240
886.4	20267
886.525	20259
886.65	20267
886.775	20244
886.9	20423
887.025	20446
887.149	20377
887.274	20286
887.399	20031
887.523	20138
887.648	20031
887.773	20027
887.897	20107
888.021	20161
888.146	20016
888.27	20172
888.395	20176
888.519	20183
888.643	20153
888.767	20180
888.891	20020
889.015	19887
889.139	20012
889.263	19856
889.387	20077
889.511	20130
889.635	19959
889.759	19932
889.883	19830
890.006	19936
890.13	19982
890.254	19807
890.377	19887
890.501	19696
890.624	19613
890.748	19685
890.871	19620
890.995	19449
891.118	19460
891.241	19510
891.364	19411
891.488	19609
891.611	19495
891.734	19472
891.857	19582
891.98	19552
892.103	19495
892.226	19453
892.349	19369
892.471	19419
892.594	19468
892.717	19495
892.839	19346
892.962	19460
893.085	19460
893.207	19350
893.33	19301
893.452	19346
893.575	19460
893.697	19350
893.819	19457
893.941	19647
894.064	19552
894.186	19289
894.308	19331
894.43	19320
894.552	19620
894.674	19548
894.796	19270
894.918	19468
895.04	19335
895.161	19476
895.283	19457
895.405	19346
895.526	19377
895.648	19377
895.769	19365
895.891	19495
896.012	19483
896.134	19537
896.255	19396
896.376	19384
896.498	19487
896.619	19464
896.74	19346
896.861	19491
896.982	19837
897.103	19864
897.224	19761
897.345	19613
897.466	19605
897.587	19575
897.708	19742
897.828	19704
897.949	19575
898.07	19460
898.19	19575
898.311	19616
898.431	19628
898.552	19620
898.672	19609
898.792	19693
898.913	19666
899.033	19563
899.153	19521
899.273	19400
899.393	19331
899.513	19377
899.633	19400
899.753	19533
899.873	19400
899.993	19487
900.113	19483
900.232	19400
900.352	19377
900.472	19247
900.591	19141
900.711	19335
900.83	19255
900.95	19403
901.069	19274
901.189	19004
901.308	18848
901.427	18734
901.546	18840
901.665	18890
901.784	18833
901.904	18658
902.023	18627
902.141	18300
902.26	18369
902.379	18384
902.498	18289
902.617	18281
902.735	18414
902.854	18334
902.973	18323
903.091	17999
903.21	17935
903.328	18026
903.446	17904
903.565	17783
903.683	17855
903.801	17672
903.919	17767
904.038	17691
904.156	17585
904.274	17745
904.392	17665
904.51	17509
904.627	17535
904.745	17653
904.863	17695
904.981	17452
905.098	17299
905.216	17364
905.334	17360
905.451	17318
905.569	17181
905.686	17360
905.803	17402
905.921	17098
906.038	17200
906.155	17098
906.272	17003
906.389	17010
906.506	16850
906.623	16809
906.74	16790
906.857	16816
906.974	16691
907.091	16847
907.208	16968
907.324	16881
907.441	16797
907.557	16637
907.674	16519
907.79	16573
907.907	16478
908.023	16561
908.139	16519
908.256	16554
908.372	16447
908.488	16519
908.604	16276
908.72	16337
908.836	16371
908.952	16329
909.068	16234
909.184	16394
909.3	16333
909.415	16223
909.531	16322
909.647	16067
909.762	15956
909.878	15979
909.993	16010
910.108	15968
910.224	15975
910.339	16021
910.454	15857
910.57	15854
910.685	15679
910.8	16055
910.915	15850
911.03	15797
911.145	15603
911.259	15580
911.374	15618
911.489	15519
911.604	15538
911.718	15332
911.833	15424
911.947	15230
912.062	15203
912.176	15393
912.291	15173
912.405	15428
912.519	15443
912.633	15534
912.748	15412
912.862	15302
912.976	15207
913.09	15051
913.204	15055
913.318	15127
913.431	15252
913.545	15161
913.659	15203
913.772	15135
913.886	15077
914	14971
914.113	15055
914.226	15161
914.34	14960
914.453	14864
914.566	14948
914.68	14960
914.793	14887
914.906	14651
915.019	14659
915.132	14560
915.245	14533
915.358	14590
915.47	14594
915.583	14663
915.696	14667
915.809	14743
915.921	14640
916.034	14587
916.146	14522
916.259	14522
916.371	14522
916.483	14454
916.595	14427
916.708	14473
916.82	14427
916.932	14381
917.044	14404
917.156	14404
917.268	14259
917.38	14309
917.491	14229
917.603	14202
917.715	14278
917.826	14381
917.938	14267
918.049	14088
918.161	14248
918.272	14336
918.384	14393
918.495	14256
918.606	14084
918.717	13951
918.828	14081
918.939	14096
919.05	13967
919.161	14062
919.272	13917
919.383	13925
919.494	14126
919.604	14267
919.715	14016
919.826	13967
919.936	14001
920.047	14027
920.157	14073
920.267	14130
920.378	14031
920.488	14062
920.598	14145
920.708	14313
920.818	14218
920.928	14187
921.038	14362
921.148	14278
921.258	13909
921.368	13917
921.477	13750
921.587	13620
921.697	13559
921.806	13791
921.916	13609
922.025	13506
922.134	13430
922.244	13377
922.353	13468
922.462	13285
922.571	13270
922.68	13084
922.789	13080
922.898	13118
923.007	13008
923.116	13110
923.224	13023
923.333	13050
923.442	12867
923.55	12897
923.659	12924
923.767	12958
923.876	12875
923.984	12932
924.092	12863
924.201	12932
924.309	12798
924.417	12810
924.525	12757
924.633	12726
924.741	13495
924.849	12593
924.956	12662
925.064	12528
925.172	12418
925.279	12498
925.387	12532
925.494	12521
925.602	12650
925.709	12517
925.816	12456
925.924	12506
926.031	12612
926.138	12483
926.245	12498
926.352	12422
926.459	12498
926.566	12563
926.673	12372
926.779	12266
926.886	12251
926.993	12140
927.099	12205
927.206	12034
927.312	12053
927.419	12152
927.525	12091
927.631	12038
927.737	11935
927.843	11946
927.95	11851
928.056	11840
928.162	11977
928.267	12022
928.373	12426
928.479	12045
928.585	11783
928.69	11920
928.796	11855
928.901	11771
929.007	11619
929.112	11752
929.218	11764
929.323	11680
929.428	11615
929.533	11745
929.638	11665
929.743	11554
929.848	11695
929.953	11490
930.058	11444
930.163	11322
930.267	11337
930.372	11581
930.477	11311
930.581	11554
930.685	11406
930.79	11231
930.894	11269
930.998	11284
931.103	11425
931.207	10995
931.311	11025
931.415	10805
931.519	10592
931.623	10611
