Data from test_V78500241_2442.txt Node
Date: Fri Mar 25 15:26:51 CST 2022
User: usil
Spectrometer: V785-0024
Trigger mode: 0
Integration Time (sec): 4.000000E-1
Scans to average: 1
Nonlinearity correction enabled: false
Boxcar width: 0
Storing dark spectrum: false
XAxis mode: Wavelengths
Number of Pixels in Spectrum: 1024
>>>>>Begin Spectral Data<<<<<
801.071	27051
801.214	27047
801.356	26815
801.499	26644
801.641	26667
801.783	26530
801.926	26571
802.068	26514
802.211	26473
802.353	26408
802.496	26187
802.638	26157
802.78	26145
802.923	26100
803.065	26122
803.208	26081
803.35	26092
803.492	26328
803.635	26351
803.777	26210
803.919	26332
804.061	26781
804.204	26461
804.346	26336
804.488	26252
804.63	26370
804.773	26290
804.915	26457
805.057	26480
805.199	26252
805.341	26431
805.483	26488
805.626	26457
805.768	26347
805.91	26488
806.052	26423
806.194	26347
806.336	26560
806.478	26480
806.62	26488
806.762	26469
806.904	26613
807.046	26921
807.188	26769
807.33	26895
807.472	26895
807.614	26826
807.756	26792
807.898	26769
808.04	26568
808.182	26701
808.324	26636
808.465	26724
808.607	26876
808.749	26921
808.891	27039
809.033	27146
809.174	27024
809.316	26982
809.458	27142
809.6	26982
809.741	27112
809.883	27142
810.025	27321
810.166	27294
810.308	27218
810.45	27222
810.591	27184
810.733	27089
810.875	26990
811.016	26826
811.158	26857
811.299	27013
811.441	27089
811.582	27074
811.724	26910
811.865	27055
812.007	26902
812.148	26910
812.29	27077
812.431	27188
812.573	27325
812.714	27374
812.855	27511
812.997	27515
813.138	27660
813.279	27576
813.421	27587
813.562	27443
813.703	27294
813.845	27096
813.986	26952
814.127	26613
814.268	26689
814.41	26674
814.551	26750
814.692	26701
814.833	26636
814.974	26739
815.115	26670
815.256	26549
815.397	26473
815.539	26549
815.68	26415
815.821	26400
815.962	26423
816.103	26507
816.244	26400
816.385	26225
816.526	26233
816.666	26012
816.807	25868
816.948	25955
817.089	25944
817.23	25963
817.371	25902
817.512	25982
817.653	25807
817.793	25856
817.934	25887
818.075	26035
818.216	25856
818.356	25955
818.497	25822
818.638	25635
818.778	25670
818.919	25647
819.06	25731
819.2	25871
819.341	25936
819.481	25864
819.622	26008
819.762	26324
819.903	26164
820.043	26142
820.184	26050
820.324	26084
820.465	26107
820.605	26008
820.746	25970
820.886	25921
821.026	26054
821.167	25849
821.307	26024
821.447	25959
821.588	25845
821.728	25658
821.868	25521
822.008	25346
822.149	25354
822.289	25339
822.429	25133
822.569	25110
822.709	25107
822.849	24981
822.99	24833
823.13	24943
823.27	24741
823.41	24798
823.55	24783
823.69	24620
823.83	24734
823.97	24540
824.11	24639
824.25	24585
824.389	24544
824.529	24544
824.669	24540
824.809	24604
824.949	24654
825.089	24612
825.228	24521
825.368	24315
825.508	24308
825.648	24418
825.787	24464
825.927	24407
826.067	24323
826.206	24247
826.346	24547
826.485	24369
826.625	24289
826.765	24380
826.904	24471
827.044	24159
827.183	24174
827.323	24095
827.462	24117
827.601	24060
827.741	23961
827.88	24072
828.02	23889
828.159	24072
828.298	24068
828.437	24254
828.577	23965
828.716	24136
828.855	23980
828.994	23840
829.134	23748
829.273	23809
829.412	23805
829.551	23771
829.69	23798
829.829	23733
829.968	23885
830.107	23954
830.246	23783
830.385	23817
830.524	23665
830.663	23619
830.802	23539
830.941	23421
831.08	23330
831.219	23497
831.357	23524
831.496	23592
831.635	23440
831.774	23311
831.913	23353
832.051	23258
832.19	23185
832.329	23220
832.467	23140
832.606	23056
832.744	23071
832.883	23067
833.022	23056
833.16	23170
833.299	23121
833.437	23067
833.576	23216
833.714	23159
833.852	23269
833.991	23121
834.129	23261
834.267	23280
834.406	23296
834.544	23071
834.682	23181
834.821	23060
834.959	23334
835.097	23155
835.235	23223
835.373	23223
835.511	23216
835.65	22980
835.788	23083
835.926	22850
836.064	22911
836.202	22915
836.34	22949
836.478	23048
836.615	22968
836.753	23010
836.891	23064
837.029	23094
837.167	22930
837.305	23022
837.443	22793
837.58	22854
837.718	22968
837.856	22881
837.993	22752
838.131	22919
838.269	22596
838.406	22694
838.544	22668
838.681	22474
838.819	22440
838.956	22337
839.094	22363
839.231	22413
839.369	22504
839.506	22717
839.643	22596
839.781	22375
839.918	22295
840.055	22344
840.193	22348
840.33	22341
840.467	22280
840.604	22207
840.742	22531
840.879	22078
841.016	22181
841.153	22154
841.29	22344
841.427	22249
841.564	22371
841.701	22352
841.838	22128
841.975	22200
842.112	22177
842.249	22131
842.385	21972
842.522	22268
842.659	22162
842.796	21964
842.933	22040
843.069	22002
843.206	21998
843.343	22002
843.479	22090
843.616	22139
843.752	21804
843.889	21915
844.025	21960
844.162	21781
844.298	21884
844.435	21766
844.571	21846
844.708	21861
844.844	21915
844.98	21994
845.117	21903
845.253	21724
845.389	21728
845.525	21705
845.661	21694
845.798	21583
845.934	21667
846.07	21447
846.206	21557
846.342	21785
846.478	21473
846.614	21321
846.75	21313
846.886	21275
847.022	21458
847.158	21279
847.294	21252
847.429	21370
847.565	21226
847.701	21530
847.837	21013
847.972	21055
848.108	21051
848.244	21077
848.379	20834
848.515	20876
848.65	20804
848.786	21001
848.921	20941
849.057	20937
849.192	20941
849.328	20880
849.463	20815
849.598	20857
849.734	20800
849.869	20773
850.004	20712
850.14	20724
850.275	20602
850.41	20503
850.545	20560
850.68	20571
850.815	20708
850.95	20625
851.085	20868
851.22	20842
851.355	20689
851.49	20697
851.625	20636
851.76	20617
851.895	20480
852.03	20511
852.165	20640
852.299	20636
852.434	20724
852.569	20693
852.703	20629
852.838	20674
852.973	20834
853.107	20762
853.242	20613
853.376	20518
853.511	20320
853.645	20442
853.78	20598
853.914	20514
854.048	20408
854.183	20454
854.317	20526
854.451	20663
854.585	20488
854.72	20507
854.854	20564
854.988	20408
855.122	20503
855.256	20324
855.39	20317
855.524	20541
855.658	20511
855.792	20484
855.926	20480
856.06	20541
856.194	20560
856.327	20522
856.461	20366
856.595	20415
856.729	20404
856.862	20571
856.996	20423
857.13	20507
857.263	20727
857.397	20564
857.53	20446
857.664	20514
857.797	20625
857.931	20613
858.064	20571
858.197	20556
858.331	20431
858.464	20423
858.597	20301
858.731	20389
858.864	20431
858.997	20518
859.13	20549
859.263	20457
859.396	20602
859.529	20503
859.662	20511
859.795	20511
859.928	20526
860.061	20632
860.194	20590
860.327	20560
860.46	20454
860.592	20583
860.725	20514
860.858	20564
860.99	20590
861.123	20438
861.256	20339
861.388	20396
861.521	21112
861.653	20434
861.786	20282
861.918	20415
862.05	20282
862.183	20442
862.315	20480
862.447	20495
862.58	20450
862.712	20275
862.844	20107
862.976	20256
863.108	20187
863.24	20545
863.372	20267
863.504	20149
863.636	20191
863.768	20267
863.9	20339
864.032	20069
864.164	20153
864.296	20149
864.428	20267
864.559	20237
864.691	20278
864.823	20191
864.954	20126
865.086	20164
865.217	20130
865.349	19913
865.48	20164
865.612	20145
865.743	20122
865.875	20134
866.006	20176
866.137	20046
866.269	20077
866.4	20035
866.531	20058
866.662	20016
866.793	19959
866.924	20115
867.055	20096
867.186	20103
867.317	19898
867.448	19925
867.579	19947
867.71	19974
867.841	19982
867.972	20107
868.103	20100
868.233	20024
868.364	20031
868.495	20256
868.625	20237
868.756	20423
868.886	20271
869.017	20278
869.147	20385
869.278	20305
869.408	20343
869.539	20282
869.669	20438
869.799	20278
869.929	20396
870.06	20256
870.19	20537
870.32	20503
870.45	20693
870.58	20621
870.71	20804
870.84	20701
870.97	20727
871.1	20598
871.23	20781
871.36	20872
871.489	20674
871.619	20785
871.749	20842
871.879	20925
872.008	20982
872.138	20849
872.267	20880
872.397	20849
872.526	20800
872.656	20731
872.785	20815
872.915	20956
873.044	20929
873.173	20868
873.303	20910
873.432	20963
873.561	21009
873.69	20876
873.819	20861
873.948	20986
874.077	20914
874.206	20868
874.335	20944
874.464	20921
874.593	21222
874.722	21066
874.851	21123
874.979	21184
875.108	21199
875.237	21119
875.365	21077
875.494	21138
875.623	21135
875.751	21150
875.88	21192
876.008	21310
876.136	21272
876.265	21580
876.393	21618
876.521	21724
876.65	21568
876.778	21542
876.906	21568
877.034	21648
877.162	21637
877.29	21477
877.418	21500
877.546	21519
877.674	21477
877.802	21397
877.93	21511
878.058	21492
878.185	21359
878.313	21408
878.441	21458
878.568	21226
878.696	21435
878.824	21485
878.951	21530
879.079	21739
879.206	21827
879.333	21614
879.461	21542
879.588	21720
879.715	21618
879.842	21641
879.97	21591
880.097	21477
880.224	21256
880.351	21279
880.478	21367
880.605	21176
880.732	21313
880.859	21633
880.986	21439
881.112	21317
881.239	21230
881.366	21127
881.493	20906
881.619	20937
881.746	21017
881.872	20963
881.999	20891
882.125	20819
882.252	20914
882.378	20876
882.505	20986
882.631	20686
882.757	20663
882.883	20697
883.01	20644
883.136	20667
883.262	20488
883.388	20461
883.514	20651
883.64	20587
883.766	20560
883.892	20545
884.018	20514
884.143	20480
884.269	20598
884.395	20442
884.52	20324
884.646	20313
884.772	20313
884.897	20278
885.023	20290
885.148	20370
885.274	20579
885.399	20374
885.524	20263
885.65	20290
885.775	20301
885.9	20161
886.025	20343
886.15	20385
886.275	20324
886.4	20176
886.525	20195
886.65	20183
886.775	20202
886.9	20358
887.025	20454
887.149	20263
887.274	20069
887.399	20058
887.523	20069
887.648	20016
887.773	20024
887.897	20183
888.021	20134
888.146	20043
888.27	20035
888.395	20119
888.519	20012
888.643	20122
888.767	20020
888.891	19917
889.015	19906
889.139	19765
889.263	19902
889.387	20005
889.511	20126
889.635	19978
889.759	19879
889.883	19811
890.006	20012
890.13	19913
890.254	19826
890.377	19879
890.501	19609
890.624	19624
890.748	19651
890.871	19658
890.995	19476
891.118	19411
891.241	19400
891.364	19460
891.488	19639
891.611	19537
891.734	19468
891.857	19464
891.98	19411
892.103	19457
892.226	19449
892.349	19396
892.471	19278
892.594	19495
892.717	19457
892.839	19381
892.962	19441
893.085	19540
893.207	19388
893.33	19266
893.452	19278
893.575	19419
893.697	19320
893.819	19635
893.941	19457
894.064	19571
894.186	19324
894.308	19240
894.43	19480
894.552	19571
894.674	19472
894.796	19304
894.918	19392
895.04	19373
895.161	19419
895.283	19400
895.405	19327
895.526	19304
895.648	19438
895.769	19308
895.891	19369
896.012	19384
896.134	19445
896.255	19438
896.376	19369
896.498	19392
896.619	19381
896.74	19285
896.861	19499
896.982	19902
897.103	19925
897.224	19594
897.345	19624
897.466	19567
897.587	19571
897.708	19700
897.828	19655
897.949	19601
898.07	19487
898.19	19658
898.311	19708
898.431	19540
898.552	19693
898.672	19643
898.792	19651
898.913	19624
899.033	19476
899.153	19457
899.273	19293
899.393	19312
899.513	19339
899.633	19358
899.753	19362
899.873	19343
899.993	19430
900.113	19304
900.232	19335
900.352	19346
900.472	19316
900.591	19289
900.711	19114
900.83	19088
900.95	19225
901.069	19141
901.189	19069
901.308	18890
901.427	18852
901.546	18673
901.665	18757
901.784	18772
901.904	18639
902.023	18608
902.141	18429
902.26	18201
902.379	18460
902.498	18277
902.617	18216
902.735	18148
902.854	18247
902.973	18197
903.091	17988
903.21	17912
903.328	17969
903.446	17798
903.565	17779
903.683	17790
903.801	17764
903.919	17653
904.038	17668
904.156	17585
904.274	17543
904.392	17512
904.51	17524
904.627	17600
904.745	17539
904.863	17566
904.981	17356
905.098	17223
905.216	17242
905.334	17193
905.451	17204
905.569	17200
905.686	17292
905.803	17216
905.921	17029
906.038	17159
906.155	17010
906.272	16953
906.389	17003
906.506	16771
906.623	16755
906.74	16763
906.857	16694
906.974	16679
907.091	16778
907.208	16790
907.324	16786
907.441	16645
907.557	16588
907.674	16466
907.79	16417
907.907	16512
908.023	16459
908.139	16546
908.256	16432
908.372	16325
908.488	16329
908.604	16177
908.72	16143
908.836	16272
908.952	16211
909.068	16276
909.184	16280
909.3	16162
909.415	16249
909.531	16177
909.647	15903
909.762	15899
909.878	15880
909.993	15835
910.108	15975
910.224	15895
910.339	15876
910.454	15789
910.57	15747
910.685	15663
910.8	15899
910.915	15800
911.03	15739
911.145	15507
911.259	15492
911.374	15515
911.489	15466
911.604	15397
911.718	15252
911.833	15241
911.947	15116
912.062	15123
912.176	15233
912.291	15230
912.405	15336
912.519	15401
912.633	15439
912.748	15275
912.862	15226
912.976	15093
913.09	15093
913.204	15108
913.318	15116
913.431	15214
913.545	15146
913.659	15192
913.772	15085
913.886	14918
914	14891
914.113	14975
914.226	14971
914.34	15013
914.453	14826
914.566	14876
914.68	14830
914.793	14746
914.906	14644
915.019	14530
915.132	14511
915.245	14571
915.358	14541
915.47	14457
915.583	14537
915.696	14518
915.809	14552
915.921	14632
916.034	14434
916.146	14431
916.259	14381
916.371	14473
916.483	14434
916.595	14362
916.708	14400
916.82	14305
916.932	14336
917.044	14343
917.156	14336
917.268	14119
917.38	14210
917.491	14138
917.603	14233
917.715	14278
917.826	14282
917.938	14180
918.049	14046
918.161	14225
918.272	14385
918.384	14267
918.495	14183
918.606	14050
918.717	13871
918.828	14024
918.939	13928
919.05	13849
919.161	13928
919.272	13738
919.383	13750
919.494	14027
919.604	14134
919.715	13989
919.826	13860
919.936	13928
920.047	13932
920.157	13902
920.267	14092
920.378	13997
920.488	13978
920.598	14153
920.708	14282
920.818	14054
920.928	14043
921.038	14244
921.148	14180
921.258	13757
921.368	13769
921.477	13738
921.587	13746
921.697	13582
921.806	13742
921.916	13529
922.025	13373
922.134	13308
922.244	13225
922.353	13422
922.462	13202
922.571	13088
922.68	12977
922.789	13046
922.898	13031
923.007	12928
923.116	13072
923.224	13000
923.333	12935
923.442	12840
923.55	12897
923.659	12840
923.767	12928
923.876	12703
923.984	12924
924.092	12741
924.201	12821
924.309	12760
924.417	12749
924.525	12654
924.633	12700
924.741	13540
924.849	12471
924.956	12597
925.064	12517
925.172	12429
925.279	12536
925.387	12506
925.494	12498
925.602	12525
925.709	12407
925.816	12380
925.924	12399
926.031	12509
926.138	12388
926.245	12395
926.352	12311
926.459	12391
926.566	12365
926.673	12304
926.779	12205
926.886	12175
926.993	12045
927.099	12019
927.206	11988
927.312	11965
927.419	12091
927.525	12049
927.631	11984
927.737	11863
927.843	11916
927.95	11718
928.056	11908
928.162	11828
928.267	11954
928.373	12517
928.479	11923
928.585	11783
928.69	11722
928.796	11828
928.901	11676
929.007	11611
929.112	11741
929.218	11764
929.323	11668
929.428	11558
929.533	11745
929.638	11512
929.743	11493
929.848	11619
929.953	11535
930.058	11482
930.163	11368
930.267	11235
930.372	11436
930.477	11261
930.581	11512
930.685	11376
930.79	11311
930.894	11124
930.998	11109
931.103	11299
931.207	10911
931.311	10965
931.415	10778
931.519	10668
931.623	10630
