Data from test_V78500241_1831.txt Node
Date: Fri Mar 25 15:22:36 CST 2022
User: usil
Spectrometer: V785-0024
Trigger mode: 0
Integration Time (sec): 4.000000E-1
Scans to average: 1
Nonlinearity correction enabled: false
Boxcar width: 0
Storing dark spectrum: false
XAxis mode: Wavelengths
Number of Pixels in Spectrum: 1024
>>>>>Begin Spectral Data<<<<<
801.071	27789
801.214	27698
801.356	27374
801.499	27424
801.641	27462
801.783	27329
801.926	27294
802.068	27401
802.211	27332
802.353	27195
802.496	27032
802.638	26891
802.78	26948
802.923	27017
803.065	26902
803.208	26910
803.35	27047
803.492	27047
803.635	27180
803.777	27089
803.919	27188
804.061	27519
804.204	27268
804.346	27169
804.488	27192
804.63	27192
804.773	27055
804.915	27233
805.057	27260
805.199	27199
805.341	27374
805.483	27405
805.626	27222
805.768	27173
805.91	27241
806.052	27355
806.194	27336
806.336	27481
806.478	27477
806.62	27272
806.762	27382
806.904	27633
807.046	27751
807.188	27816
807.33	27675
807.472	27800
807.614	27587
807.756	27663
807.898	27686
808.04	27439
808.182	27420
808.324	27690
808.465	27656
808.607	27785
808.749	27857
808.891	27934
809.033	28032
809.174	27914
809.316	27857
809.458	28002
809.6	27903
809.741	28124
809.883	28021
810.025	28196
810.166	28196
810.308	28234
810.45	28169
810.591	28150
810.733	27778
810.875	27876
811.016	27759
811.158	27842
811.299	28010
811.441	28044
811.582	28196
811.724	27972
811.865	27960
812.007	27831
812.148	27922
812.29	27998
812.431	28131
812.573	28215
812.714	28417
812.855	28508
812.997	28584
813.138	28660
813.279	28565
813.421	28523
813.562	28478
813.703	28188
813.845	28070
813.986	27880
814.127	27732
814.268	27504
814.41	27724
814.551	27625
814.692	27580
814.833	27488
814.974	27610
815.115	27667
815.256	27462
815.397	27561
815.539	27603
815.68	27351
815.821	27329
815.962	27348
816.103	27386
816.244	27351
816.385	27226
816.526	27180
816.666	27032
816.807	26861
816.948	27005
817.089	27020
817.23	26872
817.371	26937
817.512	26982
817.653	26876
817.793	26731
817.934	26948
818.075	26986
818.216	26834
818.356	26811
818.497	26849
818.638	26598
818.778	26587
818.919	26640
819.06	26697
819.2	26750
819.341	26979
819.481	26815
819.622	27116
819.762	27203
819.903	27112
820.043	26971
820.184	27001
820.324	26994
820.465	27005
820.605	27013
820.746	27001
820.886	27013
821.026	27005
821.167	26952
821.307	27024
821.447	27089
821.588	26853
821.728	26804
821.868	26495
822.008	26438
822.149	26453
822.289	26377
822.429	26142
822.569	26130
822.709	26081
822.849	25803
822.99	25947
823.13	26024
823.27	25784
823.41	25719
823.55	25632
823.69	25666
823.83	25746
823.97	25708
824.11	25635
824.25	25415
824.389	25582
824.529	25643
824.669	25392
824.809	25639
824.949	25567
825.089	25575
825.228	25491
825.368	25297
825.508	25445
825.648	25400
825.787	25411
825.927	25613
826.067	25350
826.206	25312
826.346	25407
826.485	25495
826.625	25381
826.765	25521
826.904	25293
827.044	25133
827.183	25255
827.323	25118
827.462	25107
827.601	25206
827.741	25057
827.88	25308
828.02	24932
828.159	25145
828.298	25179
828.437	25148
828.577	25004
828.716	25183
828.855	25034
828.994	24871
829.134	24779
829.273	24924
829.412	24635
829.551	24772
829.69	24749
829.829	24798
829.968	24905
830.107	24913
830.246	24833
830.385	24753
830.524	24791
830.663	24544
830.802	24601
830.941	24490
831.08	24422
831.219	24532
831.357	24559
831.496	24764
831.635	24403
831.774	24384
831.913	24384
832.051	24163
832.19	24220
832.329	24277
832.467	24106
832.606	24057
832.744	24087
832.883	24095
833.022	23992
833.16	24038
833.299	24213
833.437	24213
833.576	24247
833.714	24235
833.852	24319
833.991	24224
834.129	24338
834.267	24346
834.406	24296
834.544	24281
834.682	24133
834.821	24129
834.959	24350
835.097	24091
835.235	24315
835.373	24277
835.511	24194
835.65	24136
835.788	23935
835.926	23802
836.064	23847
836.202	23904
836.34	24148
836.478	24026
836.615	23958
836.753	23969
836.891	24186
837.029	23969
837.167	23942
837.305	23863
837.443	24018
837.58	23870
837.718	23988
837.856	24045
837.993	23866
838.131	23866
838.269	23714
838.406	23786
838.544	23729
838.681	23497
838.819	23554
838.956	23368
839.094	23280
839.231	23261
839.369	23543
839.506	23775
839.643	23642
839.781	23307
839.918	23383
840.055	23364
840.193	23296
840.33	23284
840.467	23318
840.604	23250
840.742	23493
840.879	23086
841.016	23273
841.153	23178
841.29	23185
841.427	23326
841.564	23345
841.701	23235
841.838	23147
841.975	23200
842.112	23113
842.249	23200
842.385	22968
842.522	23212
842.659	23090
842.796	23006
842.933	22987
843.069	23044
843.206	22942
843.343	23025
843.479	22953
843.616	23079
843.752	22816
843.889	22896
844.025	22961
844.162	22866
844.298	22862
844.435	22698
844.571	22717
844.708	22885
844.844	22972
844.98	22774
845.117	22972
845.253	22675
845.389	22577
845.525	22577
845.661	22634
845.798	22523
845.934	22542
846.07	22497
846.206	22565
846.342	22664
846.478	22371
846.614	22306
846.75	22249
846.886	22166
847.022	22440
847.158	22249
847.294	22325
847.429	22360
847.565	22169
847.701	22542
847.837	22002
847.972	22021
848.108	22101
848.244	22070
848.379	21930
848.515	21755
848.65	21819
848.786	21854
848.921	22002
849.057	22059
849.192	21956
849.328	21911
849.463	21899
849.598	21812
849.734	21865
849.869	21694
850.004	21679
850.14	21743
850.275	21675
850.41	21545
850.545	21587
850.68	21698
850.815	21625
850.95	21625
851.085	21808
851.22	21690
851.355	21739
851.49	21694
851.625	21622
851.76	21496
851.895	21526
852.03	21447
852.165	21603
852.299	21644
852.434	21652
852.569	21686
852.703	21572
852.838	21690
852.973	21724
853.107	21755
853.242	21701
853.376	21378
853.511	21329
853.645	21279
853.78	21473
853.914	21564
854.048	21416
854.183	21473
854.317	21481
854.451	21618
854.585	21606
854.72	21580
854.854	21439
854.988	21386
855.122	21389
855.256	21310
855.39	21431
855.524	21469
855.658	21443
855.792	21458
855.926	21511
856.06	21526
856.194	21454
856.327	21424
856.461	21275
856.595	21458
856.729	21416
856.862	21534
856.996	21454
857.13	21576
857.263	21557
857.397	21462
857.53	21435
857.664	21561
857.797	21561
857.931	21428
858.064	21583
858.197	21656
858.331	21393
858.464	21447
858.597	21272
858.731	21477
858.864	21439
858.997	21374
859.13	21389
859.263	21344
859.396	21542
859.529	21405
859.662	21332
859.795	21401
859.928	21466
860.061	21599
860.194	21633
860.327	21454
860.46	21492
860.592	21561
860.725	21595
860.858	21614
860.99	21462
861.123	21359
861.256	21306
861.388	21485
861.521	22143
861.653	21332
861.786	21173
861.918	21260
862.05	21264
862.183	21386
862.315	21291
862.447	21294
862.58	21351
862.712	21085
862.844	21127
862.976	21313
863.108	21230
863.24	21587
863.372	21089
863.504	21211
863.636	21188
863.768	21142
863.9	21199
864.032	21169
864.164	21150
864.296	21268
864.428	21332
864.559	21180
864.691	21188
864.823	21173
864.954	21252
865.086	21184
865.217	21108
865.349	21009
865.48	21066
865.612	21070
865.743	21260
865.875	21013
866.006	20960
866.137	21047
866.269	21074
866.4	21047
866.531	21051
866.662	20956
866.793	20929
866.924	20902
867.055	21051
867.186	20971
867.317	20914
867.448	20891
867.579	20857
867.71	21024
867.841	21039
867.972	21066
868.103	20902
868.233	20967
868.364	20990
868.495	21032
868.625	21161
868.756	21370
868.886	21161
869.017	21260
869.147	21332
869.278	21272
869.408	21264
869.539	21226
869.669	21249
869.799	21313
869.929	21321
870.06	21222
870.19	21488
870.32	21473
870.45	21629
870.58	21610
870.71	21644
870.84	21690
870.97	21709
871.1	21576
871.23	21709
871.36	21857
871.489	21667
871.619	21838
871.749	21789
871.879	21915
872.008	21831
872.138	21778
872.267	21793
872.397	21743
872.526	21538
872.656	21610
872.785	21671
872.915	21800
873.044	21876
873.173	21797
873.303	21968
873.432	22048
873.561	21930
873.69	21930
873.819	21869
873.948	21880
874.077	21857
874.206	21785
874.335	21762
874.464	22032
874.593	22070
874.722	21998
874.851	22093
874.979	22116
875.108	22078
875.237	22013
875.365	22040
875.494	22070
875.623	22032
875.751	22021
875.88	22059
876.008	22246
876.136	22192
876.265	22455
876.393	22554
876.521	22557
876.65	22546
876.778	22523
876.906	22371
877.034	22485
877.162	22451
877.29	22299
877.418	22474
877.546	22417
877.674	22276
877.802	22489
877.93	22382
878.058	22341
878.185	22299
878.313	22337
878.441	22253
878.568	22135
878.696	22424
878.824	22402
878.951	22459
879.079	22466
879.206	22645
879.333	22409
879.461	22523
879.588	22493
879.715	22573
879.842	22736
879.97	22405
880.097	22207
880.224	22173
880.351	22299
880.478	22265
880.605	22162
880.732	22284
880.859	22440
880.986	22143
881.112	22185
881.239	22086
881.366	21960
881.493	21781
881.619	21747
881.746	21865
881.872	21869
881.999	21854
882.125	21713
882.252	21869
882.378	21895
882.505	21804
882.631	21694
882.757	21682
882.883	21538
883.01	21428
883.136	21443
883.262	21344
883.388	21363
883.514	21488
883.64	21454
883.766	21428
883.892	21443
884.018	21313
884.143	21485
884.269	21466
884.395	21146
884.52	21169
884.646	21218
884.772	21066
884.897	21043
885.023	21203
885.148	21226
885.274	21325
885.399	21211
885.524	21112
885.65	21070
885.775	21176
885.9	21214
886.025	21230
886.15	21192
886.275	21157
886.4	21020
886.525	21024
886.65	21055
886.775	21085
886.9	21336
887.025	21355
887.149	21203
887.274	20960
887.399	20788
887.523	20956
887.648	20735
887.773	20842
887.897	21020
888.021	20899
888.146	20861
888.27	21062
888.395	21024
888.519	20845
888.643	20861
888.767	20982
888.891	20811
889.015	20720
889.139	20796
889.263	20667
889.387	20762
889.511	20921
889.635	20880
889.759	20640
889.883	20678
890.006	20667
890.13	20765
890.254	20613
890.377	20648
890.501	20514
890.624	20526
890.748	20583
890.871	20434
890.995	20370
891.118	20145
891.241	20271
891.364	20259
891.488	20518
891.611	20294
891.734	20324
891.857	20343
891.98	20180
892.103	20256
892.226	20214
892.349	20149
892.471	20046
892.594	20176
892.717	20229
892.839	20065
892.962	20252
893.085	20214
893.207	20149
893.33	20065
893.452	20130
893.575	20195
893.697	20161
893.819	20423
893.941	20290
894.064	20259
894.186	19940
894.308	20103
894.43	20225
894.552	20332
894.674	20427
894.796	20092
894.918	20206
895.04	20164
895.161	20332
895.283	20183
895.405	20054
895.526	20180
895.648	20126
895.769	20202
895.891	20088
896.012	20237
896.134	20145
896.255	20161
896.376	20119
896.498	20161
896.619	20286
896.74	20092
896.861	20229
896.982	20568
897.103	20682
897.224	20438
897.345	20377
897.466	20275
897.587	20408
897.708	20678
897.828	20533
897.949	20419
898.07	20145
898.19	20301
898.311	20400
898.431	20328
898.552	20347
898.672	20507
898.792	20377
898.913	20393
899.033	20199
899.153	20168
899.273	20134
899.393	20027
899.513	20050
899.633	20195
899.753	20081
899.873	20084
899.993	20012
900.113	20065
900.232	20122
900.352	20054
900.472	20077
900.591	19868
900.711	19940
900.83	19814
900.95	19875
901.069	20012
901.189	19803
901.308	19597
901.427	19544
901.546	19499
901.665	19567
901.784	19422
901.904	19384
902.023	19240
902.141	19088
902.26	19076
902.379	19072
902.498	18966
902.617	18848
902.735	19012
902.854	18951
902.973	18920
903.091	18635
903.21	18757
903.328	18563
903.446	18627
903.565	18475
903.683	18536
903.801	18323
903.919	18525
904.038	18422
904.156	18277
904.274	18391
904.392	18311
904.51	18201
904.627	18247
904.745	18216
904.863	18281
904.981	17992
905.098	18068
905.216	17969
905.334	17923
905.451	17893
905.569	17954
905.686	17961
905.803	17847
905.921	17737
906.038	17798
906.155	17722
906.272	17642
906.389	17638
906.506	17482
906.623	17497
906.74	17459
906.857	17376
906.974	17372
907.091	17471
907.208	17543
907.324	17455
907.441	17299
907.557	17193
907.674	17170
907.79	17086
907.907	17109
908.023	17216
908.139	17250
908.256	17155
908.372	17094
908.488	17056
908.604	16904
908.72	16877
908.836	16850
908.952	16881
909.068	16930
909.184	16995
909.3	16862
909.415	16953
909.531	16866
909.647	16649
909.762	16649
909.878	16535
909.993	16622
910.108	16565
910.224	16485
910.339	16577
910.454	16504
910.57	16382
910.685	16219
910.8	16679
910.915	16531
911.03	16314
911.145	16219
911.259	16291
911.374	16128
911.489	16067
911.604	16055
911.718	15960
911.833	15899
911.947	15876
912.062	15724
912.176	15918
912.291	15953
912.405	15911
912.519	16063
912.633	16021
912.748	15915
912.862	15934
912.976	15736
913.09	15652
913.204	15774
913.318	15720
913.431	15797
913.545	15892
913.659	15823
913.772	15705
913.886	15526
914	15549
914.113	15507
914.226	15633
914.34	15561
914.453	15466
914.566	15557
914.68	15389
914.793	15367
914.906	15127
915.019	15146
915.132	15100
915.245	15188
915.358	15081
915.47	15009
915.583	15154
915.696	15230
915.809	15218
915.921	15123
916.034	15161
916.146	15032
916.259	14994
916.371	15176
916.483	15017
916.595	14906
916.708	15024
916.82	14952
916.932	15020
917.044	14853
917.156	14914
917.268	14781
917.38	14868
917.491	14796
917.603	14777
917.715	14929
917.826	14804
917.938	14678
918.049	14583
918.161	14777
918.272	14929
918.384	14861
918.495	14674
918.606	14530
918.717	14602
918.828	14613
918.939	14556
919.05	14434
919.161	14629
919.272	14427
919.383	14381
919.494	14537
919.604	14765
919.715	14621
919.826	14541
919.936	14385
920.047	14530
920.157	14610
920.267	14796
920.378	14556
920.488	14434
920.598	14739
920.708	14800
920.818	14636
920.928	14648
921.038	14807
921.148	14796
921.258	14412
921.368	14522
921.477	14362
921.587	14199
921.697	14176
921.806	14202
921.916	14183
922.025	13921
922.134	13894
922.244	13944
922.353	13955
922.462	13715
922.571	13655
922.68	13582
922.789	13548
922.898	13533
923.007	13476
923.116	13575
923.224	13487
923.333	13616
923.442	13407
923.55	13415
923.659	13426
923.767	13411
923.876	13358
923.984	13396
924.092	13259
924.201	13327
924.309	13266
924.417	13327
924.525	13179
924.633	13209
924.741	14161
924.849	13042
924.956	13095
925.064	13031
925.172	12882
925.279	12970
925.387	12901
925.494	12932
925.602	13004
925.709	12867
925.816	12856
925.924	12947
926.031	12966
926.138	12890
926.245	12943
926.352	12768
926.459	12932
926.566	12905
926.673	12886
926.779	12741
926.886	12730
926.993	12669
927.099	12627
927.206	12441
927.312	12513
927.419	12574
927.525	12612
927.631	12620
927.737	12471
927.843	12365
927.95	12220
928.056	12369
928.162	12330
928.267	12346
928.373	12966
928.479	12380
928.585	12163
928.69	12323
928.796	12342
928.901	12163
929.007	12057
929.112	12201
929.218	12148
929.323	12129
929.428	12072
929.533	12228
929.638	11999
929.743	12026
929.848	12133
929.953	12015
930.058	11935
930.163	11726
930.267	11729
930.372	11821
930.477	11733
930.581	11878
930.685	11836
930.79	11630
930.894	11707
930.998	11688
931.103	11745
931.207	11444
931.311	11265
931.415	11212
931.519	11018
931.623	10976
