Data from test_V78500241_2591.txt Node
Date: Fri Mar 25 15:27:54 CST 2022
User: usil
Spectrometer: V785-0024
Trigger mode: 0
Integration Time (sec): 4.000000E-1
Scans to average: 1
Nonlinearity correction enabled: false
Boxcar width: 0
Storing dark spectrum: false
XAxis mode: Wavelengths
Number of Pixels in Spectrum: 1024
>>>>>Begin Spectral Data<<<<<
801.071	27051
801.214	27104
801.356	26876
801.499	26811
801.641	26705
801.783	26579
801.926	26663
802.068	26651
802.211	26617
802.353	26575
802.496	26343
802.638	26282
802.78	26119
802.923	26172
803.065	26054
803.208	26183
803.35	26339
803.492	26351
803.635	26450
803.777	26271
803.919	26518
804.061	26823
804.204	26575
804.346	26385
804.488	26271
804.63	26457
804.773	26324
804.915	26339
805.057	26457
805.199	26309
805.341	26522
805.483	26625
805.626	26568
805.768	26473
805.91	26579
806.052	26469
806.194	26514
806.336	26636
806.478	26613
806.62	26431
806.762	26788
806.904	26727
807.046	26937
807.188	26849
807.33	27009
807.472	26975
807.614	26777
807.756	26895
807.898	26716
808.04	26845
808.182	26689
808.324	26872
808.465	26769
808.607	26940
808.749	27165
808.891	27214
809.033	27195
809.174	27154
809.316	27074
809.458	27093
809.6	27154
809.741	27154
809.883	27230
810.025	27496
810.166	27462
810.308	27515
810.45	27370
810.591	27287
810.733	27081
810.875	27112
811.016	27009
811.158	27093
811.299	27180
811.441	27275
811.582	27275
811.724	27062
811.865	26937
812.007	27058
812.148	27001
812.29	27100
812.431	27169
812.573	27439
812.714	27625
812.855	27466
812.997	27606
813.138	27762
813.279	27637
813.421	27713
813.562	27549
813.703	27348
813.845	27264
813.986	27039
814.127	26910
814.268	26655
814.41	26769
814.551	26648
814.692	26842
814.833	26693
814.974	26697
815.115	26857
815.256	26461
815.397	26697
815.539	26590
815.68	26549
815.821	26431
815.962	26579
816.103	26518
816.244	26385
816.385	26362
816.526	26271
816.666	26157
816.807	25974
816.948	26016
817.089	26161
817.23	25947
817.371	26054
817.512	26008
817.653	26031
817.793	25974
817.934	25989
818.075	26008
818.216	26005
818.356	25890
818.497	25868
818.638	25780
818.778	25635
818.919	25537
819.06	25769
819.2	25978
819.341	25947
819.481	25913
819.622	26130
819.762	26381
819.903	26362
820.043	26225
820.184	26210
820.324	26001
820.465	26259
820.605	26138
820.746	26096
820.886	25982
821.026	26195
821.167	26016
821.307	26065
821.447	25982
821.588	25845
821.728	25864
821.868	25666
822.008	25468
822.149	25563
822.289	25476
822.429	25259
822.569	25152
822.709	25084
822.849	25141
822.99	24985
823.13	25027
823.27	25027
823.41	24852
823.55	24745
823.69	24745
823.83	24848
823.97	24734
824.11	24578
824.25	24502
824.389	24582
824.529	24692
824.669	24623
824.809	24726
824.949	24726
825.089	24673
825.228	24650
825.368	24498
825.508	24597
825.648	24509
825.787	24460
825.927	24551
826.067	24494
826.206	24452
826.346	24532
826.485	24540
826.625	24532
826.765	24627
826.904	24612
827.044	24281
827.183	24232
827.323	24334
827.462	24357
827.601	24262
827.741	24213
827.88	24182
828.02	24159
828.159	24102
828.298	24353
828.437	24292
828.577	24258
828.716	24190
828.855	24121
828.994	23980
829.134	23916
829.273	23977
829.412	23863
829.551	23737
829.69	23977
829.829	23897
829.968	23931
830.107	23908
830.246	23923
830.385	23870
830.524	23931
830.663	23794
830.802	23566
830.941	23592
831.08	23512
831.219	23592
831.357	23581
831.496	23786
831.635	23657
831.774	23486
831.913	23391
832.051	23349
832.19	23334
832.329	23273
832.467	23334
832.606	23155
832.744	23200
832.883	23216
833.022	23098
833.16	23227
833.299	23227
833.437	23220
833.576	23345
833.714	23109
833.852	23368
833.991	23231
834.129	23284
834.267	23265
834.406	23269
834.544	23383
834.682	23288
834.821	23223
834.959	23406
835.097	23280
835.235	23311
835.373	23254
835.511	23254
835.65	23105
835.788	23075
835.926	23052
836.064	22885
836.202	23033
836.34	23159
836.478	23098
836.615	23170
836.753	23117
836.891	23185
837.029	23136
837.167	23086
837.305	23132
837.443	23018
837.58	23018
837.718	22953
837.856	22919
837.993	22923
838.131	23010
838.269	22984
838.406	22953
838.544	22911
838.681	22645
838.819	22672
838.956	22596
839.094	22580
839.231	22497
839.369	22645
839.506	22816
839.643	22649
839.781	22478
839.918	22516
840.055	22451
840.193	22443
840.33	22352
840.467	22371
840.604	22405
840.742	22706
840.879	22280
841.016	22379
841.153	22367
841.29	22508
841.427	22470
841.564	22356
841.701	22432
841.838	22405
841.975	22367
842.112	22322
842.249	22337
842.385	22215
842.522	22466
842.659	22306
842.796	22246
842.933	22173
843.069	22150
843.206	22147
843.343	22188
843.479	22329
843.616	22200
843.752	21934
843.889	22048
844.025	22109
844.162	21956
844.298	21972
844.435	22013
844.571	21983
844.708	22021
844.844	22086
844.98	22006
845.117	21915
845.253	21979
845.389	21778
845.525	21846
845.661	21766
845.798	21591
845.934	21679
846.07	21542
846.206	21713
846.342	21808
846.478	21652
846.614	21515
846.75	21313
846.886	21344
847.022	21542
847.158	21378
847.294	21405
847.429	21431
847.565	21367
847.701	21564
847.837	21214
847.972	21176
848.108	21226
848.244	21173
848.379	20902
848.515	21058
848.65	20982
848.786	20941
848.921	20952
849.057	21024
849.192	21070
849.328	21001
849.463	21020
849.598	20849
849.734	20895
849.869	20963
850.004	20826
850.14	20899
850.275	20758
850.41	20617
850.545	20720
850.68	20625
850.815	20788
850.95	20746
851.085	20994
851.22	20883
851.355	20925
851.49	20746
851.625	20731
851.76	20731
851.895	20674
852.03	20796
852.165	20811
852.299	20838
852.434	20921
852.569	20705
852.703	20815
852.838	20826
852.973	20876
853.107	20944
853.242	20621
853.376	20644
853.511	20476
853.645	20613
853.78	20708
853.914	20640
854.048	20621
854.183	20708
854.317	20568
854.451	20868
854.585	20613
854.72	20629
854.854	20697
854.988	20598
855.122	20549
855.256	20552
855.39	20488
855.524	20651
855.658	20720
855.792	20587
855.926	20590
856.06	20667
856.194	20670
856.327	20583
856.461	20568
856.595	20514
856.729	20564
856.862	20686
856.996	20625
857.13	20602
857.263	20769
857.397	20541
857.53	20644
857.664	20613
857.797	20537
857.931	20644
858.064	20705
858.197	20769
858.331	20655
858.464	20568
858.597	20412
858.731	20648
858.864	20442
858.997	20629
859.13	20522
859.263	20579
859.396	20575
859.529	20594
859.662	20564
859.795	20560
859.928	20583
860.061	20819
860.194	20845
860.327	20613
860.46	20587
860.592	20670
860.725	20682
860.858	20727
860.99	20560
861.123	20511
861.256	20552
861.388	20568
861.521	21302
861.653	20355
861.786	20438
861.918	20469
862.05	20537
862.183	20514
862.315	20648
862.447	20629
862.58	20545
862.712	20286
862.844	20187
862.976	20393
863.108	20290
863.24	20819
863.372	20484
863.504	20240
863.636	20320
863.768	20317
863.9	20271
864.032	20191
864.164	20263
864.296	20278
864.428	20377
864.559	20343
864.691	20389
864.823	20233
864.954	20332
865.086	20225
865.217	20244
865.349	20244
865.48	20191
865.612	20244
865.743	20377
865.875	20286
866.006	20081
866.137	20157
866.269	20172
866.4	20172
866.531	20069
866.662	20092
866.793	20237
866.924	20138
867.055	20233
867.186	20176
867.317	20142
867.448	20058
867.579	20168
867.71	20081
867.841	20054
867.972	20168
868.103	20050
868.233	20130
868.364	20092
868.495	20309
868.625	20419
868.756	20522
868.886	20355
869.017	20362
869.147	20499
869.278	20564
869.408	20454
869.539	20396
869.669	20609
869.799	20442
869.929	20503
870.06	20457
870.19	20754
870.32	20701
870.45	20819
870.58	20838
870.71	20925
870.84	20982
870.97	20765
871.1	20933
871.23	20914
871.36	20986
871.489	20895
871.619	21009
871.749	20971
871.879	21074
872.008	21195
872.138	21043
872.267	20902
872.397	20830
872.526	20948
872.656	20891
872.785	20720
872.915	21093
873.044	21123
873.173	20899
873.303	21070
873.432	21051
873.561	21100
873.69	21055
873.819	21131
873.948	21055
874.077	21131
874.206	21058
874.335	21013
874.464	21192
874.593	21302
874.722	21230
874.851	21348
874.979	21325
875.108	21291
875.237	21192
875.365	21123
875.494	21302
875.623	21233
875.751	21214
875.88	21199
876.008	21378
876.136	21481
876.265	21701
876.393	21869
876.521	21793
876.65	21789
876.778	21671
876.906	21564
877.034	21576
877.162	21572
877.29	21720
877.418	21633
877.546	21690
877.674	21603
877.802	21641
877.93	21591
878.058	21496
878.185	21523
878.313	21526
878.441	21568
878.568	21496
878.696	21507
878.824	21622
878.951	21705
879.079	21835
879.206	21934
879.333	21888
879.461	21641
879.588	21701
879.715	21857
879.842	21800
879.97	21686
880.097	21473
880.224	21420
880.351	21492
880.478	21355
880.605	21389
880.732	21485
880.859	21580
880.986	21401
881.112	21466
881.239	21252
881.366	21249
881.493	21108
881.619	20941
881.746	21180
881.872	21047
881.999	21017
882.125	20979
882.252	21157
882.378	21009
882.505	21138
882.631	20899
882.757	20807
882.883	20845
883.01	20792
883.136	20636
883.262	20609
883.388	20537
883.514	20708
883.64	20804
883.766	20708
883.892	20602
884.018	20473
884.143	20640
884.269	20788
884.395	20415
884.52	20438
884.646	20461
884.772	20347
884.897	20301
885.023	20514
885.148	20434
885.274	20526
885.399	20484
885.524	20404
885.65	20499
885.775	20476
885.9	20355
886.025	20533
886.15	20480
886.275	20374
886.4	20305
886.525	20442
886.65	20244
886.775	20408
886.9	20564
887.025	20640
887.149	20446
887.274	20252
887.399	20096
887.523	20202
887.648	20111
887.773	20111
887.897	20248
888.021	20229
888.146	20237
888.27	20298
888.395	20240
888.519	20328
888.643	20313
888.767	20183
888.891	20100
889.015	19909
889.139	20073
889.263	19906
889.387	20103
889.511	20161
889.635	20100
889.759	19970
889.883	19963
890.006	19978
890.13	20088
890.254	19913
890.377	19986
890.501	19860
890.624	19689
890.748	19818
890.871	19666
890.995	19521
891.118	19559
891.241	19613
891.364	19620
891.488	19635
891.611	19540
891.734	19582
891.857	19639
891.98	19609
892.103	19628
892.226	19605
892.349	19514
892.471	19392
892.594	19464
892.717	19552
892.839	19548
892.962	19362
893.085	19552
893.207	19377
893.33	19403
893.452	19384
893.575	19544
893.697	19525
893.819	19666
893.941	19556
894.064	19700
894.186	19403
894.308	19381
894.43	19502
894.552	19712
894.674	19582
894.796	19289
894.918	19441
895.04	19441
895.161	19552
895.283	19620
895.405	19373
895.526	19472
895.648	19343
895.769	19533
895.891	19510
896.012	19571
896.134	19514
896.255	19525
896.376	19331
896.498	19388
896.619	19552
896.74	19540
896.861	19537
896.982	19776
897.103	19982
897.224	19719
897.345	19731
897.466	19681
897.587	19681
897.708	19849
897.828	19700
897.949	19670
898.07	19639
898.19	19537
898.311	19803
898.431	19712
898.552	19666
898.672	19769
898.792	19776
898.913	19597
899.033	19635
899.153	19616
899.273	19441
899.393	19457
899.513	19468
899.633	19567
899.753	19472
899.873	19369
899.993	19464
900.113	19502
900.232	19483
900.352	19419
900.472	19228
900.591	19228
900.711	19289
900.83	19190
900.95	19415
901.069	19244
901.189	19190
901.308	18966
901.427	18890
901.546	18779
901.665	18897
901.784	18817
901.904	18722
902.023	18616
902.141	18422
902.26	18486
902.379	18475
902.498	18258
902.617	18330
902.735	18285
902.854	18285
902.973	18346
903.091	18068
903.21	18057
903.328	18041
903.446	18019
903.565	17904
903.683	17821
903.801	17771
903.919	17828
904.038	17847
904.156	17710
904.274	17748
904.392	17630
904.51	17623
904.627	17566
904.745	17676
904.863	17680
904.981	17436
905.098	17341
905.216	17280
905.334	17326
905.451	17337
905.569	17269
905.686	17296
905.803	17318
905.921	17090
906.038	17178
906.155	17014
906.272	16930
906.389	16911
906.506	16896
906.623	16866
906.74	16885
906.857	16687
906.974	16759
907.091	16919
907.208	16889
907.324	16801
907.441	16820
907.557	16679
907.674	16615
907.79	16500
907.907	16436
908.023	16588
908.139	16538
908.256	16500
908.372	16363
908.488	16493
908.604	16246
908.72	16363
908.836	16333
908.952	16196
909.068	16325
909.184	16512
909.3	16226
909.415	16333
909.531	16306
909.647	16120
909.762	15979
909.878	15975
909.993	15983
910.108	15937
910.224	15998
910.339	16059
910.454	15903
910.57	15804
910.685	15682
910.8	16059
910.915	16097
911.03	15774
911.145	15694
911.259	15622
911.374	15538
911.489	15561
911.604	15545
911.718	15450
911.833	15336
911.947	15321
912.062	15298
912.176	15393
912.291	15507
912.405	15424
912.519	15656
912.633	15447
912.748	15439
912.862	15313
912.976	15188
913.09	15119
913.204	15241
913.318	15249
913.431	15283
913.545	15283
913.659	15351
913.772	15226
913.886	15028
914	14952
914.113	15123
914.226	15085
914.34	15017
914.453	14937
914.566	15009
914.68	14883
914.793	14876
914.906	14579
915.019	14587
915.132	14598
915.245	14533
915.358	14678
915.47	14621
915.583	14514
915.696	14598
915.809	14705
915.921	14777
916.034	14507
916.146	14579
916.259	14503
916.371	14598
916.483	14533
916.595	14552
916.708	14450
916.82	14469
916.932	14431
917.044	14374
917.156	14438
917.268	14221
917.38	14286
917.491	14210
917.603	14282
917.715	14358
917.826	14469
917.938	14263
918.049	14176
918.161	14210
918.272	14400
918.384	14332
918.495	14191
918.606	14046
918.717	14107
918.828	14142
918.939	14084
919.05	14012
919.161	13978
919.272	13795
919.383	13852
919.494	14145
919.604	14206
919.715	13963
919.826	13947
919.936	13940
920.047	14088
920.157	14046
920.267	14172
920.378	14039
920.488	14092
920.598	14164
920.708	14381
920.818	14149
920.928	14153
921.038	14248
921.148	14275
921.258	13955
921.368	13868
921.477	13708
921.587	13712
921.697	13582
921.806	13742
921.916	13628
922.025	13457
922.134	13487
922.244	13354
922.353	13449
922.462	13331
922.571	13297
922.68	13152
922.789	13141
922.898	13065
923.007	12920
923.116	13046
923.224	13122
923.333	13061
923.442	12947
923.55	12890
923.659	12886
923.767	12943
923.876	12791
923.984	12981
924.092	12886
924.201	12844
924.309	12817
924.417	12852
924.525	12726
924.633	12730
924.741	13639
924.849	12544
924.956	12673
925.064	12502
925.172	12456
925.279	12506
925.387	12559
925.494	12460
925.602	12658
925.709	12532
925.816	12388
925.924	12502
926.031	12513
926.138	12528
926.245	12502
926.352	12369
926.459	12601
926.566	12525
926.673	12441
926.779	12292
926.886	12289
926.993	12136
927.099	12121
927.206	12098
927.312	11999
927.419	12159
927.525	12148
927.631	12117
927.737	11954
927.843	11897
927.95	11874
928.056	11946
928.162	11946
928.267	11946
928.373	12410
928.479	11973
928.585	11786
928.69	11847
928.796	11878
928.901	11771
929.007	11665
929.112	11714
929.218	11824
929.323	11821
929.428	11680
929.533	11775
929.638	11566
929.743	11668
929.848	11630
929.953	11558
930.058	11455
930.163	11391
930.267	11360
930.372	11501
930.477	11307
930.581	11493
930.685	11421
930.79	11258
930.894	11303
930.998	11197
931.103	11379
931.207	10976
931.311	10919
931.415	10934
931.519	10607
931.623	10702
