Data from test_V78500241_262.txt Node
Date: Fri Mar 25 15:11:41 CST 2022
User: usil
Spectrometer: V785-0024
Trigger mode: 0
Integration Time (sec): 4.000000E-1
Scans to average: 1
Nonlinearity correction enabled: false
Boxcar width: 0
Storing dark spectrum: false
XAxis mode: Wavelengths
Number of Pixels in Spectrum: 1024
>>>>>Begin Spectral Data<<<<<
801.071	28478
801.214	28284
801.356	28021
801.499	28051
801.641	28093
801.783	27918
801.926	27861
802.068	27960
802.211	27880
802.353	27732
802.496	27701
802.638	27686
802.78	27690
802.923	27561
803.065	27408
803.208	27466
803.35	27580
803.492	27637
803.635	27789
803.777	27587
803.919	27827
804.061	27793
804.204	27622
804.346	27698
804.488	27663
804.63	27694
804.773	27530
804.915	27572
805.057	27876
805.199	27656
805.341	27743
805.483	27728
805.626	27835
805.768	27553
805.91	27789
806.052	27770
806.194	27838
806.336	27918
806.478	27743
806.62	27690
806.762	27914
806.904	27930
807.046	28249
807.188	28166
807.33	28116
807.472	28329
807.614	27949
807.756	28147
807.898	27914
808.04	27892
808.182	27994
808.324	27975
808.465	27968
808.607	28116
808.749	28310
808.891	28550
809.033	28679
809.174	28497
809.316	28318
809.458	28401
809.6	28360
809.741	28413
809.883	28371
810.025	28645
810.166	28660
810.308	28577
810.45	28546
810.591	28363
810.733	28325
810.875	28314
811.016	28207
811.158	28070
811.299	28485
811.441	28462
811.582	28474
811.724	28348
811.865	28253
812.007	28276
812.148	28432
812.29	28344
812.431	28306
812.573	28672
812.714	28721
812.855	28831
812.997	28987
813.138	29109
813.279	29037
813.421	28858
813.562	28888
813.703	28618
813.845	28557
813.986	28303
814.127	28147
814.268	28158
814.41	27895
814.551	27911
814.692	28017
814.833	27895
814.974	27911
815.115	28067
815.256	27732
815.397	27789
815.539	27789
815.68	27762
815.821	27625
815.962	27774
816.103	27797
816.244	27587
816.385	27500
816.526	27485
816.666	27439
816.807	27131
816.948	27260
817.089	27332
817.23	27336
817.371	27051
817.512	27154
817.653	27222
817.793	27188
817.934	27135
818.075	27085
818.216	27226
818.356	27142
818.497	27089
818.638	26830
818.778	26804
818.919	26986
819.06	26933
819.2	26986
819.341	27055
819.481	27108
819.622	27317
819.762	27431
819.903	27218
820.043	27214
820.184	27245
820.324	27264
820.465	27241
820.605	27222
820.746	27226
820.886	27074
821.026	27317
821.167	27192
821.307	27287
821.447	27176
821.588	26998
821.728	26750
821.868	26804
822.008	26598
822.149	26568
822.289	26594
822.429	26313
822.569	26415
822.709	26271
822.849	26001
822.99	26077
823.13	26005
823.27	26024
823.41	25704
823.55	25727
823.69	25890
823.83	25947
823.97	25803
824.11	25674
824.25	25670
824.389	25616
824.529	25765
824.669	25632
824.809	25826
824.949	25685
825.089	25742
825.228	25772
825.368	25613
825.508	25479
825.648	25537
825.787	25635
825.927	25537
826.067	25464
826.206	25552
826.346	25575
826.485	25696
826.625	25460
826.765	25479
826.904	25563
827.044	25259
827.183	25221
827.323	25148
827.462	25171
827.601	25301
827.741	25171
827.88	25266
828.02	25331
828.159	25217
828.298	25160
828.437	25240
828.577	25179
828.716	25392
828.855	25141
828.994	24920
829.134	24878
829.273	25076
829.412	24897
829.551	24806
829.69	24962
829.829	24924
829.968	25061
830.107	24916
830.246	24760
830.385	24768
830.524	24878
830.663	24814
830.802	24551
830.941	24570
831.08	24407
831.219	24563
831.357	24547
831.496	24677
831.635	24486
831.774	24467
831.913	24407
832.051	24232
832.19	24334
832.329	24361
832.467	24125
832.606	24148
832.744	24102
832.883	24148
833.022	24152
833.16	24098
833.299	24342
833.437	24159
833.576	24171
833.714	24155
833.852	24315
833.991	24174
834.129	24304
834.267	24361
834.406	24197
834.544	24235
834.682	24174
834.821	24159
834.959	24224
835.097	24167
835.235	24190
835.373	24106
835.511	24064
835.65	24064
835.788	23859
835.926	23882
836.064	23824
836.202	23939
836.34	24072
836.478	24144
836.615	24133
836.753	24148
836.891	24136
837.029	24098
837.167	23992
837.305	23897
837.443	23920
837.58	23958
837.718	23859
837.856	23817
837.993	23855
838.131	23908
838.269	23870
838.406	23661
838.544	23661
838.681	23543
838.819	23505
838.956	23410
839.094	23414
839.231	23349
839.369	23421
839.506	23581
839.643	23642
839.781	23269
839.918	23216
840.055	23395
840.193	23231
840.33	23208
840.467	23086
840.604	23216
840.742	23360
840.879	23094
841.016	23178
841.153	23113
841.29	23307
841.427	23147
841.564	23239
841.701	23280
841.838	23162
841.975	23181
842.112	23128
842.249	22987
842.385	22934
842.522	23136
842.659	23025
842.796	22934
842.933	22957
843.069	22869
843.206	22900
843.343	22995
843.479	22946
843.616	22968
843.752	22706
843.889	22740
844.025	22927
844.162	22592
844.298	22793
844.435	22698
844.571	22649
844.708	22752
844.844	22805
844.98	22877
845.117	22721
845.253	22588
845.389	22527
845.525	22603
845.661	22550
845.798	22333
845.934	22424
846.07	22497
846.206	22417
846.342	22542
846.478	22367
846.614	22188
846.75	22150
846.886	22246
847.022	22246
847.158	22177
847.294	22196
847.429	22131
847.565	22021
847.701	22428
847.837	21926
847.972	21819
848.108	22002
848.244	22002
848.379	21713
848.515	21888
848.65	21679
848.786	21701
848.921	21751
849.057	21903
849.192	21793
849.328	21770
849.463	21709
849.598	21736
849.734	21732
849.869	21557
850.004	21523
850.14	21500
850.275	21462
850.41	21428
850.545	21370
850.68	21420
850.815	21587
850.95	21359
851.085	21633
851.22	21553
851.355	21431
851.49	21393
851.625	21363
851.76	21538
851.895	21435
852.03	21435
852.165	21416
852.299	21542
852.434	21447
852.569	21530
852.703	21428
852.838	21675
852.973	21660
853.107	21599
853.242	21340
853.376	21291
853.511	21226
853.645	21348
853.78	21325
853.914	21275
854.048	21336
854.183	21119
854.317	21306
854.451	21428
854.585	21306
854.72	21214
854.854	21222
854.988	21256
855.122	21233
855.256	21252
855.39	21180
855.524	21363
855.658	21344
855.792	21195
855.926	21348
856.06	21313
856.194	21355
856.327	21192
856.461	21154
856.595	21256
856.729	21283
856.862	21439
856.996	21169
857.13	21378
857.263	21382
857.397	21378
857.53	21237
857.664	21363
857.797	21370
857.931	21355
858.064	21203
858.197	21405
858.331	21370
858.464	21268
858.597	21176
858.731	21241
858.864	21207
858.997	21256
859.13	21127
859.263	21237
859.396	21378
859.529	21264
859.662	21207
859.795	21150
859.928	21195
860.061	21317
860.194	21393
860.327	21294
860.46	21279
860.592	21291
860.725	21561
860.858	21306
860.99	21211
861.123	21188
861.256	21093
861.388	21397
861.521	21888
861.653	21150
861.786	21009
861.918	20998
862.05	21199
862.183	21287
862.315	21192
862.447	21310
862.58	21367
862.712	21070
862.844	20872
862.976	20967
863.108	21009
863.24	21477
863.372	20834
863.504	20872
863.636	20963
863.768	20872
863.9	21028
864.032	20876
864.164	20868
864.296	20975
864.428	21047
864.559	20971
864.691	20963
864.823	20975
864.954	20902
865.086	20910
865.217	20849
865.349	20811
865.48	20788
865.612	20918
865.743	21028
865.875	20804
866.006	20830
866.137	20800
866.269	20849
866.4	20762
866.531	20826
866.662	20785
866.793	20777
866.924	20815
867.055	20765
867.186	20834
867.317	20762
867.448	20773
867.579	20743
867.71	20670
867.841	20537
867.972	20670
868.103	20739
868.233	20689
868.364	20777
868.495	20788
868.625	20902
868.756	21142
868.886	21032
869.017	21024
869.147	21036
869.278	21211
869.408	20971
869.539	21039
869.669	21089
869.799	21017
869.929	21028
870.06	21127
870.19	21207
870.32	21298
870.45	21374
870.58	21355
870.71	21507
870.84	21511
870.97	21325
871.1	21405
871.23	21622
871.36	21660
871.489	21530
871.619	21564
871.749	21515
871.879	21633
872.008	21557
872.138	21610
872.267	21713
872.397	21481
872.526	21420
872.656	21397
872.785	21431
872.915	21595
873.044	21679
873.173	21580
873.303	21652
873.432	21686
873.561	21637
873.69	21511
873.819	21583
873.948	21690
874.077	21583
874.206	21603
874.335	21614
874.464	21690
874.593	21899
874.722	21842
874.851	21960
874.979	21804
875.108	21705
875.237	21751
875.365	21660
875.494	21865
875.623	21953
875.751	21736
875.88	21850
876.008	21793
876.136	22032
876.265	22196
876.393	22462
876.521	22322
876.65	22455
876.778	22139
876.906	22261
877.034	22230
877.162	22147
877.29	22101
877.418	22116
877.546	22253
877.674	22223
877.802	22112
877.93	22246
878.058	22090
878.185	22051
878.313	22063
878.441	22306
878.568	22059
878.696	22040
878.824	22295
878.951	22329
879.079	22310
879.206	22508
879.333	22253
879.461	22192
879.588	22261
879.715	22394
879.842	22493
879.97	22223
880.097	21964
880.224	21934
880.351	22109
880.478	22044
880.605	21926
880.732	21991
880.859	22234
880.986	22131
881.112	21975
881.239	21865
881.366	21671
881.493	21686
881.619	21591
881.746	21656
881.872	21519
881.999	21557
882.125	21614
882.252	21698
882.378	21526
882.505	21701
882.631	21481
882.757	21329
882.883	21443
883.01	21500
883.136	21382
883.262	21237
883.388	21207
883.514	21218
883.64	21302
883.766	21195
883.892	21119
884.018	21089
884.143	21241
884.269	21340
884.395	21005
884.52	20880
884.646	21020
884.772	20777
884.897	20982
885.023	21017
885.148	21055
885.274	21051
885.399	20998
885.524	21028
885.65	20975
885.775	20880
885.9	20941
886.025	21077
886.15	20880
886.275	21013
886.4	20746
886.525	20899
886.65	20769
886.775	20914
886.9	20925
887.025	21154
887.149	20929
887.274	20750
887.399	20670
887.523	20648
887.648	20754
887.773	20545
887.897	20823
888.021	20693
888.146	20648
888.27	20727
888.395	20716
888.519	20735
888.643	20644
888.767	20773
888.891	20594
889.015	20507
889.139	20564
889.263	20461
889.387	20606
889.511	20686
889.635	20522
889.759	20469
889.883	20454
890.006	20552
890.13	20503
890.254	20301
890.377	20415
890.501	20256
890.624	20282
890.748	20298
890.871	20119
890.995	20187
891.118	20111
891.241	20130
891.364	20016
891.488	20199
891.611	20111
891.734	20183
891.857	20161
891.98	19974
892.103	20058
892.226	20020
892.349	20054
892.471	19917
892.594	20069
892.717	19970
892.839	20122
892.962	20073
893.085	20046
893.207	20016
893.33	19883
893.452	19883
893.575	20065
893.697	19955
893.819	20001
893.941	20111
894.064	20069
894.186	19883
894.308	19913
894.43	20027
894.552	20092
894.674	20088
894.796	19868
894.918	20001
895.04	19826
895.161	19982
895.283	20016
895.405	19932
895.526	19936
895.648	19875
895.769	20043
895.891	19989
896.012	20122
896.134	20111
896.255	20008
896.376	19894
896.498	19997
896.619	19974
896.74	19993
896.861	19974
896.982	20404
897.103	20431
897.224	20187
897.345	20278
897.466	20126
897.587	20008
897.708	20172
897.828	20271
897.949	20111
898.07	20027
898.19	20115
898.311	20294
898.431	20149
898.552	20256
898.672	20176
898.792	20271
898.913	20180
899.033	20024
899.153	19932
899.273	19864
899.393	20016
899.513	19887
899.633	19887
899.753	19993
899.873	19887
899.993	19940
900.113	19788
900.232	19974
900.352	19822
900.472	19753
900.591	19666
900.711	19769
900.83	19689
900.95	19757
901.069	19795
901.189	19616
901.308	19502
901.427	19289
901.546	19278
901.665	19301
901.784	19324
901.904	19198
902.023	19031
902.141	18825
902.26	18848
902.379	18795
902.498	18852
902.617	18795
902.735	18848
902.854	18715
902.973	18669
903.091	18555
903.21	18391
903.328	18441
903.446	18338
903.565	18338
903.683	18327
903.801	18110
903.919	18235
904.038	18258
904.156	18045
904.274	18190
904.392	17999
904.51	17988
904.627	18117
904.745	18034
904.863	18064
904.981	17843
905.098	17775
905.216	17695
905.334	17657
905.451	17794
905.569	17745
905.686	17726
905.803	17729
905.921	17455
906.038	17642
906.155	17524
906.272	17345
906.389	17395
906.506	17265
906.623	17250
906.74	17307
906.857	17094
906.974	17261
907.091	17318
907.208	17334
907.324	17376
907.441	17056
907.557	17029
907.674	16850
907.79	16843
907.907	16938
908.023	16957
908.139	16946
908.256	16915
908.372	16828
908.488	16809
908.604	16660
908.72	16569
908.836	16607
908.952	16561
909.068	16645
909.184	16828
909.3	16656
909.415	16740
909.531	16634
909.647	16390
909.762	16337
909.878	16303
909.993	16318
910.108	16280
910.224	16348
910.339	16291
910.454	16200
910.57	16173
910.685	16013
910.8	16306
910.915	16284
911.03	16048
911.145	15922
911.259	16006
911.374	16055
911.489	15873
911.604	15770
911.718	15603
911.833	15713
911.947	15625
912.062	15603
912.176	15606
912.291	15663
912.405	15778
912.519	15812
912.633	15926
912.748	15610
912.862	15671
912.976	15591
913.09	15374
913.204	15408
913.318	15389
913.431	15564
913.545	15485
913.659	15538
913.772	15431
913.886	15344
914	15222
914.113	15359
914.226	15412
914.34	15359
914.453	15176
914.566	15275
914.68	15093
914.793	15165
914.906	15009
915.019	14853
915.132	14925
915.245	14872
915.358	14956
915.47	14979
915.583	15020
915.696	15001
915.809	15047
915.921	15043
916.034	14864
916.146	14849
916.259	14800
916.371	14956
916.483	14937
916.595	14804
916.708	14716
916.82	14670
916.932	14731
917.044	14712
917.156	14651
917.268	14518
917.38	14583
917.491	14629
917.603	14655
917.715	14689
917.826	14648
917.938	14412
918.049	14473
918.161	14549
918.272	14636
918.384	14644
918.495	14423
918.606	14320
918.717	14259
918.828	14358
918.939	14294
919.05	14172
919.161	14229
919.272	14043
919.383	14233
919.494	14381
919.604	14511
919.715	14286
919.826	14100
919.936	14252
920.047	14351
920.157	14377
920.267	14400
920.378	14233
920.488	14206
920.598	14442
920.708	14602
920.818	14461
920.928	14332
921.038	14484
921.148	14465
921.258	14263
921.368	14065
921.477	14062
921.587	14020
921.697	13928
921.806	13959
921.916	13887
922.025	13719
922.134	13731
922.244	13670
922.353	13670
922.462	13537
922.571	13445
922.68	13358
922.789	13255
922.898	13285
923.007	13225
923.116	13362
923.224	13293
923.333	13263
923.442	13114
923.55	13141
923.659	13114
923.767	13168
923.876	12981
923.984	13251
924.092	13023
924.201	13046
924.309	13038
924.417	13038
924.525	12977
924.633	12951
924.741	13586
924.849	12745
924.956	12833
925.064	12825
925.172	12563
925.279	12677
925.387	12825
925.494	12730
925.602	12878
925.709	12768
925.816	12700
925.924	12715
926.031	12764
926.138	12684
926.245	12764
926.352	12589
926.459	12684
926.566	12741
926.673	12639
926.779	12475
926.886	12403
926.993	12224
927.099	12357
927.206	12228
927.312	12266
927.419	12388
927.525	12201
927.631	12258
927.737	12266
927.843	12205
927.95	12057
928.056	12076
928.162	12114
928.267	12194
928.373	12673
928.479	12083
928.585	11977
928.69	11996
928.796	12102
928.901	11999
929.007	11855
929.112	11996
929.218	11939
929.323	12007
929.428	11878
929.533	11965
929.638	11733
929.743	11775
929.848	11866
929.953	11798
930.058	11707
930.163	11516
930.267	11581
930.372	11642
930.477	11440
930.581	11676
930.685	11474
930.79	11471
930.894	11520
930.998	11364
931.103	11566
931.207	11235
931.311	11086
931.415	11022
931.519	10873
931.623	10763
