Data from test_V78500241_348.txt Node
Date: Fri Mar 25 15:12:16 CST 2022
User: usil
Spectrometer: V785-0024
Trigger mode: 0
Integration Time (sec): 4.000000E-1
Scans to average: 1
Nonlinearity correction enabled: false
Boxcar width: 0
Storing dark spectrum: false
XAxis mode: Wavelengths
Number of Pixels in Spectrum: 1024
>>>>>Begin Spectral Data<<<<<
801.071	27184
801.214	27017
801.356	26823
801.499	26826
801.641	26602
801.783	26693
801.926	26689
802.068	26678
802.211	26313
802.353	26533
802.496	26271
802.638	26377
802.78	26240
802.923	26267
803.065	26073
803.208	26161
803.35	26275
803.492	26294
803.635	26473
803.777	26374
803.919	26457
804.061	26777
804.204	26461
804.346	26366
804.488	26427
804.63	26400
804.773	26309
804.915	26389
805.057	26518
805.199	26374
805.341	26457
805.483	26579
805.626	26556
805.768	26347
805.91	26651
806.052	26442
806.194	26465
806.336	26659
806.478	26442
806.62	26617
806.762	26564
806.904	26762
807.046	26887
807.188	26857
807.33	26781
807.472	26929
807.614	26906
807.756	26857
807.898	26712
808.04	26750
808.182	26758
808.324	26785
808.465	26815
808.607	26769
808.749	27024
808.891	27138
809.033	27370
809.174	27199
809.316	27108
809.458	27195
809.6	27028
809.741	27256
809.883	27241
810.025	27306
810.166	27435
810.308	27378
810.45	27313
810.591	27344
810.733	27127
810.875	27055
811.016	26937
811.158	27058
811.299	27058
811.441	27283
811.582	27313
811.724	27055
811.865	27024
812.007	27104
812.148	27043
812.29	27081
812.431	27211
812.573	27431
812.714	27424
812.855	27614
812.997	27698
813.138	27823
813.279	27770
813.421	27667
813.562	27618
813.703	27466
813.845	27420
813.986	27032
814.127	26864
814.268	26693
814.41	26811
814.551	26735
814.692	26788
814.833	26579
814.974	26769
815.115	26659
815.256	26689
815.397	26648
815.539	26629
815.68	26594
815.821	26514
815.962	26560
816.103	26492
816.244	26374
816.385	26271
816.526	26142
816.666	26202
816.807	26020
816.948	26195
817.089	26111
817.23	26187
817.371	26001
817.512	25978
817.653	25883
817.793	26039
817.934	26100
818.075	26092
818.216	26183
818.356	26065
818.497	25932
818.638	25601
818.778	25753
818.919	25807
819.06	25940
819.2	25803
819.341	26103
819.481	25966
819.622	26111
819.762	26450
819.903	26267
820.043	26126
820.184	26062
820.324	26130
820.465	26195
820.605	26206
820.746	26077
820.886	26027
821.026	26043
821.167	25978
821.307	26149
821.447	25913
821.588	25898
821.728	25738
821.868	25746
822.008	25476
822.149	25525
822.289	25464
822.429	25301
822.569	25190
822.709	25228
822.849	25015
822.99	25034
823.13	24981
823.27	24989
823.41	24703
823.55	24722
823.69	24814
823.83	24623
823.97	24604
824.11	24509
824.25	24536
824.389	24734
824.529	24677
824.669	24559
824.809	24722
824.949	24707
825.089	24642
825.228	24631
825.368	24471
825.508	24551
825.648	24505
825.787	24452
825.927	24509
826.067	24486
826.206	24422
826.346	24616
826.485	24505
826.625	24467
826.765	24639
826.904	24494
827.044	24178
827.183	24220
827.323	24110
827.462	24289
827.601	24171
827.741	24201
827.88	24235
828.02	24015
828.159	24266
828.298	24220
828.437	24216
828.577	24125
828.716	24262
828.855	24133
828.994	23961
829.134	23870
829.273	23999
829.412	23817
829.551	23870
829.69	24015
829.829	23923
829.968	24091
830.107	24155
830.246	23901
830.385	23973
830.524	23851
830.663	23729
830.802	23653
830.941	23417
831.08	23551
831.219	23665
831.357	23623
831.496	23585
831.635	23478
831.774	23398
831.913	23360
832.051	23417
832.19	23288
832.329	23372
832.467	23288
832.606	23204
832.744	23170
832.883	23155
833.022	23178
833.16	23231
833.299	23185
833.437	23185
833.576	23261
833.714	23235
833.852	23269
833.991	23212
834.129	23440
834.267	23334
834.406	23273
834.544	23315
834.682	23356
834.821	23353
834.959	23421
835.097	23296
835.235	23360
835.373	23231
835.511	23254
835.65	23124
835.788	23102
835.926	22980
836.064	23105
836.202	23018
836.34	23105
836.478	23220
836.615	23124
836.753	23121
836.891	23128
837.029	23083
837.167	23159
837.305	23132
837.443	23060
837.58	23029
837.718	23178
837.856	23014
837.993	22824
838.131	23022
838.269	22824
838.406	22809
838.544	22904
838.681	22748
838.819	22683
838.956	22500
839.094	22546
839.231	22523
839.369	22508
839.506	22835
839.643	22683
839.781	22527
839.918	22421
840.055	22436
840.193	22371
840.33	22455
840.467	22371
840.604	22538
840.742	22599
840.879	22344
841.016	22356
841.153	22329
841.29	22466
841.427	22333
841.564	22382
841.701	22485
841.838	22337
841.975	22310
842.112	22356
842.249	22185
842.385	22196
842.522	22363
842.659	22268
842.796	22200
842.933	22135
843.069	22166
843.206	22074
843.343	22207
843.479	22090
843.616	22120
843.752	22040
843.889	21827
844.025	22021
844.162	21998
844.298	22086
844.435	21949
844.571	21857
844.708	21975
844.844	22017
844.98	22120
845.117	22116
845.253	21888
845.389	21831
845.525	21743
845.661	21797
845.798	21861
845.934	21603
846.07	21618
846.206	21785
846.342	21728
846.478	21766
846.614	21545
846.75	21325
846.886	21344
847.022	21412
847.158	21473
847.294	21504
847.429	21329
847.565	21367
847.701	21542
847.837	21188
847.972	21108
848.108	21252
848.244	21188
848.379	21036
848.515	21077
848.65	20960
848.786	21028
848.921	21093
849.057	21146
849.192	21013
849.328	20986
849.463	21116
849.598	20975
849.734	20933
849.869	20800
850.004	20876
850.14	20872
850.275	20868
850.41	20705
850.545	20762
850.68	20762
850.815	20826
850.95	20701
851.085	21017
851.22	20891
851.355	20765
851.49	20834
851.625	20781
851.76	20716
851.895	20632
852.03	20621
852.165	20712
852.299	20735
852.434	20834
852.569	20792
852.703	20705
852.838	20834
852.973	20952
853.107	20857
853.242	20815
853.376	20602
853.511	20541
853.645	20636
853.78	20697
853.914	20575
854.048	20545
854.183	20609
854.317	20526
854.451	20754
854.585	20454
854.72	20613
854.854	20590
854.988	20579
855.122	20480
855.256	20461
855.39	20659
855.524	20724
855.658	20788
855.792	20648
855.926	20674
856.06	20560
856.194	20670
856.327	20564
856.461	20579
856.595	20438
856.729	20533
856.862	20708
856.996	20636
857.13	20682
857.263	20651
857.397	20785
857.53	20651
857.664	20625
857.797	20777
857.931	20659
858.064	20587
858.197	20629
858.331	20541
858.464	20530
858.597	20419
858.731	20564
858.864	20537
858.997	20549
859.13	20617
859.263	20522
859.396	20697
859.529	20518
859.662	20511
859.795	20549
859.928	20598
860.061	20712
860.194	20727
860.327	20705
860.46	20609
860.592	20636
860.725	20800
860.858	20762
860.99	20560
861.123	20560
861.256	20579
861.388	20511
861.521	21275
861.653	20530
861.786	20438
861.918	20358
862.05	20495
862.183	20503
862.315	20503
862.447	20541
862.58	20476
862.712	20355
862.844	20240
862.976	20492
863.108	20473
863.24	20769
863.372	20263
863.504	20252
863.636	20362
863.768	20324
863.9	20286
864.032	20210
864.164	20389
864.296	20343
864.428	20450
864.559	20457
864.691	20290
864.823	20294
864.954	20347
865.086	20290
865.217	20195
865.349	20119
865.48	20252
865.612	20240
865.743	20355
865.875	20271
866.006	20237
866.137	20237
866.269	20187
866.4	20195
866.531	20195
866.662	20100
866.793	20111
866.924	20153
867.055	20111
867.186	20115
867.317	20161
867.448	20027
867.579	20134
867.71	19963
867.841	20039
867.972	20153
868.103	20168
868.233	20115
868.364	20100
868.495	20168
868.625	20415
868.756	20400
868.886	20370
869.017	20518
869.147	20495
869.278	20609
869.408	20473
869.539	20396
869.669	20598
869.799	20480
869.929	20609
870.06	20503
870.19	20777
870.32	20663
870.45	20777
870.58	20830
870.71	20910
870.84	20861
870.97	20895
871.1	20895
871.23	20918
871.36	20899
871.489	20952
871.619	20807
871.749	20967
871.879	20998
872.008	20986
872.138	20944
872.267	21066
872.397	20906
872.526	20735
872.656	20781
872.785	20811
872.915	20960
873.044	21085
873.173	20933
873.303	21062
873.432	21176
873.561	21100
873.69	21055
873.819	21028
873.948	21127
874.077	21009
874.206	21024
874.335	21047
874.464	21123
874.593	21317
874.722	21176
874.851	21180
874.979	21222
875.108	21222
875.237	21279
875.365	21233
875.494	21211
875.623	21374
875.751	21268
875.88	21180
876.008	21401
876.136	21473
876.265	21625
876.393	21819
876.521	21823
876.65	21827
876.778	21599
876.906	21694
877.034	21576
877.162	21614
877.29	21496
877.418	21656
877.546	21679
877.674	21675
877.802	21568
877.93	21679
878.058	21511
878.185	21393
878.313	21603
878.441	21591
878.568	21443
878.696	21519
878.824	21625
878.951	21709
879.079	21816
879.206	21949
879.333	21709
879.461	21641
879.588	21663
879.715	21789
879.842	21892
879.97	21701
880.097	21477
880.224	21466
880.351	21443
880.478	21606
880.605	21405
880.732	21431
880.859	21625
880.986	21428
881.112	21408
881.239	21481
881.366	21077
881.493	21104
881.619	20906
881.746	21009
881.872	21032
881.999	20990
882.125	20910
882.252	21024
882.378	20963
882.505	21161
882.631	20941
882.757	20811
882.883	20762
883.01	20693
883.136	20682
883.262	20655
883.388	20518
883.514	20864
883.64	20765
883.766	20689
883.892	20480
884.018	20503
884.143	20674
884.269	20807
884.395	20434
884.52	20393
884.646	20259
884.772	20317
884.897	20221
885.023	20309
885.148	20518
885.274	20613
885.399	20533
885.524	20385
885.65	20400
885.775	20408
885.9	20366
886.025	20526
886.15	20457
886.275	20320
886.4	20275
886.525	20351
886.65	20259
886.775	20377
886.9	20473
887.025	20507
887.149	20328
887.274	20107
887.399	20092
887.523	20267
887.648	20084
887.773	20252
887.897	20267
888.021	20210
888.146	20084
888.27	20282
888.395	20248
888.519	20172
888.643	20218
888.767	20145
888.891	20153
889.015	20016
889.139	20020
889.263	19883
889.387	20043
889.511	20202
889.635	20005
889.759	19989
889.883	19986
890.006	19917
890.13	20027
890.254	19894
890.377	19909
890.501	19624
890.624	19609
890.748	19727
890.871	19624
890.995	19502
891.118	19499
891.241	19552
891.364	19616
891.488	19639
891.611	19537
891.734	19571
891.857	19651
891.98	19552
892.103	19715
892.226	19590
892.349	19540
892.471	19400
892.594	19537
892.717	19460
892.839	19407
892.962	19483
893.085	19586
893.207	19529
893.33	19350
893.452	19468
893.575	19559
893.697	19373
893.819	19590
893.941	19712
894.064	19502
894.186	19415
894.308	19339
894.43	19464
894.552	19582
894.674	19643
894.796	19354
894.918	19289
895.04	19460
895.161	19559
895.283	19483
895.405	19468
895.526	19419
895.648	19449
895.769	19445
895.891	19472
896.012	19590
896.134	19597
896.255	19506
896.376	19339
896.498	19582
896.619	19449
896.74	19468
896.861	19480
896.982	19814
897.103	19784
897.224	19856
897.345	19666
897.466	19635
897.587	19757
897.708	19932
897.828	19849
897.949	19601
898.07	19518
898.19	19586
898.311	19769
898.431	19590
898.552	19761
898.672	19708
898.792	19742
898.913	19700
899.033	19533
899.153	19556
899.273	19362
899.393	19445
899.513	19548
899.633	19430
899.753	19430
899.873	19403
899.993	19464
900.113	19377
900.232	19396
900.352	19430
900.472	19274
900.591	19168
900.711	19251
900.83	19259
900.95	19331
901.069	19373
901.189	19160
901.308	18932
901.427	18707
901.546	18878
901.665	18852
901.784	18802
901.904	18635
902.023	18642
902.141	18475
902.26	18361
902.379	18418
902.498	18304
902.617	18304
902.735	18319
902.854	18235
902.973	18273
903.091	17996
903.21	18159
903.328	18030
903.446	17912
903.565	17847
903.683	17901
903.801	17657
903.919	17737
904.038	17802
904.156	17570
904.274	17649
904.392	17619
904.51	17512
904.627	17410
904.745	17577
904.863	17570
904.981	17414
905.098	17273
905.216	17269
905.334	17318
905.451	17231
905.569	17227
905.686	17239
905.803	17212
905.921	17132
906.038	17208
906.155	17098
906.272	16984
906.389	17052
906.506	16900
906.623	16866
906.74	16881
906.857	16736
906.974	16713
907.091	16885
907.208	17041
907.324	16767
907.441	16748
907.557	16546
907.674	16500
907.79	16489
907.907	16588
908.023	16618
908.139	16489
908.256	16455
908.372	16371
908.488	16459
908.604	16405
908.72	16322
908.836	16268
908.952	16287
909.068	16257
909.184	16363
909.3	16226
909.415	16341
909.531	16265
909.647	15994
909.762	15975
909.878	16036
909.993	16032
910.108	15857
910.224	15915
910.339	15968
910.454	15797
910.57	15816
910.685	15762
910.8	16002
910.915	15972
911.03	15781
911.145	15629
911.259	15652
911.374	15652
911.489	15591
911.604	15450
911.718	15389
911.833	15397
911.947	15367
912.062	15199
912.176	15378
912.291	15329
912.405	15348
912.519	15488
912.633	15439
912.748	15272
912.862	15393
912.976	15203
913.09	15127
913.204	15100
913.318	15157
913.431	15180
913.545	15169
913.659	15306
913.772	15138
913.886	15104
914	15043
914.113	15039
914.226	15176
914.34	15055
914.453	14830
914.566	14986
914.68	14849
914.793	14956
914.906	14648
915.019	14560
915.132	14507
915.245	14549
915.358	14625
915.47	14670
915.583	14632
915.696	14617
915.809	14758
915.921	14716
916.034	14549
916.146	14518
916.259	14499
916.371	14606
916.483	14514
916.595	14507
916.708	14419
916.82	14396
916.932	14400
917.044	14347
917.156	14202
917.268	14278
917.38	14305
917.491	14263
917.603	14275
917.715	14317
917.826	14370
917.938	14218
918.049	14073
918.161	14206
918.272	14309
918.384	14343
918.495	14225
918.606	14046
918.717	14005
918.828	14008
918.939	14016
919.05	13993
919.161	13970
919.272	13807
919.383	13967
919.494	14107
919.604	14256
919.715	14005
919.826	13955
919.936	14012
920.047	14069
920.157	14020
920.267	14134
920.378	14065
920.488	14031
920.598	14119
920.708	14313
920.818	14134
920.928	14221
921.038	14370
921.148	14324
921.258	14081
921.368	13898
921.477	13704
921.587	13750
921.697	13624
921.806	13761
921.916	13559
922.025	13449
922.134	13422
922.244	13377
922.353	13384
922.462	13331
922.571	13244
922.68	13168
922.789	13012
922.898	13061
923.007	13057
923.116	12985
923.224	13118
923.333	12970
923.442	13031
923.55	12905
923.659	12875
923.767	13031
923.876	12894
923.984	12856
924.092	12722
924.201	12886
924.309	12783
924.417	12848
924.525	12738
924.633	12760
924.741	13506
924.849	12623
924.956	12665
925.064	12635
925.172	12467
925.279	12448
925.387	12506
925.494	12608
925.602	12669
925.709	12547
925.816	12418
925.924	12536
926.031	12517
926.138	12452
926.245	12544
926.352	12376
926.459	12452
926.566	12437
926.673	12384
926.779	12296
926.886	12232
926.993	12068
927.099	12087
927.206	12064
927.312	12064
927.419	12114
927.525	12068
927.631	12110
927.737	11969
927.843	11939
927.95	11908
928.056	11882
928.162	11866
928.267	11908
928.373	12582
928.479	11973
928.585	11764
928.69	11794
928.796	11809
928.901	11733
929.007	11623
929.112	11786
929.218	11771
929.323	11630
929.428	11646
929.533	11775
929.638	11570
929.743	11532
929.848	11589
929.953	11554
930.058	11573
930.163	11349
930.267	11391
930.372	11463
930.477	11364
930.581	11566
930.685	11455
930.79	11277
930.894	11292
930.998	11185
931.103	11299
931.207	10991
931.311	10946
931.415	10828
931.519	10694
931.623	10653
