Data from test_V78500241_3129.txt Node
Date: Fri Mar 25 15:31:38 CST 2022
User: usil
Spectrometer: V785-0024
Trigger mode: 0
Integration Time (sec): 4.000000E-1
Scans to average: 1
Nonlinearity correction enabled: false
Boxcar width: 0
Storing dark spectrum: false
XAxis mode: Wavelengths
Number of Pixels in Spectrum: 1024
>>>>>Begin Spectral Data<<<<<
801.071	27146
801.214	27154
801.356	26845
801.499	26739
801.641	26629
801.783	26648
801.926	26621
802.068	26708
802.211	26590
802.353	26499
802.496	26313
802.638	26305
802.78	26278
802.923	26092
803.065	26256
803.208	26077
803.35	26183
803.492	26404
803.635	26434
803.777	26351
803.919	26533
804.061	26731
804.204	26575
804.346	26366
804.488	26377
804.63	26442
804.773	26332
804.915	26503
805.057	26385
805.199	26320
805.341	26450
805.483	26640
805.626	26617
805.768	26412
805.91	26609
806.052	26465
806.194	26450
806.336	26541
806.478	26636
806.62	26408
806.762	26530
806.904	26765
807.046	27013
807.188	26880
807.33	26960
807.472	27089
807.614	26868
807.756	26952
807.898	26838
808.04	26739
808.182	26606
808.324	26708
808.465	26777
808.607	27024
808.749	27123
808.891	27036
809.033	27150
809.174	27127
809.316	27093
809.458	26986
809.6	27047
809.741	27154
809.883	27211
810.025	27420
810.166	27340
810.308	27332
810.45	27256
810.591	27329
810.733	27260
810.875	27032
811.016	27066
811.158	26994
811.299	27287
811.441	27146
811.582	27211
811.724	27062
811.865	26998
812.007	26921
812.148	26990
812.29	27085
812.431	27226
812.573	27538
812.714	27481
812.855	27519
812.997	27606
813.138	27694
813.279	27667
813.421	27496
813.562	27538
813.703	27492
813.845	27367
813.986	26971
814.127	26868
814.268	26765
814.41	26826
814.551	26823
814.692	26899
814.833	26693
814.974	26488
815.115	26773
815.256	26522
815.397	26564
815.539	26503
815.68	26598
815.821	26541
815.962	26492
816.103	26457
816.244	26412
816.385	26256
816.526	26229
816.666	26138
816.807	26069
816.948	26100
817.089	26168
817.23	25925
817.371	25989
817.512	25989
817.653	25986
817.793	26031
817.934	26039
818.075	25966
818.216	26103
818.356	25940
818.497	25742
818.638	25845
818.778	25635
818.919	25776
819.06	25864
819.2	25757
819.341	25883
819.481	25909
819.622	26096
819.762	26313
819.903	26229
820.043	26218
820.184	26046
820.324	26100
820.465	26122
820.605	25970
820.746	25966
820.886	25852
821.026	26130
821.167	25925
821.307	26088
821.447	26008
821.588	25932
821.728	25712
821.868	25643
822.008	25411
822.149	25472
822.289	25350
822.429	25160
822.569	25137
822.709	25198
822.849	24924
822.99	25019
823.13	25023
823.27	24844
823.41	24726
823.55	24597
823.69	24875
823.83	24711
823.97	24669
824.11	24566
824.25	24403
824.389	24517
824.529	24601
824.669	24502
824.809	24658
824.949	24688
825.089	24700
825.228	24498
825.368	24376
825.508	24403
825.648	24410
825.787	24665
825.927	24620
826.067	24490
826.206	24445
826.346	24528
826.485	24544
826.625	24441
826.765	24483
826.904	24498
827.044	24209
827.183	24235
827.323	24171
827.462	24289
827.601	24159
827.741	24125
827.88	24121
828.02	23984
828.159	24148
828.298	24129
828.437	24159
828.577	24049
828.716	24182
828.855	24064
828.994	23954
829.134	23760
829.273	23912
829.412	23828
829.551	23809
829.69	23847
829.829	23984
829.968	23946
830.107	23935
830.246	23950
830.385	23855
830.524	23901
830.663	23707
830.802	23657
830.941	23638
831.08	23505
831.219	23756
831.357	23661
831.496	23661
831.635	23383
831.774	23387
831.913	23318
832.051	23216
832.19	23170
832.329	23280
832.467	23185
832.606	22972
832.744	23033
832.883	23109
833.022	23162
833.16	23193
833.299	23151
833.437	23227
833.576	23246
833.714	23208
833.852	23284
833.991	23391
834.129	23296
834.267	23250
834.406	23136
834.544	23273
834.682	23162
834.821	23212
834.959	23349
835.097	23044
835.235	23269
835.373	23246
835.511	23223
835.65	23220
835.788	23090
835.926	22847
836.064	22854
836.202	22923
836.34	22995
836.478	23048
836.615	23025
836.753	23086
836.891	23159
837.029	23094
837.167	23147
837.305	22991
837.443	22953
837.58	22816
837.718	23010
837.856	22854
837.993	22908
838.131	22938
838.269	22911
838.406	22793
838.544	22824
838.681	22508
838.819	22569
838.956	22466
839.094	22363
839.231	22538
839.369	22512
839.506	22691
839.643	22687
839.781	22417
839.918	22333
840.055	22382
840.193	22352
840.33	22223
840.467	22314
840.604	22375
840.742	22569
840.879	22276
841.016	22261
841.153	22329
841.29	22462
841.427	22276
841.564	22272
841.701	22226
841.838	22265
841.975	22268
842.112	22337
842.249	22150
842.385	22051
842.522	22325
842.659	22192
842.796	22124
842.933	22082
843.069	22010
843.206	21972
843.343	22097
843.479	22109
843.616	22097
843.752	21846
843.889	21983
844.025	22025
844.162	21812
844.298	21884
844.435	21728
844.571	21865
844.708	21869
844.844	21888
844.98	21941
845.117	21960
845.253	21850
845.389	21694
845.525	21766
845.661	21682
845.798	21542
845.934	21781
846.07	21618
846.206	21641
846.342	21766
846.478	21553
846.614	21523
846.75	21313
846.886	21317
847.022	21485
847.158	21313
847.294	21458
847.429	21298
847.565	21230
847.701	21568
847.837	21127
847.972	21093
848.108	21131
848.244	21127
848.379	20975
848.515	20956
848.65	20941
848.786	20948
848.921	20891
849.057	21020
849.192	20921
849.328	20948
849.463	20845
849.598	20948
849.734	20895
849.869	20765
850.004	20636
850.14	20735
850.275	20682
850.41	20651
850.545	20686
850.68	20636
850.815	20716
850.95	20636
851.085	20845
851.22	20864
851.355	20777
851.49	20686
851.625	20712
851.76	20754
851.895	20640
852.03	20552
852.165	20769
852.299	20735
852.434	20792
852.569	20716
852.703	20621
852.838	20746
852.973	20777
853.107	20731
853.242	20682
853.376	20457
853.511	20511
853.645	20549
853.78	20720
853.914	20606
854.048	20499
854.183	20434
854.317	20522
854.451	20625
854.585	20537
854.72	20514
854.854	20484
854.988	20499
855.122	20579
855.256	20332
855.39	20492
855.524	20590
855.658	20541
855.792	20408
855.926	20514
856.06	20522
856.194	20636
856.327	20442
856.461	20473
856.595	20427
856.729	20465
856.862	20636
856.996	20640
857.13	20613
857.263	20682
857.397	20678
857.53	20438
857.664	20625
857.797	20545
857.931	20663
858.064	20575
858.197	20613
858.331	20549
858.464	20526
858.597	20457
858.731	20484
858.864	20507
858.997	20556
859.13	20533
859.263	20568
859.396	20609
859.529	20465
859.662	20480
859.795	20434
859.928	20499
860.061	20693
860.194	20830
860.327	20545
860.46	20575
860.592	20648
860.725	20693
860.858	20629
860.99	20541
861.123	20480
861.256	20377
861.388	20629
861.521	21077
861.653	20370
861.786	20305
861.918	20370
862.05	20339
862.183	20503
862.315	20545
862.447	20522
862.58	20438
862.712	20229
862.844	20191
862.976	20275
863.108	20385
863.24	20651
863.372	20126
863.504	20237
863.636	20244
863.768	20263
863.9	20210
864.032	20214
864.164	20191
864.296	20332
864.428	20313
864.559	20317
864.691	20278
864.823	20396
864.954	20252
865.086	20301
865.217	20157
865.349	20218
865.48	20130
865.612	20088
865.743	20180
865.875	20229
866.006	20138
866.137	20142
866.269	20126
866.4	20027
866.531	20180
866.662	20046
866.793	20058
866.924	20081
867.055	20046
867.186	20039
867.317	19982
867.448	20069
867.579	20058
867.71	20069
867.841	20039
867.972	20107
868.103	20069
868.233	20077
868.364	20138
868.495	20210
868.625	20434
868.756	20476
868.886	20233
869.017	20366
869.147	20450
869.278	20400
869.408	20305
869.539	20275
869.669	20492
869.799	20404
869.929	20370
870.06	20442
870.19	20621
870.32	20518
870.45	20697
870.58	20735
870.71	20910
870.84	20921
870.97	20781
871.1	20823
871.23	20918
871.36	20918
871.489	20845
871.619	20929
871.749	20842
871.879	21028
872.008	20963
872.138	21017
872.267	20914
872.397	20708
872.526	20838
872.656	20746
872.785	20724
872.915	21127
873.044	20998
873.173	20986
873.303	20944
873.432	20982
873.561	21100
873.69	20902
873.819	20925
873.948	21066
874.077	21119
874.206	20887
874.335	20925
874.464	21085
874.593	21264
874.722	21195
874.851	21321
874.979	21230
875.108	21127
875.237	21291
875.365	21127
875.494	21264
875.623	21287
875.751	21150
875.88	21283
876.008	21272
876.136	21344
876.265	21610
876.393	21751
876.521	21610
876.65	21538
876.778	21568
876.906	21583
877.034	21538
877.162	21462
877.29	21466
877.418	21610
877.546	21629
877.674	21557
877.802	21557
877.93	21564
878.058	21526
878.185	21370
878.313	21428
878.441	21519
878.568	21458
878.696	21576
878.824	21667
878.951	21519
879.079	21781
879.206	21838
879.333	21656
879.461	21614
879.588	21660
879.715	21751
879.842	21892
879.97	21606
880.097	21439
880.224	21367
880.351	21477
880.478	21374
880.605	21241
880.732	21389
880.859	21576
880.986	21530
881.112	21386
881.239	21154
881.366	21066
881.493	21028
881.619	20899
881.746	20971
881.872	20975
881.999	20857
882.125	20933
882.252	21043
882.378	20941
882.505	21142
882.631	20811
882.757	20712
882.883	20781
883.01	20564
883.136	20609
883.262	20659
883.388	20545
883.514	20602
883.64	20746
883.766	20674
883.892	20533
884.018	20423
884.143	20564
884.269	20670
884.395	20492
884.52	20339
884.646	20313
884.772	20328
884.897	20225
885.023	20324
885.148	20377
885.274	20518
885.399	20473
885.524	20286
885.65	20400
885.775	20324
885.9	20275
886.025	20362
886.15	20499
886.275	20202
886.4	20328
886.525	20199
886.65	20153
886.775	20199
886.9	20454
887.025	20514
887.149	20202
887.274	20157
887.399	20027
887.523	20035
887.648	20035
887.773	20016
887.897	20153
888.021	20092
888.146	19959
888.27	20263
888.395	20119
888.519	20172
888.643	20176
888.767	20107
888.891	20054
889.015	19913
889.139	19993
889.263	19932
889.387	20046
889.511	20176
889.635	19974
889.759	19841
889.883	19925
890.006	19871
890.13	19986
890.254	19734
890.377	19906
890.501	19784
890.624	19632
890.748	19674
890.871	19597
890.995	19468
891.118	19438
891.241	19533
891.364	19514
891.488	19639
891.611	19582
891.734	19472
891.857	19480
891.98	19445
892.103	19537
892.226	19495
892.349	19464
892.471	19384
892.594	19449
892.717	19472
892.839	19468
892.962	19339
893.085	19575
893.207	19434
893.33	19331
893.452	19266
893.575	19445
893.697	19369
893.819	19609
893.941	19620
894.064	19559
894.186	19331
894.308	19373
894.43	19487
894.552	19582
894.674	19445
894.796	19247
894.918	19369
895.04	19335
895.161	19529
895.283	19468
895.405	19445
895.526	19297
895.648	19460
895.769	19468
895.891	19377
896.012	19483
896.134	19518
896.255	19468
896.376	19430
896.498	19350
896.619	19441
896.74	19468
896.861	19521
896.982	19803
897.103	19909
897.224	19662
897.345	19693
897.466	19548
897.587	19635
897.708	19696
897.828	19734
897.949	19559
898.07	19540
898.19	19529
898.311	19670
898.431	19597
898.552	19586
898.672	19666
898.792	19772
898.913	19632
899.033	19548
899.153	19510
899.273	19354
899.393	19502
899.513	19499
899.633	19441
899.753	19419
899.873	19365
899.993	19346
900.113	19362
900.232	19396
900.352	19346
900.472	19202
900.591	19175
900.711	19164
900.83	19202
900.95	19335
901.069	19358
901.189	19110
901.308	18848
901.427	18764
901.546	18730
901.665	18703
901.784	18875
901.904	18726
902.023	18677
902.141	18342
902.26	18357
902.379	18403
902.498	18376
902.617	18281
902.735	18247
902.854	18327
902.973	18194
903.091	17980
903.21	17958
903.328	17984
903.446	17980
903.565	17783
903.683	17775
903.801	17748
903.919	17786
904.038	17824
904.156	17699
904.274	17512
904.392	17391
904.51	17524
904.627	17467
904.745	17608
904.863	17642
904.981	17414
905.098	17178
905.216	17220
905.334	17235
905.451	17208
905.569	17284
905.686	17269
905.803	17315
905.921	17022
906.038	17181
906.155	17025
906.272	17018
906.389	16957
906.506	16862
906.623	16790
906.74	16710
906.857	16767
906.974	16771
907.091	16892
907.208	16961
907.324	16862
907.441	16816
907.557	16523
907.674	16440
907.79	16394
907.907	16504
908.023	16508
908.139	16504
908.256	16455
908.372	16474
908.488	16424
908.604	16299
908.72	16265
908.836	16204
908.952	16177
909.068	16253
909.184	16390
909.3	16204
909.415	16379
909.531	16234
909.647	15968
909.762	15930
909.878	15937
909.993	15880
910.108	15979
910.224	15869
910.339	15888
910.454	15781
910.57	15709
910.685	15709
910.8	15979
910.915	15865
911.03	15743
911.145	15545
911.259	15519
911.374	15564
911.489	15424
911.604	15507
911.718	15256
911.833	15336
911.947	15214
912.062	15123
912.176	15275
912.291	15340
912.405	15176
912.519	15545
912.633	15469
912.748	15192
912.862	15192
912.976	15089
913.09	14986
913.204	15154
913.318	15051
913.431	15207
913.545	15211
913.659	15108
913.772	15116
913.886	15009
914	14864
914.113	15047
914.226	14979
914.34	14967
914.453	14785
914.566	14918
914.68	14826
914.793	14807
914.906	14644
915.019	14549
915.132	14507
915.245	14552
915.358	14514
915.47	14579
915.583	14454
915.696	14533
915.809	14644
915.921	14746
916.034	14518
916.146	14514
916.259	14457
916.371	14602
916.483	14556
916.595	14442
916.708	14347
916.82	14423
916.932	14332
917.044	14412
917.156	14355
917.268	14210
917.38	14199
917.491	14092
917.603	14214
917.715	14301
917.826	14404
917.938	14134
918.049	14096
918.161	14252
918.272	14275
918.384	14317
918.495	14218
918.606	14062
918.717	14054
918.828	14046
918.939	13951
919.05	13890
919.161	14027
919.272	13731
919.383	13875
919.494	14115
919.604	14290
919.715	14035
919.826	13940
919.936	13967
920.047	14027
920.157	13917
920.267	14157
920.378	14024
920.488	13928
920.598	14214
920.708	14317
920.818	14054
920.928	14176
921.038	14267
921.148	14237
921.258	14020
921.368	13864
921.477	13772
921.587	13868
921.697	13628
921.806	13708
921.916	13578
922.025	13426
922.134	13514
922.244	13438
922.353	13468
922.462	13407
922.571	13217
922.68	13149
922.789	13050
922.898	13046
923.007	12951
923.116	13076
923.224	12981
923.333	13019
923.442	12935
923.55	12833
923.659	12928
923.767	13008
923.876	12787
923.984	12939
924.092	12859
924.201	12886
924.309	12821
924.417	12779
924.525	12734
924.633	12749
924.741	13689
924.849	12551
924.956	12730
925.064	12574
925.172	12452
925.279	12585
925.387	12559
925.494	12551
925.602	12593
925.709	12616
925.816	12388
925.924	12441
926.031	12536
926.138	12502
926.245	12547
926.352	12388
926.459	12494
926.566	12540
926.673	12357
926.779	12342
926.886	12281
926.993	12133
927.099	12194
927.206	12106
927.312	12049
927.419	12133
927.525	12060
927.631	12178
927.737	12007
927.843	11980
927.95	11939
928.056	11946
928.162	11893
928.267	11965
928.373	12540
928.479	11965
928.585	11809
928.69	11840
928.796	11954
928.901	11866
929.007	11646
929.112	11798
929.218	11737
929.323	11752
929.428	11638
929.533	11714
929.638	11573
929.743	11535
929.848	11627
929.953	11585
930.058	11478
930.163	11387
930.267	11433
930.372	11505
930.477	11334
930.581	11543
930.685	11452
930.79	11284
930.894	11326
930.998	11223
931.103	11322
931.207	11052
931.311	10987
931.415	10843
931.519	10622
931.623	10603
