Data from test_V78500241_3386.txt Node
Date: Fri Mar 25 15:33:26 CST 2022
User: usil
Spectrometer: V785-0024
Trigger mode: 0
Integration Time (sec): 4.000000E-1
Scans to average: 1
Nonlinearity correction enabled: false
Boxcar width: 0
Storing dark spectrum: false
XAxis mode: Wavelengths
Number of Pixels in Spectrum: 1024
>>>>>Begin Spectral Data<<<<<
801.071	27188
801.214	27218
801.356	26921
801.499	26887
801.641	26861
801.783	26773
801.926	26925
802.068	26899
802.211	26773
802.353	26731
802.496	26469
802.638	26575
802.78	26476
802.923	26351
803.065	26396
803.208	26412
803.35	26465
803.492	26613
803.635	26667
803.777	26545
803.919	26511
804.061	26967
804.204	26712
804.346	26640
804.488	26644
804.63	26495
804.773	26488
804.915	26705
805.057	26689
805.199	26564
805.341	26686
805.483	26811
805.626	26769
805.768	26667
805.91	26735
806.052	26632
806.194	26625
806.336	26765
806.478	26720
806.62	26705
806.762	26765
806.904	26895
807.046	27207
807.188	27161
807.33	27093
807.472	27146
807.614	27085
807.756	27055
807.898	26963
808.04	26876
808.182	27028
808.324	26982
808.465	26986
808.607	27245
808.749	27256
808.891	27336
809.033	27325
809.174	27332
809.316	27104
809.458	27454
809.6	27230
809.741	27363
809.883	27469
810.025	27424
810.166	27549
810.308	27625
810.45	27701
810.591	27450
810.733	27222
810.875	27249
811.016	27310
811.158	27104
811.299	27306
811.441	27325
811.582	27477
811.724	27306
811.865	27249
812.007	27291
812.148	27230
812.29	27389
812.431	27450
812.573	27633
812.714	27614
812.855	27671
812.997	27785
813.138	27945
813.279	27907
813.421	27648
813.562	27694
813.703	27561
813.845	27382
813.986	27131
814.127	26967
814.268	26960
814.41	26982
814.551	26963
814.692	27081
814.833	26887
814.974	26838
815.115	26861
815.256	26807
815.397	26796
815.539	26861
815.68	26659
815.821	26678
815.962	26648
816.103	26564
816.244	26507
816.385	26453
816.526	26564
816.666	26240
816.807	26240
816.948	26355
817.089	26328
817.23	26381
817.371	26157
817.512	26161
817.653	26096
817.793	26081
817.934	26130
818.075	26233
818.216	26275
818.356	26180
818.497	25989
818.638	25932
818.778	25837
818.919	25875
819.06	26142
819.2	26183
819.341	26191
819.481	26092
819.622	26240
819.762	26667
819.903	26362
820.043	26366
820.184	26317
820.324	26358
820.465	26423
820.605	26450
820.746	26172
820.886	26210
821.026	26309
821.167	26240
821.307	26332
821.447	26164
821.588	26081
821.728	26050
821.868	25753
822.008	25651
822.149	25719
822.289	25518
822.429	25362
822.569	25358
822.709	25324
822.849	25152
822.99	25145
823.13	25190
823.27	25156
823.41	25057
823.55	24890
823.69	24985
823.83	25080
823.97	24890
824.11	24863
824.25	24696
824.389	24753
824.529	24806
824.669	24730
824.809	25000
824.949	24932
825.089	24890
825.228	24856
825.368	24578
825.508	24566
825.648	24612
825.787	24650
825.927	24722
826.067	24604
826.206	24589
826.346	24528
826.485	24730
826.625	24688
826.765	24776
826.904	24749
827.044	24403
827.183	24380
827.323	24399
827.462	24521
827.601	24300
827.741	24330
827.88	24407
828.02	24357
828.159	24327
828.298	24376
828.437	24494
828.577	24281
828.716	24471
828.855	24342
828.994	24079
829.134	24015
829.273	24110
829.412	24072
829.551	24030
829.69	24182
829.829	24190
829.968	24247
830.107	24079
830.246	24155
830.385	23984
830.524	24072
830.663	23927
830.802	23779
830.941	23741
831.08	23691
831.219	23859
831.357	23775
831.496	23916
831.635	23729
831.774	23570
831.913	23646
832.051	23573
832.19	23554
832.329	23539
832.467	23353
832.606	23303
832.744	23376
832.883	23311
833.022	23299
833.16	23360
833.299	23410
833.437	23414
833.576	23608
833.714	23383
833.852	23459
833.991	23558
834.129	23608
834.267	23551
834.406	23452
834.544	23551
834.682	23509
834.821	23337
834.959	23710
835.097	23478
835.235	23570
835.373	23436
835.511	23288
835.65	23364
835.788	23265
835.926	23212
836.064	23109
836.202	23136
836.34	23296
836.478	23414
836.615	23212
836.753	23398
836.891	23383
837.029	23277
837.167	23261
837.305	23197
837.443	23140
837.58	23079
837.718	23170
837.856	23083
837.993	23060
838.131	23227
838.269	23117
838.406	23159
838.544	22980
838.681	22790
838.819	22771
838.956	22523
839.094	22683
839.231	22866
839.369	22881
839.506	22908
839.643	22896
839.781	22577
839.918	22702
840.055	22538
840.193	22634
840.33	22550
840.467	22603
840.604	22675
840.742	22900
840.879	22352
841.016	22542
841.153	22443
841.29	22630
841.427	22538
841.564	22630
841.701	22504
841.838	22596
841.975	22447
842.112	22455
842.249	22428
842.385	22344
842.522	22599
842.659	22398
842.796	22341
842.933	22417
843.069	22344
843.206	22276
843.343	22504
843.479	22219
843.616	22291
843.752	22105
843.889	22299
844.025	22246
844.162	22051
844.298	22166
844.435	22021
844.571	22002
844.708	22268
844.844	22287
844.98	22211
845.117	22253
845.253	22013
845.389	21972
845.525	22082
845.661	21945
845.798	21785
845.934	21915
846.07	21720
846.206	21907
846.342	22055
846.478	21838
846.614	21713
846.75	21488
846.886	21561
847.022	21625
847.158	21618
847.294	21591
847.429	21599
847.565	21625
847.701	21770
847.837	21431
847.972	21370
848.108	21504
848.244	21431
848.379	21264
848.515	21214
848.65	21245
848.786	21256
848.921	21207
849.057	21214
849.192	21211
849.328	21207
849.463	21108
849.598	21138
849.734	21138
849.869	21081
850.004	20960
850.14	20941
850.275	20956
850.41	20861
850.545	21047
850.68	20994
850.815	20986
850.95	21005
851.085	21036
851.22	21032
851.355	20921
851.49	20933
851.625	20921
851.76	20925
851.895	20891
852.03	20864
852.165	20868
852.299	20910
852.434	21146
852.569	20899
852.703	20975
852.838	21028
852.973	21089
853.107	21017
853.242	20868
853.376	20785
853.511	20640
853.645	20724
853.78	20834
853.914	20712
854.048	20758
854.183	20670
854.317	20781
854.451	20864
854.585	20845
854.72	20765
854.854	20781
854.988	20838
855.122	20823
855.256	20640
855.39	20777
855.524	20826
855.658	20788
855.792	20826
855.926	20754
856.06	20651
856.194	20838
856.327	20807
856.461	20701
856.595	20769
856.729	20819
856.862	20891
856.996	20739
857.13	20845
857.263	20868
857.397	20853
857.53	20750
857.664	20868
857.797	20815
857.931	20864
858.064	20758
858.197	20914
858.331	20743
858.464	20746
858.597	20648
858.731	20689
858.864	20716
858.997	20731
859.13	20735
859.263	20746
859.396	20853
859.529	20716
859.662	20842
859.795	20731
859.928	20807
860.061	21036
860.194	20979
860.327	20765
860.46	20773
860.592	20872
860.725	20948
860.858	20899
860.99	20724
861.123	20678
861.256	20689
861.388	20834
861.521	21473
861.653	20644
861.786	20606
861.918	20492
862.05	20682
862.183	20674
862.315	20727
862.447	20720
862.58	20670
862.712	20450
862.844	20419
862.976	20594
863.108	20708
863.24	20830
863.372	20492
863.504	20549
863.636	20514
863.768	20499
863.9	20419
864.032	20385
864.164	20442
864.296	20533
864.428	20571
864.559	20499
864.691	20568
864.823	20419
864.954	20370
865.086	20400
865.217	20431
865.349	20313
865.48	20358
865.612	20400
865.743	20507
865.875	20446
866.006	20347
866.137	20305
866.269	20404
866.4	20358
866.531	20199
866.662	20282
866.793	20256
866.924	20305
867.055	20290
867.186	20366
867.317	20210
867.448	20214
867.579	20298
867.71	20221
867.841	20286
867.972	20320
868.103	20324
868.233	20271
868.364	20355
868.495	20381
868.625	20457
868.756	20602
868.886	20495
869.017	20522
869.147	20644
869.278	20640
869.408	20533
869.539	20594
869.669	20526
869.799	20678
869.929	20674
870.06	20617
870.19	20819
870.32	20929
870.45	20849
870.58	20975
870.71	21058
870.84	21100
870.97	20948
871.1	20937
871.23	21218
871.36	21135
871.489	21055
871.619	21195
871.749	21104
871.879	21100
872.008	21325
872.138	21138
872.267	21108
872.397	21051
872.526	21070
872.656	21165
872.785	21077
872.915	21226
873.044	21359
873.173	21169
873.303	21199
873.432	21222
873.561	21275
873.69	21211
873.819	21291
873.948	21302
874.077	21207
874.206	21119
874.335	21150
874.464	21424
874.593	21496
874.722	21310
874.851	21367
874.979	21523
875.108	21428
875.237	21466
875.365	21344
875.494	21378
875.623	21534
875.751	21298
875.88	21469
876.008	21523
876.136	21743
876.265	21846
876.393	21888
876.521	21975
876.65	21956
876.778	21804
876.906	21827
877.034	21789
877.162	21770
877.29	21724
877.418	21781
877.546	21774
877.674	21743
877.802	21823
877.93	21816
878.058	21842
878.185	21720
878.313	21614
878.441	21857
878.568	21485
878.696	21751
878.824	21797
878.951	21975
879.079	21895
879.206	22166
879.333	21865
879.461	21899
879.588	21816
879.715	22048
879.842	22112
879.97	21842
880.097	21675
880.224	21663
880.351	21675
880.478	21603
880.605	21568
880.732	21595
880.859	21865
880.986	21553
881.112	21561
881.239	21428
881.366	21332
881.493	21348
881.619	21222
881.746	21218
881.872	21203
881.999	21131
882.125	21058
882.252	21089
882.378	21108
882.505	21283
882.631	21093
882.757	20887
882.883	20849
883.01	20891
883.136	20864
883.262	20796
883.388	20792
883.514	20777
883.64	20876
883.766	20769
883.892	20705
884.018	20739
884.143	20918
884.269	21017
884.395	20609
884.52	20587
884.646	20632
884.772	20560
884.897	20473
885.023	20575
885.148	20621
885.274	20815
885.399	20739
885.524	20545
885.65	20640
885.775	20594
885.9	20602
886.025	20568
886.15	20705
886.275	20419
886.4	20423
886.525	20568
886.65	20389
886.775	20442
886.9	20621
887.025	20621
887.149	20537
887.274	20328
887.399	20214
887.523	20282
887.648	20206
887.773	20351
887.897	20461
888.021	20427
888.146	20180
888.27	20434
888.395	20347
888.519	20358
888.643	20286
888.767	20434
888.891	20290
889.015	20145
889.139	20176
889.263	20115
889.387	20282
889.511	20309
889.635	20275
889.759	20111
889.883	19982
890.006	20229
890.13	20187
890.254	20054
890.377	20138
890.501	19868
890.624	19852
890.748	19917
890.871	19704
890.995	19582
891.118	19700
891.241	19845
891.364	19715
891.488	19822
891.611	19662
891.734	19738
891.857	19693
891.98	19681
892.103	19613
892.226	19757
892.349	19651
892.471	19518
892.594	19586
892.717	19708
892.839	19658
892.962	19666
893.085	19635
893.207	19575
893.33	19449
893.452	19556
893.575	19731
893.697	19620
893.819	19719
893.941	19765
894.064	19765
894.186	19624
894.308	19616
894.43	19788
894.552	19772
894.674	19693
894.796	19460
894.918	19567
895.04	19757
895.161	19670
895.283	19666
895.405	19590
895.526	19594
895.648	19628
895.769	19582
895.891	19674
896.012	19727
896.134	19723
896.255	19685
896.376	19635
896.498	19476
896.619	19712
896.74	19620
896.861	19616
896.982	19925
897.103	20138
897.224	19940
897.345	19852
897.466	19689
897.587	19795
897.708	19898
897.828	19849
897.949	19811
898.07	19616
898.19	19715
898.311	19959
898.431	19830
898.552	19761
898.672	19917
898.792	19830
898.913	19780
899.033	19731
899.153	19635
899.273	19586
899.393	19624
899.513	19575
899.633	19639
899.753	19639
899.873	19491
899.993	19552
900.113	19559
900.232	19597
900.352	19552
900.472	19506
900.591	19297
900.711	19396
900.83	19316
900.95	19324
901.069	19434
901.189	19331
901.308	19118
901.427	18924
901.546	19057
901.665	19027
901.784	19046
901.904	18905
902.023	18696
902.141	18521
902.26	18483
902.379	18555
902.498	18532
902.617	18498
902.735	18551
902.854	18407
902.973	18365
903.091	18106
903.21	18270
903.328	18315
903.446	18152
903.565	18015
903.683	17969
903.801	17840
903.919	17912
904.038	17897
904.156	17794
904.274	17748
904.392	17779
904.51	17589
904.627	17726
904.745	17783
904.863	17908
904.981	17490
905.098	17558
905.216	17433
905.334	17452
905.451	17414
905.569	17360
905.686	17436
905.803	17440
905.921	17216
906.038	17254
906.155	17220
906.272	17159
906.389	17181
906.506	17025
906.623	17010
906.74	17022
906.857	16790
906.974	16987
907.091	16942
907.208	17117
907.324	16991
907.441	16873
907.557	16687
907.674	16778
907.79	16691
907.907	16672
908.023	16645
908.139	16790
908.256	16656
908.372	16573
908.488	16497
908.604	16481
908.72	16394
908.836	16341
908.952	16386
909.068	16424
909.184	16478
909.3	16459
909.415	16424
909.531	16451
909.647	16181
909.762	16032
909.878	16063
909.993	16078
910.108	16124
910.224	16097
910.339	16101
910.454	15979
910.57	15899
910.685	15899
910.8	16101
910.915	16188
911.03	15854
911.145	15808
911.259	15720
911.374	15701
911.489	15584
911.604	15675
911.718	15378
911.833	15500
911.947	15382
912.062	15260
912.176	15431
912.291	15454
912.405	15477
912.519	15622
912.633	15633
912.748	15618
912.862	15367
912.976	15351
913.09	15146
913.204	15173
913.318	15291
913.431	15386
913.545	15408
913.659	15374
913.772	15272
913.886	15176
914	15062
914.113	15214
914.226	15203
914.34	15142
914.453	15093
914.566	15165
914.68	15020
914.793	14967
914.906	14830
915.019	14743
915.132	14648
915.245	14731
915.358	14758
915.47	14678
915.583	14686
915.696	14697
915.809	14826
915.921	14838
916.034	14606
916.146	14541
916.259	14648
916.371	14636
916.483	14621
916.595	14511
916.708	14617
916.82	14613
916.932	14465
917.044	14571
917.156	14492
917.268	14450
917.38	14423
917.491	14427
917.603	14423
917.715	14446
917.826	14549
917.938	14400
918.049	14244
918.161	14347
918.272	14499
918.384	14530
918.495	14336
918.606	14107
918.717	14073
918.828	14092
918.939	14271
919.05	14111
919.161	14214
919.272	13921
919.383	13967
919.494	14218
919.604	14377
919.715	14153
919.826	14081
919.936	14043
920.047	14142
920.157	14065
920.267	14252
920.378	14145
920.488	14005
920.598	14218
920.708	14434
920.818	14301
920.928	14263
921.038	14423
921.148	14336
921.258	14058
921.368	14065
921.477	13940
921.587	13925
921.697	13712
921.806	13860
921.916	13723
922.025	13582
922.134	13506
922.244	13453
922.353	13529
922.462	13457
922.571	13392
922.68	13179
922.789	13076
922.898	13278
923.007	13232
923.116	13179
923.224	13209
923.333	13091
923.442	13069
923.55	13015
923.659	12985
923.767	13053
923.876	12932
923.984	13088
924.092	12817
924.201	12924
924.309	12913
924.417	12913
924.525	12878
924.633	12806
924.741	13776
924.849	12692
924.956	12730
925.064	12612
925.172	12559
925.279	12597
925.387	12631
925.494	12521
925.602	12768
925.709	12578
925.816	12433
925.924	12521
926.031	12623
926.138	12486
926.245	12566
926.352	12513
926.459	12555
926.566	12616
926.673	12521
926.779	12357
926.886	12395
926.993	12155
927.099	12148
927.206	12285
927.312	12167
927.419	12140
927.525	12091
927.631	12224
927.737	11984
927.843	12106
927.95	11931
928.056	11999
928.162	12022
928.267	11992
928.373	12608
928.479	12083
928.585	11794
928.69	11965
928.796	12060
928.901	11935
929.007	11752
929.112	11851
929.218	11809
929.323	11809
929.428	11745
929.533	11828
929.638	11676
929.743	11752
929.848	11695
929.953	11661
930.058	11566
930.163	11440
930.267	11318
930.372	11501
930.477	11391
930.581	11592
930.685	11490
930.79	11356
930.894	11334
930.998	11223
931.103	11482
931.207	11181
931.311	10991
931.415	10885
931.519	10736
931.623	10759
