Data from test_V78500241_2118.txt Node
Date: Fri Mar 25 15:24:36 CST 2022
User: usil
Spectrometer: V785-0024
Trigger mode: 0
Integration Time (sec): 4.000000E-1
Scans to average: 1
Nonlinearity correction enabled: false
Boxcar width: 0
Storing dark spectrum: false
XAxis mode: Wavelengths
Number of Pixels in Spectrum: 1024
>>>>>Begin Spectral Data<<<<<
801.071	27663
801.214	27739
801.356	27370
801.499	27481
801.641	27245
801.783	27370
801.926	27462
802.068	27252
802.211	27142
802.353	27154
802.496	26940
802.638	26876
802.78	26925
802.923	26804
803.065	26963
803.208	26849
803.35	26982
803.492	27009
803.635	27074
803.777	27005
803.919	27131
804.061	27439
804.204	27230
804.346	27127
804.488	27070
804.63	27173
804.773	27032
804.915	27119
805.057	27169
805.199	26868
805.341	27294
805.483	27252
805.626	27211
805.768	27222
805.91	27317
806.052	27374
806.194	27260
806.336	27313
806.478	27207
806.62	27439
806.762	27443
806.904	27458
807.046	27717
807.188	27686
807.33	27603
807.472	27679
807.614	27603
807.756	27561
807.898	27450
808.04	27443
808.182	27500
808.324	27542
808.465	27523
808.607	27739
808.749	27785
808.891	28017
809.033	28097
809.174	27892
809.316	27793
809.458	27743
809.6	27789
809.741	27914
809.883	27880
810.025	28204
810.166	28067
810.308	28105
810.45	28124
810.591	28154
810.733	28002
810.875	27774
811.016	27610
811.158	27804
811.299	27930
811.441	27960
811.582	27953
811.724	27850
811.865	27816
812.007	27812
812.148	27865
812.29	27876
812.431	28128
812.573	28204
812.714	28177
812.855	28287
812.997	28497
813.138	28557
813.279	28436
813.421	28242
813.562	28268
813.703	28185
813.845	27888
813.986	27922
814.127	27728
814.268	27595
814.41	27473
814.551	27591
814.692	27705
814.833	27450
814.974	27477
815.115	27637
815.256	27500
815.397	27587
815.539	27526
815.68	27306
815.821	27287
815.962	27252
816.103	27287
816.244	27351
816.385	27154
816.526	27043
816.666	26918
816.807	26811
816.948	26857
817.089	26883
817.23	26956
817.371	26773
817.512	26857
817.653	26807
817.793	26785
817.934	26769
818.075	26826
818.216	26906
818.356	26815
818.497	26682
818.638	26590
818.778	26560
818.919	26621
819.06	26590
819.2	26731
819.341	26872
819.481	26838
819.622	26891
819.762	27104
819.903	26990
820.043	27017
820.184	26914
820.324	26853
820.465	26937
820.605	26902
820.746	26929
820.886	26712
821.026	26750
821.167	26857
821.307	26994
821.447	26769
821.588	26674
821.728	26549
821.868	26362
822.008	26244
822.149	26271
822.289	26225
822.429	25925
822.569	25871
822.709	25921
822.849	25826
822.99	25742
823.13	25677
823.27	25738
823.41	25525
823.55	25647
823.69	25594
823.83	25643
823.97	25487
824.11	25392
824.25	25228
824.389	25365
824.529	25514
824.669	25308
824.809	25571
824.949	25518
825.089	25483
825.228	25506
825.368	25339
825.508	25225
825.648	25457
825.787	25331
825.927	25388
826.067	25164
826.206	25297
826.346	25293
826.485	25301
826.625	25259
826.765	25434
826.904	25335
827.044	25122
827.183	25129
827.323	25042
827.462	25152
827.601	24992
827.741	25019
827.88	25046
828.02	24882
828.159	24985
828.298	25000
828.437	25122
828.577	25004
828.716	25023
828.855	24905
828.994	24646
829.134	24604
829.273	24802
829.412	24768
829.551	24688
829.69	24760
829.829	24715
829.968	24730
830.107	24871
830.246	24787
830.385	24802
830.524	24692
830.663	24490
830.802	24384
830.941	24403
831.08	24357
831.219	24266
831.357	24357
831.496	24528
831.635	24266
831.774	24311
831.913	24186
832.051	24159
832.19	24087
832.329	24232
832.467	24049
832.606	24007
832.744	23939
832.883	24007
833.022	23961
833.16	23935
833.299	23984
833.437	24038
833.576	24041
833.714	24018
833.852	23988
833.991	24133
834.129	24114
834.267	24197
834.406	23973
834.544	24102
834.682	24053
834.821	24038
834.959	24163
835.097	24011
835.235	24079
835.373	24015
835.511	23996
835.65	23961
835.788	23916
835.926	23786
836.064	23661
836.202	23737
836.34	23878
836.478	24034
836.615	23882
836.753	23699
836.891	23893
837.029	23897
837.167	23870
837.305	23722
837.443	23786
837.58	23726
837.718	23767
837.856	23741
837.993	23672
838.131	23634
838.269	23615
838.406	23596
838.544	23478
838.681	23322
838.819	23341
838.956	23083
839.094	23121
839.231	23322
839.369	23193
839.506	23581
839.643	23474
839.781	23162
839.918	23094
840.055	23197
840.193	23250
840.33	23041
840.467	23086
840.604	23159
840.742	23516
840.879	22911
841.016	23079
841.153	22927
841.29	23185
841.427	23094
841.564	23113
841.701	23136
841.838	23006
841.975	23037
842.112	22942
842.249	22919
842.385	22812
842.522	23128
842.659	22805
842.796	22812
842.933	22881
843.069	22854
843.206	22828
843.343	22847
843.479	22847
843.616	22892
843.752	22645
843.889	22550
844.025	22778
844.162	22569
844.298	22733
844.435	22649
844.571	22577
844.708	22656
844.844	22771
844.98	22687
845.117	22702
845.253	22523
845.389	22398
845.525	22470
845.661	22367
845.798	22352
845.934	22474
846.07	22352
846.206	22485
846.342	22474
846.478	22322
846.614	22185
846.75	22101
846.886	22063
847.022	22200
847.158	22093
847.294	22086
847.429	22234
847.565	22040
847.701	22402
847.837	21793
847.972	21953
848.108	21956
848.244	21960
848.379	21766
848.515	21679
848.65	21743
848.786	21629
848.921	21747
849.057	21724
849.192	21641
849.328	21717
849.463	21618
849.598	21667
849.734	21629
849.869	21538
850.004	21393
850.14	21412
850.275	21458
850.41	21374
850.545	21260
850.68	21325
850.815	21519
850.95	21393
851.085	21629
851.22	21515
851.355	21393
851.49	21515
851.625	21439
851.76	21492
851.895	21264
852.03	21272
852.165	21428
852.299	21374
852.434	21557
852.569	21500
852.703	21416
852.838	21511
852.973	21545
853.107	21454
853.242	21412
853.376	21264
853.511	21077
853.645	21325
853.78	21447
853.914	21332
854.048	21203
854.183	21245
854.317	21420
854.451	21439
854.585	21294
854.72	21169
854.854	21275
854.988	21279
855.122	21279
855.256	21138
855.39	21355
855.524	21313
855.658	21378
855.792	21325
855.926	21279
856.06	21218
856.194	21302
856.327	21306
856.461	21302
856.595	21298
856.729	21184
856.862	21355
856.996	21252
857.13	21348
857.263	21313
857.397	21302
857.53	21226
857.664	21378
857.797	21378
857.931	21397
858.064	21218
858.197	21241
858.331	21241
858.464	21127
858.597	21157
858.731	21291
858.864	21199
858.997	21260
859.13	21203
859.263	21199
859.396	21313
859.529	21211
859.662	21249
859.795	21252
859.928	21264
860.061	21367
860.194	21572
860.327	21378
860.46	21135
860.592	21329
860.725	21485
860.858	21310
860.99	21222
861.123	21245
861.256	21252
861.388	21249
861.521	21991
861.653	20998
861.786	21123
861.918	21043
862.05	21226
862.183	21169
862.315	21192
862.447	21306
862.58	21207
862.712	21024
862.844	20998
862.976	21104
863.108	21043
863.24	21405
863.372	20937
863.504	21013
863.636	20956
863.768	21188
863.9	20982
864.032	20906
864.164	20800
864.296	21036
864.428	21188
864.559	21039
864.691	20986
864.823	20902
864.954	20994
865.086	20899
865.217	21001
865.349	20807
865.48	20849
865.612	20857
865.743	21024
865.875	20880
866.006	20868
866.137	20807
866.269	20811
866.4	20800
866.531	20754
866.662	20792
866.793	20758
866.924	20788
867.055	20823
867.186	20883
867.317	20804
867.448	20746
867.579	20785
867.71	20712
867.841	20678
867.972	20830
868.103	20682
868.233	20883
868.364	20769
868.495	20883
868.625	20956
868.756	21074
868.886	20902
869.017	21001
869.147	21176
869.278	21093
869.408	21074
869.539	21058
869.669	21058
869.799	21154
869.929	21119
870.06	21230
870.19	21363
870.32	21321
870.45	21287
870.58	21302
870.71	21648
870.84	21462
870.97	21485
871.1	21526
871.23	21606
871.36	21667
871.489	21530
871.619	21606
871.749	21603
871.879	21648
872.008	21682
872.138	21667
872.267	21724
872.397	21519
872.526	21408
872.656	21553
872.785	21428
872.915	21804
873.044	21648
873.173	21682
873.303	21701
873.432	21686
873.561	21846
873.69	21705
873.819	21549
873.948	21717
874.077	21690
874.206	21694
874.335	21622
874.464	21705
874.593	21937
874.722	21903
874.851	21880
874.979	21956
875.108	21945
875.237	21838
875.365	21705
875.494	21850
875.623	21876
875.751	21823
875.88	21903
876.008	22059
876.136	22120
876.265	22238
876.393	22394
876.521	22272
876.65	22268
876.778	22265
876.906	22105
877.034	22223
877.162	22226
877.29	22234
877.418	22238
877.546	22230
877.674	22200
877.802	22105
877.93	22185
878.058	22169
878.185	22124
878.313	22128
878.441	22226
878.568	21994
878.696	22120
878.824	22268
878.951	22230
879.079	22344
879.206	22500
879.333	22367
879.461	22291
879.588	22367
879.715	22470
879.842	22451
879.97	22242
880.097	22044
880.224	22093
880.351	22036
880.478	21895
880.605	22025
880.732	21949
880.859	22310
880.986	21991
881.112	21998
881.239	21994
881.366	21842
881.493	21709
881.619	21641
881.746	21595
881.872	21671
881.999	21576
882.125	21633
882.252	21781
882.378	21641
882.505	21679
882.631	21542
882.757	21256
882.883	21397
883.01	21336
883.136	21211
883.262	21203
883.388	21184
883.514	21294
883.64	21367
883.766	21157
883.892	21112
884.018	21112
884.143	21272
884.269	21370
884.395	21150
884.52	20941
884.646	21039
884.772	20948
884.897	20819
885.023	21005
885.148	20937
885.274	21100
885.399	21043
885.524	20960
885.65	20948
885.775	20994
885.9	21062
886.025	20963
886.15	21074
886.275	20944
886.4	20804
886.525	20918
886.65	20925
886.775	20849
886.9	21020
887.025	21146
887.149	20921
887.274	20807
887.399	20765
887.523	20773
887.648	20769
887.773	20560
887.897	20807
888.021	20773
888.146	20583
888.27	20754
888.395	20906
888.519	20727
888.643	20811
888.767	20868
888.891	20556
889.015	20552
889.139	20590
889.263	20484
889.387	20629
889.511	20762
889.635	20579
889.759	20465
889.883	20530
890.006	20434
890.13	20663
890.254	20503
890.377	20431
890.501	20278
890.624	20317
890.748	20294
890.871	20286
890.995	20111
891.118	20138
891.241	20073
891.364	20180
891.488	20229
891.611	20157
891.734	20012
891.857	20092
891.98	20149
892.103	20111
892.226	20050
892.349	20100
892.471	19822
892.594	19970
892.717	20012
892.839	20115
892.962	19894
893.085	20107
893.207	19967
893.33	19757
893.452	19909
893.575	20005
893.697	19894
893.819	20149
893.941	20122
894.064	20145
894.186	20043
894.308	19856
894.43	20005
894.552	20115
894.674	20046
894.796	19967
894.918	20027
895.04	20020
895.161	20081
895.283	20081
895.405	19902
895.526	20005
895.648	20092
895.769	20077
895.891	20168
896.012	20126
896.134	20134
896.255	19959
896.376	20046
896.498	19955
896.619	20115
896.74	20180
896.861	20069
896.982	20389
897.103	20503
897.224	20320
897.345	20180
897.466	20218
897.587	20305
897.708	20317
897.828	20275
897.949	20145
898.07	20065
898.19	20134
898.311	20317
898.431	20164
898.552	20157
898.672	20259
898.792	20298
898.913	20221
899.033	20130
899.153	19909
899.273	19887
899.393	20039
899.513	20050
899.633	20039
899.753	20058
899.873	19868
899.993	20012
900.113	19913
900.232	19879
900.352	19978
900.472	19811
900.591	19746
900.711	19731
900.83	19677
900.95	19780
901.069	19845
901.189	19635
901.308	19609
901.427	19346
901.546	19419
901.665	19381
901.784	19384
901.904	19133
902.023	19179
902.141	18939
902.26	18905
902.379	18954
902.498	18890
902.617	18779
902.735	18837
902.854	18779
902.973	18825
903.091	18536
903.21	18551
903.328	18665
903.446	18452
903.565	18384
903.683	18247
903.801	18247
903.919	18209
904.038	18346
904.156	18068
904.274	18201
904.392	18083
904.51	18087
904.627	18098
904.745	18060
904.863	18152
904.981	17965
905.098	17767
905.216	17710
905.334	17745
905.451	17805
905.569	17775
905.686	17870
905.803	17676
905.921	17543
906.038	17676
906.155	17672
906.272	17509
906.389	17387
906.506	17303
906.623	17345
906.74	17406
906.857	17166
906.974	17189
907.091	17356
907.208	17360
907.324	17356
907.441	17212
907.557	16999
907.674	16980
907.79	17033
907.907	16957
908.023	17033
908.139	17124
908.256	16934
908.372	16824
908.488	16767
908.604	16797
908.72	16850
908.836	16717
908.952	16717
909.068	16774
909.184	16896
909.3	16710
909.415	16797
909.531	16725
909.647	16558
909.762	16497
909.878	16421
909.993	16413
910.108	16382
910.224	16379
910.339	16405
910.454	16284
910.57	16276
910.685	16166
910.8	16485
910.915	16287
911.03	16299
911.145	16059
911.259	15956
911.374	16059
911.489	15956
911.604	15895
911.718	15831
911.833	15774
911.947	15766
912.062	15576
912.176	15732
912.291	15838
912.405	15789
912.519	15953
912.633	16002
912.748	15827
912.862	15766
912.976	15542
913.09	15488
913.204	15587
913.318	15549
913.431	15656
913.545	15682
913.659	15686
913.772	15542
913.886	15458
914	15439
914.113	15450
914.226	15473
914.34	15424
914.453	15310
914.566	15492
914.68	15332
914.793	15245
914.906	15150
915.019	14956
915.132	14963
915.245	14998
915.358	14986
915.47	15028
915.583	15036
915.696	15009
915.809	15081
915.921	15116
916.034	14933
916.146	14960
916.259	14914
916.371	14918
916.483	14990
916.595	14948
916.708	14861
916.82	14872
916.932	14815
917.044	14682
917.156	14815
917.268	14606
917.38	14629
917.491	14678
917.603	14735
917.715	14792
917.826	14724
917.938	14617
918.049	14556
918.161	14655
918.272	14686
918.384	14716
918.495	14659
918.606	14473
918.717	14339
918.828	14461
918.939	14480
919.05	14347
919.161	14412
919.272	14210
919.383	14244
919.494	14530
919.604	14541
919.715	14469
919.826	14328
919.936	14396
920.047	14446
920.157	14465
920.267	14621
920.378	14381
920.488	14358
920.598	14648
920.708	14682
920.818	14503
920.928	14621
921.038	14708
921.148	14568
921.258	14393
921.368	14263
921.477	14130
921.587	14073
921.697	13963
921.806	14180
921.916	13913
922.025	13959
922.134	13807
922.244	13670
922.353	13795
922.462	13674
922.571	13613
922.68	13415
922.789	13400
922.898	13411
923.007	13384
923.116	13403
923.224	13415
923.333	13419
923.442	13381
923.55	13209
923.659	13190
923.767	13282
923.876	13213
923.984	13324
924.092	13232
924.201	13202
924.309	13187
924.417	13187
924.525	13088
924.633	13031
924.741	13757
924.849	12935
924.956	13057
925.064	12901
925.172	12802
925.279	12913
925.387	12958
925.494	12856
925.602	12913
925.709	12901
925.816	12734
925.924	12802
926.031	12875
926.138	12760
926.245	12844
926.352	12696
926.459	12863
926.566	12810
926.673	12589
926.779	12566
926.886	12597
926.993	12467
927.099	12448
927.206	12315
927.312	12319
927.419	12376
927.525	12460
927.631	12441
927.737	12410
927.843	12289
927.95	12167
928.056	12273
928.162	12190
928.267	12346
928.373	12871
928.479	12292
928.585	12102
928.69	12201
928.796	12258
928.901	12068
929.007	12026
929.112	12076
929.218	11999
929.323	11969
929.428	11980
929.533	12106
929.638	11935
929.743	11931
929.848	11996
929.953	11870
930.058	11745
930.163	11733
930.267	11638
930.372	11786
930.477	11589
930.581	11798
930.685	11745
930.79	11539
930.894	11573
930.998	11478
931.103	11573
931.207	11322
931.311	11258
931.415	11136
931.519	10972
931.623	10881
