Data from test_V78500241_837.txt Node
Date: Fri Mar 25 15:15:41 CST 2022
User: usil
Spectrometer: V785-0024
Trigger mode: 0
Integration Time (sec): 4.000000E-1
Scans to average: 1
Nonlinearity correction enabled: false
Boxcar width: 0
Storing dark spectrum: false
XAxis mode: Wavelengths
Number of Pixels in Spectrum: 1024
>>>>>Begin Spectral Data<<<<<
801.071	28223
801.214	28253
801.356	28105
801.499	28074
801.641	27960
801.783	27816
801.926	27918
802.068	27838
802.211	27804
802.353	27827
802.496	27587
802.638	27431
802.78	27447
802.923	27401
803.065	27435
803.208	27511
803.35	27469
803.492	27530
803.635	27770
803.777	27553
803.919	27694
804.061	28101
804.204	27797
804.346	27603
804.488	27576
804.63	27641
804.773	27694
804.915	27671
805.057	27941
805.199	27732
805.341	27770
805.483	27865
805.626	27762
805.768	27808
805.91	27922
806.052	27949
806.194	27667
806.336	28036
806.478	28021
806.62	27819
806.762	28025
806.904	28207
807.046	28341
807.188	28169
807.33	28318
807.472	28352
807.614	28413
807.756	28261
807.898	28219
808.04	28204
808.182	28162
808.324	28181
808.465	28158
808.607	28367
808.749	28367
808.891	28596
809.033	28656
809.174	28554
809.316	28641
809.458	28687
809.6	28603
809.741	28599
809.883	28634
810.025	28839
810.166	28793
810.308	28831
810.45	28771
810.591	28725
810.733	28607
810.875	28466
811.016	28314
811.158	28421
811.299	28649
811.441	28653
811.582	28771
811.724	28622
811.865	28603
812.007	28641
812.148	28668
812.29	28603
812.431	28778
812.573	28938
812.714	29208
812.855	29162
812.997	29220
813.138	29299
813.279	29212
813.421	29090
813.562	29117
813.703	29022
813.845	28824
813.986	28538
814.127	28382
814.268	28284
814.41	28390
814.551	28318
814.692	28409
814.833	28150
814.974	28192
815.115	28325
815.256	28063
815.397	28272
815.539	28166
815.68	28162
815.821	27930
815.962	27994
816.103	28158
816.244	27918
816.385	27804
816.526	27941
816.666	27538
816.807	27572
816.948	27770
817.089	27679
817.23	27652
817.371	27572
817.512	27595
817.653	27572
817.793	27412
817.934	27496
818.075	27690
818.216	27724
818.356	27637
818.497	27523
818.638	27268
818.778	27332
818.919	27283
819.06	27317
819.2	27538
819.341	27701
819.481	27568
819.622	27747
819.762	27857
819.903	27808
820.043	27633
820.184	27667
820.324	27800
820.465	27694
820.605	27766
820.746	27709
820.886	27663
821.026	27641
821.167	27717
821.307	27808
821.447	27690
821.588	27447
821.728	27359
821.868	27233
822.008	27119
822.149	27116
822.289	26990
822.429	26705
822.569	26811
822.709	26697
822.849	26541
822.99	26549
823.13	26473
823.27	26541
823.41	26400
823.55	26183
823.69	26507
823.83	26400
823.97	26278
824.11	26153
824.25	26149
824.389	26130
824.529	26271
824.669	26130
824.809	26400
824.949	26271
825.089	26389
825.228	26313
825.368	26031
825.508	26115
825.648	26176
825.787	26320
825.927	26107
826.067	26077
826.206	25986
826.346	26214
826.485	26043
826.625	26142
826.765	26309
826.904	26290
827.044	25856
827.183	25799
827.323	25772
827.462	25822
827.601	25875
827.741	25864
827.88	25818
828.02	25639
828.159	25841
828.298	25864
828.437	25887
828.577	25677
828.716	25818
828.855	25704
828.994	25563
829.134	25597
829.273	25601
829.412	25632
829.551	25468
829.69	25510
829.829	25582
829.968	25571
830.107	25453
830.246	25514
830.385	25537
830.524	25369
830.663	25373
830.802	25244
830.941	25114
831.08	25183
831.219	25259
831.357	25259
831.496	25365
831.635	25171
831.774	25091
831.913	25065
832.051	25012
832.19	24909
832.329	24894
832.467	24654
832.606	24817
832.744	24738
832.883	24844
833.022	24852
833.16	24772
833.299	24958
833.437	24943
833.576	24844
833.714	24932
833.852	24867
833.991	24882
834.129	24951
834.267	24943
834.406	24753
834.544	24882
834.682	24867
834.821	24837
834.959	25099
835.097	24798
835.235	24989
835.373	24977
835.511	24844
835.65	24661
835.788	24665
835.926	24593
836.064	24486
836.202	24559
836.34	24783
836.478	24700
836.615	24616
836.753	24677
836.891	24795
837.029	24722
837.167	24597
837.305	24597
837.443	24597
837.58	24475
837.718	24627
837.856	24597
837.993	24418
838.131	24475
838.269	24300
838.406	24441
838.544	24327
838.681	24201
838.819	24098
838.956	23977
839.094	23942
839.231	23977
839.369	24243
839.506	24346
839.643	24159
839.781	23809
839.918	23950
840.055	23843
840.193	23904
840.33	23859
840.467	23870
840.604	23927
840.742	24220
840.879	23589
841.016	23684
841.153	23790
841.29	23961
841.427	23935
841.564	23904
841.701	23809
841.838	23805
841.975	23851
842.112	23657
842.249	23783
842.385	23699
842.522	23805
842.659	23741
842.796	23554
842.933	23585
843.069	23524
843.206	23623
843.343	23741
843.479	23649
843.616	23627
843.752	23353
843.889	23455
844.025	23577
844.162	23505
844.298	23414
844.435	23425
844.571	23455
844.708	23638
844.844	23676
844.98	23349
845.117	23570
845.253	23402
845.389	23296
845.525	23330
845.661	23307
845.798	23075
845.934	23162
846.07	23132
846.206	23258
846.342	23269
846.478	23162
846.614	22972
846.75	22725
846.886	22900
847.022	22847
847.158	22968
847.294	22911
847.429	22927
847.565	22847
847.701	23052
847.837	22538
847.972	22713
848.108	22710
848.244	22710
848.379	22546
848.515	22485
848.65	22436
848.786	22352
848.921	22447
849.057	22565
849.192	22599
849.328	22462
849.463	22481
849.598	22295
849.734	22356
849.869	22257
850.004	22234
850.14	22276
850.275	22215
850.41	22196
850.545	22173
850.68	22147
850.815	22185
850.95	22204
851.085	22352
851.22	22322
851.355	22242
851.49	22242
851.625	22200
851.76	22086
851.895	22200
852.03	22139
852.165	22105
852.299	22341
852.434	22341
852.569	22280
852.703	22215
852.838	22310
852.973	22325
853.107	22238
853.242	22226
853.376	22173
853.511	21823
853.645	21991
853.78	22188
853.914	22029
854.048	21941
854.183	21987
854.317	22109
854.451	22135
854.585	22139
854.72	22101
854.854	22139
854.988	22051
855.122	22135
855.256	21979
855.39	21918
855.524	22177
855.658	22048
855.792	22082
855.926	22059
856.06	22097
856.194	22078
856.327	22082
856.461	21960
856.595	21998
856.729	21975
856.862	22044
856.996	22238
857.13	22185
857.263	22154
857.397	22021
857.53	22006
857.664	22093
857.797	22002
857.931	22154
858.064	22055
858.197	22131
858.331	22036
858.464	21857
858.597	21983
858.731	22017
858.864	21975
858.997	21945
859.13	21903
859.263	22032
859.396	22078
859.529	22090
859.662	22086
859.795	22021
859.928	22078
860.061	22169
860.194	22154
860.327	22147
860.46	22017
860.592	22086
860.725	22333
860.858	22131
860.99	22017
861.123	22025
861.256	21823
861.388	22143
861.521	22877
861.653	21800
861.786	21778
861.918	22025
862.05	21869
862.183	21964
862.315	22090
862.447	22006
862.58	21960
862.712	21797
862.844	21766
862.976	21838
863.108	21907
863.24	22196
863.372	21679
863.504	21732
863.636	21682
863.768	21857
863.9	21781
864.032	21766
864.164	21774
864.296	21759
864.428	21793
864.559	21800
864.691	21838
864.823	21743
864.954	21625
865.086	21701
865.217	21797
865.349	21618
865.48	21587
865.612	21698
865.743	21800
865.875	21629
866.006	21618
866.137	21698
866.269	21534
866.4	21542
866.531	21526
866.662	21469
866.793	21564
866.924	21644
867.055	21488
867.186	21462
867.317	21553
867.448	21306
867.579	21397
867.71	21481
867.841	21504
867.972	21633
868.103	21507
868.233	21492
868.364	21701
868.495	21663
868.625	21705
868.756	21838
868.886	21800
869.017	21804
869.147	21953
869.278	21926
869.408	21827
869.539	21797
869.669	21857
869.799	21880
869.929	21869
870.06	21838
870.19	22105
870.32	22097
870.45	22074
870.58	22120
870.71	22341
870.84	22333
870.97	22173
871.1	22169
871.23	22386
871.36	22382
871.489	22181
871.619	22246
871.749	22348
871.879	22402
872.008	22565
872.138	22303
872.267	22436
872.397	22226
872.526	22177
872.656	22173
872.785	22299
872.915	22306
873.044	22409
873.173	22348
873.303	22527
873.432	22546
873.561	22470
873.69	22386
873.819	22367
873.948	22478
874.077	22485
874.206	22478
874.335	22310
874.464	22466
874.593	22622
874.722	22599
874.851	22580
874.979	22542
875.108	22675
875.237	22596
875.365	22527
875.494	22630
875.623	22656
875.751	22504
875.88	22622
876.008	22752
876.136	22774
876.265	23086
876.393	23162
876.521	23147
876.65	22972
876.778	23003
876.906	22919
877.034	22930
877.162	23014
877.29	22934
877.418	23071
877.546	23003
877.674	22927
877.802	22953
877.93	22900
878.058	22881
878.185	22965
878.313	22961
878.441	22930
878.568	22793
878.696	23014
878.824	22980
878.951	23071
879.079	23174
879.206	23322
879.333	23143
879.461	22850
879.588	23124
879.715	23128
879.842	23277
879.97	23022
880.097	22850
880.224	22782
880.351	22599
880.478	22904
880.605	22694
880.732	22672
880.859	22946
880.986	22729
881.112	22771
881.239	22497
881.366	22470
881.493	22405
881.619	22276
881.746	22402
881.872	22242
881.999	22390
882.125	22207
882.252	22451
882.378	22284
882.505	22462
882.631	22131
882.757	22090
882.883	22032
883.01	22070
883.136	22044
883.262	21865
883.388	21759
883.514	22074
883.64	22055
883.766	21876
883.892	21797
884.018	21876
884.143	21880
884.269	21987
884.395	21682
884.52	21538
884.646	21876
884.772	21523
884.897	21549
885.023	21614
885.148	21663
885.274	21766
885.399	21785
885.524	21652
885.65	21641
885.775	21614
885.9	21603
886.025	21778
886.15	21789
886.275	21739
886.4	21462
886.525	21713
886.65	21610
886.775	21591
886.9	21679
887.025	21827
887.149	21618
887.274	21534
887.399	21416
887.523	21412
887.648	21393
887.773	21279
887.897	21599
888.021	21488
888.146	21507
888.27	21568
888.395	21488
888.519	21500
888.643	21504
888.767	21530
888.891	21401
889.015	21184
889.139	21287
889.263	21279
889.387	21302
889.511	21412
889.635	21340
889.759	21275
889.883	21161
890.006	21230
890.13	21310
890.254	21173
890.377	21055
890.501	20937
890.624	21020
890.748	20979
890.871	20990
890.995	20864
891.118	20781
891.241	20769
891.364	20887
891.488	20979
891.611	20800
891.734	20864
891.857	20785
891.98	20792
892.103	20769
892.226	20708
892.349	20705
892.471	20499
892.594	20777
892.717	20697
892.839	20560
892.962	20648
893.085	20682
893.207	20731
893.33	20507
893.452	20651
893.575	20632
893.697	20609
893.819	20754
893.941	20872
894.064	20842
894.186	20590
894.308	20568
894.43	20754
894.552	20861
894.674	20636
894.796	20495
894.918	20606
895.04	20613
895.161	20667
895.283	20739
895.405	20526
895.526	20667
895.648	20587
895.769	20541
895.891	20811
896.012	20659
896.134	20693
896.255	20636
896.376	20621
896.498	20746
896.619	20594
896.74	20655
896.861	20667
896.982	21020
897.103	21032
897.224	20967
897.345	20880
897.466	20925
897.587	20960
897.708	21017
897.828	20861
897.949	20830
898.07	20735
898.19	20762
898.311	20826
898.431	20689
898.552	20887
898.672	20918
898.792	20895
898.913	20811
899.033	20716
899.153	20682
899.273	20537
899.393	20663
899.513	20632
899.633	20552
899.753	20602
899.873	20476
899.993	20579
900.113	20644
900.232	20541
900.352	20473
900.472	20575
900.591	20343
900.711	20423
900.83	20400
900.95	20400
901.069	20450
901.189	20271
901.308	20012
901.427	19856
901.546	19917
901.665	20016
901.784	19887
901.904	19795
902.023	19696
902.141	19559
902.26	19464
902.379	19624
902.498	19457
902.617	19346
902.735	19548
902.854	19491
902.973	19327
903.091	19187
903.21	19126
903.328	19103
903.446	19031
903.565	18993
903.683	18920
903.801	18814
903.919	18916
904.038	18791
904.156	18700
904.274	18772
904.392	18722
904.51	18616
904.627	18612
904.745	18776
904.863	18677
904.981	18506
905.098	18323
905.216	18372
905.334	18437
905.451	18308
905.569	18323
905.686	18369
905.803	18258
905.921	18216
906.038	18361
906.155	18064
906.272	18030
906.389	18110
906.506	17908
906.623	17927
906.74	17855
906.857	17737
906.974	17851
907.091	17946
907.208	18053
907.324	17931
907.441	17779
907.557	17699
907.674	17604
907.79	17558
907.907	17535
908.023	17649
908.139	17680
908.256	17596
908.372	17463
908.488	17543
908.604	17330
908.72	17379
908.836	17284
908.952	17376
909.068	17436
909.184	17471
909.3	17277
909.415	17280
909.531	17235
909.647	17083
909.762	17083
909.878	17029
909.993	17025
910.108	16934
910.224	17022
910.339	17003
910.454	16908
910.57	16850
910.685	16797
910.8	17079
910.915	17014
911.03	16877
911.145	16672
911.259	16531
911.374	16618
911.489	16542
911.604	16500
911.718	16314
911.833	16356
911.947	16261
912.062	16120
912.176	16299
912.291	16348
912.405	16223
912.519	16516
912.633	16459
912.748	16261
912.862	16287
912.976	16112
913.09	16097
913.204	16090
913.318	16162
913.431	16223
913.545	16253
913.659	16135
913.772	16082
913.886	15888
914	15949
914.113	16025
914.226	16116
914.34	16078
914.453	15884
914.566	15892
914.68	15812
914.793	15789
914.906	15618
915.019	15587
915.132	15542
915.245	15435
915.358	15553
915.47	15572
915.583	15515
915.696	15591
915.809	15648
915.921	15713
916.034	15401
916.146	15359
916.259	15428
916.371	15534
916.483	15447
916.595	15351
916.708	15412
916.82	15306
916.932	15359
917.044	15313
917.156	15287
917.268	15173
917.38	15207
917.491	15203
917.603	15184
917.715	15199
917.826	15317
917.938	15116
918.049	14948
918.161	15184
918.272	15249
918.384	15233
918.495	15039
918.606	14937
918.717	14804
918.828	14941
918.939	14899
919.05	14902
919.161	14929
919.272	14682
919.383	14720
919.494	14876
919.604	15241
919.715	14952
919.826	14834
919.936	14857
920.047	14963
920.157	14853
920.267	14963
920.378	14895
920.488	14823
920.598	15039
920.708	15104
920.818	14952
920.928	15028
921.038	15100
921.148	15116
921.258	14868
921.368	14800
921.477	14712
921.587	14587
921.697	14552
921.806	14640
921.916	14366
922.025	14267
922.134	14225
922.244	14252
922.353	14294
922.462	14138
922.571	14195
922.68	13940
922.789	13860
922.898	13932
923.007	13887
923.116	13928
923.224	13803
923.333	13776
923.442	13769
923.55	13658
923.659	13712
923.767	13784
923.876	13670
923.984	13784
924.092	13571
924.201	13613
924.309	13628
924.417	13643
924.525	13552
924.633	13605
924.741	14434
924.849	13388
924.956	13426
925.064	13270
925.172	13171
925.279	13293
925.387	13251
925.494	13301
925.602	13403
925.709	13419
925.816	13179
925.924	13149
926.031	13343
926.138	13175
926.245	13251
926.352	13110
926.459	13312
926.566	13278
926.673	13080
926.779	13004
926.886	12966
926.993	12928
927.099	12757
927.206	12817
927.312	12764
927.419	12863
927.525	12867
927.631	12753
927.737	12817
927.843	12749
927.95	12635
928.056	12608
928.162	12612
928.267	12631
928.373	13251
928.479	12749
928.585	12380
928.69	12646
928.796	12681
928.901	12566
929.007	12369
929.112	12502
929.218	12448
929.323	12350
929.428	12350
929.533	12494
929.638	12342
929.743	12350
929.848	12422
929.953	12292
930.058	12262
930.163	11996
930.267	12076
930.372	12110
930.477	11984
930.581	12216
930.685	12041
930.79	11980
930.894	11984
930.998	11912
931.103	12098
931.207	11657
931.311	11516
931.415	11493
931.519	11318
931.623	11261
