Data from test_V78500241_1064.txt Node
Date: Fri Mar 25 15:17:16 CST 2022
User: usil
Spectrometer: V785-0024
Trigger mode: 0
Integration Time (sec): 4.000000E-1
Scans to average: 1
Nonlinearity correction enabled: false
Boxcar width: 0
Storing dark spectrum: false
XAxis mode: Wavelengths
Number of Pixels in Spectrum: 1024
>>>>>Begin Spectral Data<<<<<
801.071	28295
801.214	28128
801.356	27937
801.499	27903
801.641	27747
801.783	27698
801.926	27732
802.068	27743
802.211	27614
802.353	27580
802.496	27386
802.638	27279
802.78	27443
802.923	27382
803.065	27230
803.208	27184
803.35	27317
803.492	27462
803.635	27583
803.777	27393
803.919	27644
804.061	27972
804.204	27633
804.346	27511
804.488	27439
804.63	27603
804.773	27576
804.915	27641
805.057	27762
805.199	27576
805.341	27709
805.483	27720
805.626	27781
805.768	27614
805.91	27736
806.052	27778
806.194	27648
806.336	27888
806.478	27747
806.62	27629
806.762	27804
806.904	27945
807.046	28234
807.188	28013
807.33	28086
807.472	28162
807.614	28131
807.756	28150
807.898	28139
808.04	27937
808.182	27987
808.324	27926
808.465	28040
808.607	28059
808.749	28310
808.891	28314
809.033	28401
809.174	28413
809.316	28421
809.458	28375
809.6	28287
809.741	28459
809.883	28481
810.025	28641
810.166	28557
810.308	28679
810.45	28729
810.591	28493
810.733	28413
810.875	28280
811.016	28177
811.158	28226
811.299	28592
811.441	28428
811.582	28409
811.724	28291
811.865	28348
812.007	28417
812.148	28440
812.29	28375
812.431	28584
812.573	28797
812.714	28793
812.855	28843
812.997	29018
813.138	29113
813.279	28995
813.421	28869
813.562	28782
813.703	28774
813.845	28694
813.986	28325
814.127	28310
814.268	28025
814.41	28325
814.551	27945
814.692	28010
814.833	27991
814.974	27987
815.115	28021
815.256	28086
815.397	27888
815.539	27941
815.68	27869
815.821	27690
815.962	27930
816.103	27876
816.244	27728
816.385	27728
816.526	27686
816.666	27591
816.807	27416
816.948	27462
817.089	27431
817.23	27336
817.371	27458
817.512	27336
817.653	27564
817.793	27249
817.934	27511
818.075	27401
818.216	27294
818.356	27435
818.497	27096
818.638	27131
818.778	27207
818.919	27135
819.06	27142
819.2	27249
819.341	27386
819.481	27370
819.622	27564
819.762	27747
819.903	27557
820.043	27622
820.184	27553
820.324	27553
820.465	27530
820.605	27557
820.746	27633
820.886	27355
821.026	27500
821.167	27515
821.307	27515
821.447	27458
821.588	27237
821.728	27287
821.868	26918
822.008	26902
822.149	26849
822.289	26769
822.429	26674
822.569	26560
822.709	26522
822.849	26320
822.99	26343
823.13	26434
823.27	26305
823.41	26225
823.55	26050
823.69	26286
823.83	26180
823.97	26278
824.11	26103
824.25	26024
824.389	26039
824.529	26100
824.669	26126
824.809	26103
824.949	26153
825.089	26168
825.228	26111
825.368	25856
825.508	26020
825.648	26005
825.787	25921
825.927	25978
826.067	25856
826.206	25864
826.346	26035
826.485	25959
826.625	25989
826.765	26058
826.904	25898
827.044	25635
827.183	25757
827.323	25594
827.462	25723
827.601	25548
827.741	25605
827.88	25632
828.02	25514
828.159	25624
828.298	25651
828.437	25734
828.577	25658
828.716	25772
828.855	25529
828.994	25400
829.134	25415
829.273	25301
829.412	25251
829.551	25259
829.69	25320
829.829	25422
829.968	25358
830.107	25426
830.246	25358
830.385	25301
830.524	25171
830.663	25263
830.802	25084
830.941	25031
831.08	24977
831.219	25012
831.357	25038
831.496	25164
831.635	25065
831.774	24916
831.913	24958
832.051	24840
832.19	24783
832.329	24875
832.467	24654
832.606	24681
832.744	24582
832.883	24620
833.022	24700
833.16	24768
833.299	24741
833.437	24673
833.576	24719
833.714	24677
833.852	24905
833.991	24924
834.129	24829
834.267	24814
834.406	24726
834.544	24844
834.682	24616
834.821	24772
834.959	24783
835.097	24703
835.235	24783
835.373	24646
835.511	24867
835.65	24601
835.788	24528
835.926	24544
836.064	24460
836.202	24452
836.34	24658
836.478	24703
836.615	24486
836.753	24616
836.891	24639
837.029	24513
837.167	24456
837.305	24502
837.443	24384
837.58	24399
837.718	24563
837.856	24528
837.993	24399
838.131	24376
838.269	24213
838.406	24372
838.544	24258
838.681	24159
838.819	24030
838.956	23863
839.094	23767
839.231	23935
839.369	24015
839.506	24117
839.643	24064
839.781	23794
839.918	23756
840.055	23859
840.193	23733
840.33	23783
840.467	23718
840.604	23935
840.742	24053
840.879	23771
841.016	23653
841.153	23627
841.29	23931
841.427	23741
841.564	23790
841.701	23756
841.838	23794
841.975	23703
842.112	23611
842.249	23581
842.385	23486
842.522	23634
842.659	23634
842.796	23547
842.933	23467
843.069	23490
843.206	23531
843.343	23585
843.479	23551
843.616	23608
843.752	23322
843.889	23299
844.025	23482
844.162	23337
844.298	23440
844.435	23269
844.571	23235
844.708	23410
844.844	23433
844.98	23395
845.117	23398
845.253	23250
845.389	23231
845.525	23185
845.661	23212
845.798	23006
845.934	23086
846.07	23060
846.206	23044
846.342	23170
846.478	22949
846.614	22911
846.75	22733
846.886	22786
847.022	22729
847.158	22843
847.294	22812
847.429	22824
847.565	22672
847.701	22847
847.837	22679
847.972	22424
848.108	22557
848.244	22637
848.379	22424
848.515	22257
848.65	22295
848.786	22447
848.921	22268
849.057	22428
849.192	22405
849.328	22478
849.463	22512
849.598	22352
849.734	22234
849.869	22112
850.004	22143
850.14	22192
850.275	22166
850.41	22188
850.545	22021
850.68	22063
850.815	22196
850.95	22082
851.085	22306
851.22	22223
851.355	22196
851.49	22139
851.625	22105
851.76	21907
851.895	21945
852.03	21991
852.165	22109
852.299	22059
852.434	22139
852.569	22124
852.703	22173
852.838	22196
852.973	22310
853.107	22021
853.242	22059
853.376	22025
853.511	22002
853.645	22002
853.78	22112
853.914	21949
854.048	21816
854.183	21964
854.317	21994
854.451	22124
854.585	21926
854.72	21960
854.854	22086
854.988	21774
855.122	22013
855.256	21705
855.39	21915
855.524	21998
855.658	22021
855.792	21956
855.926	21884
856.06	21873
856.194	22059
856.327	21922
856.461	21827
856.595	21972
856.729	21956
856.862	22116
856.996	21941
857.13	21983
857.263	21895
857.397	21892
857.53	21930
857.664	22010
857.797	22090
857.931	22044
858.064	21979
858.197	22017
858.331	21854
858.464	21903
858.597	21922
858.731	21979
858.864	22013
858.997	21903
859.13	21987
859.263	21850
859.396	22029
859.529	21930
859.662	21930
859.795	21869
859.928	21816
860.061	22093
860.194	22188
860.327	22036
860.46	21937
860.592	22006
860.725	22124
860.858	22040
860.99	21987
861.123	21911
861.256	21964
861.388	21895
861.521	22733
861.653	21865
861.786	21762
861.918	21804
862.05	21766
862.183	21987
862.315	21960
862.447	22040
862.58	21766
862.712	21660
862.844	21545
862.976	21785
863.108	21808
863.24	22120
863.372	21488
863.504	21686
863.636	21625
863.768	21739
863.9	21663
864.032	21557
864.164	21568
864.296	21728
864.428	21793
864.559	21671
864.691	21675
864.823	21629
864.954	21561
865.086	21553
865.217	21561
865.349	21469
865.48	21675
865.612	21603
865.743	21587
865.875	21553
866.006	21523
866.137	21587
866.269	21603
866.4	21572
866.531	21500
866.662	21485
866.793	21454
866.924	21488
867.055	21515
867.186	21504
867.317	21416
867.448	21477
867.579	21462
867.71	21367
867.841	21507
867.972	21538
868.103	21447
868.233	21507
868.364	21435
868.495	21458
868.625	21717
868.756	21827
868.886	21610
869.017	21644
869.147	21785
869.278	21865
869.408	21755
869.539	21762
869.669	21736
869.799	21781
869.929	21903
870.06	21892
870.19	21937
870.32	21857
870.45	22021
870.58	22086
870.71	22337
870.84	22234
870.97	22181
871.1	22116
871.23	22261
871.36	22291
871.489	22169
871.619	22295
871.749	22211
871.879	22306
872.008	22405
872.138	22306
872.267	22238
872.397	22158
872.526	22093
872.656	22128
872.785	22025
872.915	22265
873.044	22474
873.173	22280
873.303	22348
873.432	22318
873.561	22284
873.69	22185
873.819	22303
873.948	22314
874.077	22352
874.206	22268
874.335	22226
874.464	22196
874.593	22519
874.722	22512
874.851	22485
874.979	22596
875.108	22577
875.237	22523
875.365	22375
875.494	22478
875.623	22550
875.751	22470
875.88	22561
876.008	22592
876.136	22599
876.265	22866
876.393	22942
876.521	23010
876.65	23044
876.778	22881
876.906	22892
877.034	22809
877.162	22858
877.29	22908
877.418	22831
877.546	22725
877.674	22881
877.802	22843
877.93	22900
878.058	22843
878.185	22725
878.313	22786
878.441	22801
878.568	22694
878.696	22843
878.824	22938
878.951	22984
879.079	23006
879.206	23162
879.333	22965
879.461	23094
879.588	22892
879.715	23014
879.842	23284
879.97	22949
880.097	22698
880.224	22634
880.351	22763
880.478	22767
880.605	22736
880.732	22679
880.859	22892
880.986	22706
881.112	22679
881.239	22603
881.366	22478
881.493	22432
881.619	22257
881.746	22329
881.872	22249
881.999	22268
882.125	22192
882.252	22200
882.378	22249
882.505	22405
882.631	22070
882.757	21827
882.883	22051
883.01	21975
883.136	21930
883.262	21797
883.388	21770
883.514	21930
883.64	21930
883.766	21842
883.892	21675
884.018	21698
884.143	21816
884.269	22025
884.395	21667
884.52	21473
884.646	21637
884.772	21587
884.897	21439
885.023	21538
885.148	21694
885.274	21686
885.399	21622
885.524	21694
885.65	21542
885.775	21572
885.9	21644
886.025	21663
886.15	21622
886.275	21496
886.4	21439
886.525	21648
886.65	21587
886.775	21469
886.9	21637
887.025	21709
887.149	21561
887.274	21386
887.399	21367
887.523	21359
887.648	21336
887.773	21207
887.897	21447
888.021	21466
888.146	21370
888.27	21492
888.395	21306
888.519	21443
888.643	21405
888.767	21294
888.891	21192
889.015	21180
889.139	21245
889.263	21051
889.387	21207
889.511	21389
889.635	21256
889.759	21112
889.883	21249
890.006	21108
890.13	21180
890.254	21089
890.377	21108
890.501	21005
890.624	20853
890.748	20933
890.871	20826
890.995	20689
891.118	20621
891.241	20659
891.364	20746
891.488	20830
891.611	20750
891.734	20788
891.857	20769
891.98	20769
892.103	20686
892.226	20648
892.349	20640
892.471	20461
892.594	20667
892.717	20800
892.839	20564
892.962	20590
893.085	20621
893.207	20575
893.33	20526
893.452	20571
893.575	20663
893.697	20613
893.819	20765
893.941	20682
894.064	20762
894.186	20552
894.308	20590
894.43	20697
894.552	20724
894.674	20632
894.796	20522
894.918	20598
895.04	20480
895.161	20644
895.283	20602
895.405	20457
895.526	20640
895.648	20545
895.769	20621
895.891	20636
896.012	20625
896.134	20522
896.255	20560
896.376	20526
896.498	20492
896.619	20667
896.74	20636
896.861	20533
896.982	20891
897.103	21070
897.224	20819
897.345	20686
897.466	20746
897.587	20773
897.708	20937
897.828	20876
897.949	20689
898.07	20644
898.19	20773
898.311	20887
898.431	20750
898.552	20765
898.672	20823
898.792	20773
898.913	20785
899.033	20689
899.153	20571
899.273	20415
899.393	20526
899.513	20556
899.633	20549
899.753	20431
899.873	20446
899.993	20541
900.113	20415
900.232	20514
900.352	20408
900.472	20393
900.591	20225
900.711	20347
900.83	20271
900.95	20317
901.069	20336
901.189	20081
901.308	19898
901.427	19940
901.546	19826
901.665	19875
901.784	19913
901.904	19757
902.023	19742
902.141	19540
902.26	19487
902.379	19491
902.498	19480
902.617	19396
902.735	19407
902.854	19373
902.973	19266
903.091	19133
903.21	19023
903.328	19065
903.446	18905
903.565	18795
903.683	18787
903.801	18677
903.919	18852
904.038	18878
904.156	18646
904.274	18719
904.392	18566
904.51	18540
904.627	18532
904.745	18574
904.863	18635
904.981	18388
905.098	18426
905.216	18311
905.334	18292
905.451	18315
905.569	18281
905.686	18330
905.803	18213
905.921	18087
906.038	18144
906.155	18060
906.272	18015
906.389	17912
906.506	17843
906.623	17870
906.74	17855
906.857	17802
906.974	17760
907.091	17927
907.208	17939
907.324	17805
907.441	17752
907.557	17623
907.674	17478
907.79	17490
907.907	17558
908.023	17604
908.139	17433
908.256	17467
908.372	17410
908.488	17406
908.604	17360
908.72	17220
908.836	17311
908.952	17277
909.068	17284
909.184	17341
909.3	17212
909.415	17239
909.531	17178
909.647	17006
909.762	16953
909.878	16961
909.993	16961
910.108	16961
910.224	16896
910.339	16873
910.454	16858
910.57	16831
910.685	16698
910.8	16965
910.915	16881
911.03	16679
911.145	16596
911.259	16561
911.374	16504
911.489	16478
911.604	16333
911.718	16219
911.833	16276
911.947	16135
912.062	16032
912.176	16253
912.291	16253
912.405	16226
912.519	16424
912.633	16546
912.748	16325
912.862	16230
912.976	16063
913.09	16143
913.204	15960
913.318	16071
913.431	16135
913.545	16173
913.659	16101
913.772	15994
913.886	16021
914	15823
914.113	15972
914.226	16048
914.34	16055
914.453	15778
914.566	15960
914.68	15865
914.793	15732
914.906	15591
915.019	15412
915.132	15420
915.245	15420
915.358	15553
915.47	15511
915.583	15584
915.696	15431
915.809	15534
915.921	15595
916.034	15351
916.146	15252
916.259	15340
916.371	15443
916.483	15321
916.595	15302
916.708	15275
916.82	15420
916.932	15294
917.044	15195
917.156	15310
917.268	15138
917.38	15104
917.491	15032
917.603	15077
917.715	15176
917.826	15268
917.938	15028
918.049	14956
918.161	15047
918.272	15195
918.384	15150
918.495	15043
918.606	14880
918.717	14849
918.828	14834
918.939	14880
919.05	14773
919.161	14876
919.272	14651
919.383	14739
919.494	14853
919.604	15077
919.715	14788
919.826	14815
919.936	14765
920.047	14910
920.157	14914
920.267	14963
920.378	14815
920.488	14765
920.598	14979
920.708	15062
920.818	14994
920.928	14929
921.038	15017
921.148	15005
921.258	14689
921.368	14701
921.477	14613
921.587	14545
921.697	14450
921.806	14571
921.916	14332
922.025	14282
922.134	14195
922.244	14202
922.353	14259
922.462	13997
922.571	14096
922.68	13928
922.789	13875
922.898	13715
923.007	13742
923.116	13833
923.224	13734
923.333	13685
923.442	13704
923.55	13582
923.659	13689
923.767	13712
923.876	13601
923.984	13681
924.092	13594
924.201	13544
924.309	13514
924.417	13544
924.525	13449
924.633	13495
924.741	14404
924.849	13263
924.956	13369
925.064	13217
925.172	13126
925.279	13228
925.387	13297
925.494	13164
925.602	13247
925.709	13221
925.816	13126
925.924	13255
926.031	13198
926.138	13225
926.245	13171
926.352	13080
926.459	13160
926.566	13213
926.673	13129
926.779	12993
926.886	12973
926.993	12802
927.099	12886
927.206	12696
927.312	12738
927.419	12825
927.525	12798
927.631	12814
927.737	12639
927.843	12688
927.95	12513
928.056	12574
928.162	12669
928.267	12631
928.373	13141
928.479	12601
928.585	12395
928.69	12490
928.796	12673
928.901	12456
929.007	12315
929.112	12422
929.218	12372
929.323	12323
929.428	12292
929.533	12350
929.638	12300
929.743	12289
929.848	12262
929.953	12247
930.058	12114
930.163	11984
930.267	12003
930.372	12098
930.477	11965
930.581	12087
930.685	12110
930.79	11870
930.894	11809
930.998	11874
931.103	12060
931.207	11592
931.311	11592
931.415	11474
931.519	11246
931.623	11273
