Data from test_V78500241_1014.txt Node
Date: Fri Mar 25 15:16:55 CST 2022
User: usil
Spectrometer: V785-0024
Trigger mode: 0
Integration Time (sec): 4.000000E-1
Scans to average: 1
Nonlinearity correction enabled: false
Boxcar width: 0
Storing dark spectrum: false
XAxis mode: Wavelengths
Number of Pixels in Spectrum: 1024
>>>>>Begin Spectral Data<<<<<
801.071	28242
801.214	28234
801.356	27983
801.499	28032
801.641	27755
801.783	27880
801.926	28002
802.068	27644
802.211	27751
802.353	27774
802.496	27542
802.638	27709
802.78	27454
802.923	27477
803.065	27397
803.208	27553
803.35	27591
803.492	27656
803.635	27690
803.777	27629
803.919	27694
804.061	28025
804.204	27747
804.346	27732
804.488	27595
804.63	27641
804.773	27637
804.915	27762
805.057	27816
805.199	27713
805.341	27785
805.483	27804
805.626	27945
805.768	27766
805.91	27895
806.052	27884
806.194	27884
806.336	28017
806.478	27949
806.62	27907
806.762	28082
806.904	28150
807.046	28455
807.188	28253
807.33	28394
807.472	28238
807.614	28150
807.756	28379
807.898	28268
808.04	28070
808.182	28055
808.324	28200
808.465	28101
808.607	28299
808.749	28569
808.891	28531
809.033	28713
809.174	28596
809.316	28538
809.458	28641
809.6	28470
809.741	28687
809.883	28691
810.025	29033
810.166	28816
810.308	28892
810.45	28771
810.591	28706
810.733	28519
810.875	28519
811.016	28481
811.158	28493
811.299	28637
811.441	28694
811.582	28755
811.724	28497
811.865	28561
812.007	28557
812.148	28557
812.29	28664
812.431	28812
812.573	28805
812.714	29052
812.855	29079
812.997	29208
813.138	29258
813.279	29181
813.421	29102
813.562	29071
813.703	28885
813.845	28850
813.986	28653
814.127	28356
814.268	28272
814.41	28265
814.551	28188
814.692	28405
814.833	28299
814.974	28242
815.115	28257
815.256	28173
815.397	28139
815.539	28226
815.68	28055
815.821	28078
815.962	28169
816.103	28044
816.244	27953
816.385	27914
816.526	27861
816.666	27648
816.807	27443
816.948	27709
817.089	27751
817.23	27633
817.371	27755
817.512	27663
817.653	27724
817.793	27526
817.934	27614
818.075	27599
818.216	27644
818.356	27785
818.497	27542
818.638	27180
818.778	27431
818.919	27211
819.06	27424
819.2	27504
819.341	27709
819.481	27618
819.622	27785
819.762	27964
819.903	27816
820.043	27835
820.184	27724
820.324	27656
820.465	27823
820.605	27603
820.746	27561
820.886	27614
821.026	27663
821.167	27698
821.307	27747
821.447	27496
821.588	27526
821.728	27378
821.868	26982
822.008	27180
822.149	27051
822.289	26937
822.429	26826
822.569	26754
822.709	26655
822.849	26541
822.99	26651
823.13	26484
823.27	26442
823.41	26442
823.55	26259
823.69	26374
823.83	26438
823.97	26362
824.11	26088
824.25	26149
824.389	26149
824.529	26278
824.669	26233
824.809	26332
824.949	26313
825.089	26362
825.228	26366
825.368	25932
825.508	26024
825.648	26233
825.787	26138
825.927	26290
826.067	26069
826.206	26183
826.346	26096
826.485	26100
826.625	26100
826.765	26282
826.904	26214
827.044	26027
827.183	25898
827.323	25890
827.462	25868
827.601	25776
827.741	25841
827.88	25913
828.02	25811
828.159	25849
828.298	25780
828.437	25970
828.577	25898
828.716	25841
828.855	25799
828.994	25521
829.134	25658
829.273	25674
829.412	25613
829.551	25544
829.69	25582
829.829	25563
829.968	25616
830.107	25696
830.246	25620
830.385	25502
830.524	25499
830.663	25426
830.802	25331
830.941	25221
831.08	25217
831.219	25221
831.357	25247
831.496	25449
831.635	25213
831.774	25122
831.913	25038
832.051	25027
832.19	24928
832.329	24897
832.467	24966
832.606	24779
832.744	24890
832.883	24905
833.022	24894
833.16	24821
833.299	25088
833.437	24962
833.576	24878
833.714	24996
833.852	25034
833.991	25019
834.129	24947
834.267	24844
834.406	25099
834.544	24905
834.682	25050
834.821	24924
834.959	25110
835.097	24928
835.235	24772
835.373	24977
835.511	24951
835.65	24700
835.788	24734
835.926	24681
836.064	24570
836.202	24551
836.34	24810
836.478	24882
836.615	24673
836.753	24867
836.891	24981
837.029	24817
837.167	24730
837.305	24650
837.443	24661
837.58	24692
837.718	24650
837.856	24696
837.993	24544
838.131	24608
838.269	24601
838.406	24532
838.544	24456
838.681	24258
838.819	24258
838.956	23988
839.094	24136
839.231	24018
839.369	24220
839.506	24429
839.643	24334
839.781	24133
839.918	24026
840.055	24136
840.193	23980
840.33	24110
840.467	23973
840.604	24129
840.742	24330
840.879	23920
841.016	23999
841.153	23855
841.29	24022
841.427	24064
841.564	24045
841.701	23969
841.838	23954
841.975	23984
842.112	23863
842.249	23748
842.385	23813
842.522	23935
842.659	23722
842.796	23859
842.933	23695
843.069	23722
843.206	23760
843.343	23722
843.479	23672
843.616	23581
843.752	23577
843.889	23497
844.025	23634
844.162	23516
844.298	23653
844.435	23554
844.571	23577
844.708	23520
844.844	23703
844.98	23596
845.117	23653
845.253	23303
845.389	23406
845.525	23505
845.661	23398
845.798	23284
845.934	23360
846.07	23246
846.206	23273
846.342	23330
846.478	23124
846.614	22961
846.75	23037
846.886	22873
847.022	22946
847.158	23025
847.294	23037
847.429	23022
847.565	22858
847.701	23193
847.837	22717
847.972	22679
848.108	22850
848.244	22805
848.379	22683
848.515	22447
848.65	22577
848.786	22592
848.921	22538
849.057	22637
849.192	22672
849.328	22584
849.463	22592
849.598	22592
849.734	22523
849.869	22436
850.004	22440
850.14	22310
850.275	22246
850.41	22360
850.545	22287
850.68	22306
850.815	22413
850.95	22367
851.085	22466
851.22	22402
851.355	22375
851.49	22310
851.625	22329
851.76	22306
851.895	22147
852.03	22204
852.165	22219
852.299	22272
852.434	22371
852.569	22344
852.703	22268
852.838	22390
852.973	22451
853.107	22432
853.242	22234
853.376	22276
853.511	22078
853.645	22139
853.78	22329
853.914	22337
854.048	22082
854.183	22074
854.317	22207
854.451	22306
854.585	22223
854.72	22154
854.854	22341
854.988	22105
855.122	22074
855.256	22059
855.39	22067
855.524	22169
855.658	22188
855.792	22177
855.926	22211
856.06	22200
856.194	22116
856.327	22109
856.461	22120
856.595	22067
856.729	22116
856.862	22207
856.996	22067
857.13	22177
857.263	22284
857.397	22280
857.53	22112
857.664	22211
857.797	22238
857.931	22284
858.064	22306
858.197	22261
858.331	22025
858.464	22196
858.597	22101
858.731	22131
858.864	22135
858.997	22067
859.13	22177
859.263	22192
859.396	22226
859.529	22097
859.662	22169
859.795	22029
859.928	22139
860.061	22234
860.194	22367
860.327	22143
860.46	22154
860.592	22223
860.725	22291
860.858	22226
860.99	22177
861.123	22086
861.256	22036
861.388	22147
861.521	22763
861.653	21869
861.786	22006
861.918	21937
862.05	21972
862.183	22021
862.315	22124
862.447	22150
862.58	22124
862.712	21698
862.844	21922
862.976	21835
863.108	21781
863.24	22268
863.372	21831
863.504	21797
863.636	21911
863.768	21915
863.9	21873
864.032	21793
864.164	21918
864.296	21888
864.428	21888
864.559	21884
864.691	21907
864.823	21918
864.954	21861
865.086	21884
865.217	21781
865.349	21644
865.48	21656
865.612	21656
865.743	21873
865.875	21736
866.006	21667
866.137	21720
866.269	21739
866.4	21755
866.531	21648
866.662	21625
866.793	21663
866.924	21694
867.055	21587
867.186	21625
867.317	21557
867.448	21660
867.579	21682
867.71	21507
867.841	21542
867.972	21747
868.103	21618
868.233	21625
868.364	21644
868.495	21778
868.625	21804
868.756	21968
868.886	21876
869.017	21823
869.147	21934
869.278	22013
869.408	21941
869.539	21903
869.669	22017
869.799	21972
869.929	21846
870.06	22002
870.19	22234
870.32	22188
870.45	22226
870.58	22382
870.71	22390
870.84	22348
870.97	22360
871.1	22246
871.23	22367
871.36	22531
871.489	22329
871.619	22421
871.749	22504
871.879	22497
872.008	22542
872.138	22421
872.267	22504
872.397	22363
872.526	22238
872.656	22322
872.785	22356
872.915	22554
873.044	22466
873.173	22493
873.303	22485
873.432	22531
873.561	22523
873.69	22584
873.819	22462
873.948	22489
874.077	22508
874.206	22538
874.335	22580
874.464	22569
874.593	22641
874.722	22618
874.851	22812
874.979	22774
875.108	22759
875.237	22664
875.365	22801
875.494	22744
875.623	22820
875.751	22668
875.88	22691
876.008	22831
876.136	22850
876.265	23090
876.393	23162
876.521	23239
876.65	23189
876.778	23083
876.906	23044
877.034	22930
877.162	23022
877.29	23010
877.418	23102
877.546	23056
877.674	23010
877.802	22980
877.93	22999
878.058	22946
878.185	22968
878.313	23006
878.441	23006
878.568	22934
878.696	22927
878.824	23033
878.951	23010
879.079	23136
879.206	23326
879.333	23337
879.461	23083
879.588	23140
879.715	23185
879.842	23299
879.97	23174
880.097	22831
880.224	22786
880.351	22854
880.478	22858
880.605	22801
880.732	22930
880.859	23037
880.986	22900
881.112	22892
881.239	22740
881.366	22805
881.493	22637
881.619	22504
881.746	22535
881.872	22424
881.999	22455
882.125	22360
882.252	22508
882.378	22360
882.505	22523
882.631	22303
882.757	22131
882.883	22253
883.01	22169
883.136	22090
883.262	21983
883.388	21899
883.514	22166
883.64	22173
883.766	22074
883.892	21953
884.018	21953
884.143	22093
884.269	22124
884.395	21835
884.52	21717
884.646	21709
884.772	21747
884.897	21679
885.023	21827
885.148	21835
885.274	22010
885.399	21800
885.524	21682
885.65	21720
885.775	21701
885.9	21720
886.025	21739
886.15	21823
886.275	21610
886.4	21660
886.525	21751
886.65	21698
886.775	21709
886.9	21857
887.025	21953
887.149	21701
887.274	21606
887.399	21576
887.523	21526
887.648	21504
887.773	21420
887.897	21625
888.021	21637
888.146	21439
888.27	21542
888.395	21557
888.519	21545
888.643	21496
888.767	21625
888.891	21431
889.015	21256
889.139	21496
889.263	21310
889.387	21447
889.511	21496
889.635	21473
889.759	21348
889.883	21408
890.006	21325
890.13	21496
890.254	21203
890.377	21268
890.501	21104
890.624	20921
890.748	21051
890.871	20990
890.995	20811
891.118	20845
891.241	20754
891.364	20906
891.488	20975
891.611	20960
891.734	20864
891.857	20948
891.98	20868
892.103	20811
892.226	20948
892.349	20944
892.471	20727
892.594	20785
892.717	20792
892.839	20800
892.962	20788
893.085	20902
893.207	20800
893.33	20682
893.452	20697
893.575	20849
893.697	20701
893.819	21062
893.941	20933
894.064	20773
894.186	20746
894.308	20720
894.43	20804
894.552	20967
894.674	20804
894.796	20670
894.918	20800
895.04	20765
895.161	20727
895.283	20720
895.405	20590
895.526	20735
895.648	20765
895.769	20735
895.891	20663
896.012	20705
896.134	20746
896.255	20899
896.376	20811
896.498	20720
896.619	20727
896.74	20754
896.861	20769
896.982	21001
897.103	21176
897.224	21058
897.345	20880
897.466	20876
897.587	20891
897.708	21142
897.828	21009
897.949	20998
898.07	20777
898.19	20857
898.311	21001
898.431	20899
898.552	20815
898.672	21074
898.792	21112
898.913	20990
899.033	20845
899.153	20705
899.273	20716
899.393	20617
899.513	20769
899.633	20720
899.753	20602
899.873	20560
899.993	20716
900.113	20606
900.232	20670
900.352	20602
900.472	20499
900.591	20393
900.711	20484
900.83	20366
900.95	20514
901.069	20511
901.189	20336
901.308	20050
901.427	20039
901.546	20027
901.665	20039
901.784	20035
901.904	19925
902.023	19708
902.141	19666
902.26	19567
902.379	19559
902.498	19506
902.617	19491
902.735	19460
902.854	19571
902.973	19438
903.091	19228
903.21	19129
903.328	19194
903.446	19129
903.565	18962
903.683	19084
903.801	18867
903.919	18985
904.038	18935
904.156	18726
904.274	18833
904.392	18692
904.51	18707
904.627	18757
904.745	18814
904.863	18715
904.981	18566
905.098	18308
905.216	18426
905.334	18445
905.451	18403
905.569	18388
905.686	18506
905.803	18456
905.921	18144
906.038	18270
906.155	18262
906.272	18163
906.389	18232
906.506	17980
906.623	18076
906.74	17969
906.857	17767
906.974	17832
907.091	18022
907.208	18041
907.324	17961
907.441	17847
907.557	17722
907.674	17672
907.79	17543
907.907	17718
908.023	17619
908.139	17623
908.256	17570
908.372	17497
908.488	17661
908.604	17493
908.72	17414
908.836	17391
908.952	17345
909.068	17341
909.184	17448
909.3	17452
909.415	17337
909.531	17436
909.647	17086
909.762	17170
909.878	17083
909.993	17041
910.108	17094
910.224	17045
910.339	17029
910.454	17143
910.57	16934
910.685	16824
910.8	17155
910.915	17003
911.03	16858
911.145	16694
911.259	16672
911.374	16656
911.489	16630
911.604	16474
911.718	16413
911.833	16360
911.947	16265
912.062	16242
912.176	16367
912.291	16322
912.405	16329
912.519	16497
912.633	16546
912.748	16428
912.862	16398
912.976	16169
913.09	16166
913.204	16139
913.318	16204
913.431	16356
913.545	16265
913.659	16246
913.772	16215
913.886	15937
914	15975
914.113	16135
914.226	16032
914.34	16021
914.453	15884
914.566	15972
914.68	15911
914.793	15876
914.906	15751
915.019	15686
915.132	15545
915.245	15507
915.358	15606
915.47	15576
915.583	15580
915.696	15667
915.809	15675
915.921	15717
916.034	15564
916.146	15511
916.259	15549
916.371	15606
916.483	15584
916.595	15397
916.708	15431
916.82	15393
916.932	15351
917.044	15382
917.156	15348
917.268	15249
917.38	15275
917.491	15173
917.603	15302
917.715	15363
917.826	15435
917.938	15108
918.049	15013
918.161	15211
918.272	15412
918.384	15317
918.495	15085
918.606	14998
918.717	14948
918.828	15062
918.939	14963
919.05	14880
919.161	14960
919.272	14819
919.383	14792
919.494	15005
919.604	15146
919.715	14921
919.826	14883
919.936	15070
920.047	14986
920.157	14819
920.267	15192
920.378	14967
920.488	14910
920.598	15051
920.708	15222
920.818	15070
920.928	15074
921.038	15226
921.148	15192
921.258	14819
921.368	14857
921.477	14739
921.587	14606
921.697	14545
921.806	14602
921.916	14507
922.025	14294
922.134	14290
922.244	14225
922.353	14366
922.462	14248
922.571	14134
922.68	13883
922.789	13887
922.898	14012
923.007	13894
923.116	13898
923.224	13902
923.333	13944
923.442	13826
923.55	13742
923.659	13852
923.767	13811
923.876	13651
923.984	13807
924.092	13636
924.201	13738
924.309	13658
924.417	13681
924.525	13605
924.633	13670
924.741	14419
924.849	13369
924.956	13529
925.064	13324
925.172	13331
925.279	13346
925.387	13343
925.494	13308
925.602	13365
925.709	13339
925.816	13244
925.924	13293
926.031	13388
926.138	13183
926.245	13335
926.352	13228
926.459	13274
926.566	13285
926.673	13183
926.779	13137
926.886	13141
926.993	12973
927.099	12916
927.206	12757
927.312	12890
927.419	12913
927.525	12848
927.631	12833
927.737	12856
927.843	12719
927.95	12662
928.056	12669
928.162	12658
928.267	12772
928.373	13213
928.479	12795
928.585	12608
928.69	12597
928.796	12639
928.901	12585
929.007	12410
929.112	12521
929.218	12448
929.323	12372
929.428	12380
929.533	12513
929.638	12376
929.743	12327
929.848	12414
929.953	12327
930.058	12159
930.163	12060
930.267	12216
930.372	12304
930.477	12019
930.581	12308
930.685	12129
930.79	11954
930.894	12079
930.998	11935
931.103	12072
931.207	11733
931.311	11615
931.415	11589
931.519	11364
931.623	11417
