Data from test_V78500241_3486.txt Node
Date: Fri Mar 25 15:34:08 CST 2022
User: usil
Spectrometer: V785-0024
Trigger mode: 0
Integration Time (sec): 4.000000E-1
Scans to average: 1
Nonlinearity correction enabled: false
Boxcar width: 0
Storing dark spectrum: false
XAxis mode: Wavelengths
Number of Pixels in Spectrum: 1024
>>>>>Begin Spectral Data<<<<<
801.071	27070
801.214	27001
801.356	26918
801.499	26727
801.641	26731
801.783	26731
801.926	26762
802.068	26579
802.211	26499
802.353	26488
802.496	26404
802.638	26404
802.78	26317
802.923	26183
803.065	26050
803.208	26122
803.35	26218
803.492	26278
803.635	26419
803.777	26305
803.919	26465
804.061	26807
804.204	26571
804.346	26431
804.488	26328
804.63	26492
804.773	26366
804.915	26336
805.057	26488
805.199	26465
805.341	26484
805.483	26632
805.626	26632
805.768	26381
805.91	26461
806.052	26625
806.194	26450
806.336	26629
806.478	26549
806.62	26484
806.762	26609
806.904	26765
807.046	27116
807.188	27001
807.33	26906
807.472	26918
807.614	26868
807.756	26682
807.898	26769
808.04	26712
808.182	26777
808.324	26895
808.465	26880
808.607	26933
808.749	27146
808.891	27245
809.033	27161
809.174	27146
809.316	27119
809.458	27062
809.6	26937
809.741	27192
809.883	27161
810.025	27481
810.166	27382
810.308	27351
810.45	27188
810.591	27408
810.733	27154
810.875	27062
811.016	27116
811.158	26914
811.299	27165
811.441	27298
811.582	27154
811.724	27096
811.865	26994
812.007	27161
812.148	27013
812.29	26990
812.431	27332
812.573	27439
812.714	27526
812.855	27637
812.997	27812
813.138	27656
813.279	27778
813.421	27682
813.562	27477
813.703	27275
813.845	27176
813.986	26975
814.127	26918
814.268	26796
814.41	26781
814.551	26845
814.692	26720
814.833	26632
814.974	26686
815.115	26678
815.256	26594
815.397	26571
815.539	26564
815.68	26522
815.821	26400
815.962	26560
816.103	26552
816.244	26393
816.385	26225
816.526	26313
816.666	26012
816.807	26016
816.948	26096
817.089	26187
817.23	26077
817.371	26062
817.512	25890
817.653	26016
817.793	25883
817.934	26008
818.075	26092
818.216	25906
818.356	25936
818.497	25989
818.638	25814
818.778	25750
818.919	25658
819.06	25845
819.2	25849
819.341	25993
819.481	25932
819.622	25982
819.762	26328
819.903	26088
820.043	26168
820.184	26050
820.324	25982
820.465	26145
820.605	26084
820.746	25986
820.886	25913
821.026	26031
821.167	26024
821.307	26069
821.447	26100
821.588	25894
821.728	25811
821.868	25613
822.008	25499
822.149	25415
822.289	25411
822.429	25133
822.569	25202
822.709	25164
822.849	25012
822.99	24905
823.13	24935
823.27	24901
823.41	24753
823.55	24589
823.69	24661
823.83	24795
823.97	24574
824.11	24631
824.25	24525
824.389	24536
824.529	24578
824.669	24612
824.809	24703
824.949	24639
825.089	24517
825.228	24642
825.368	24513
825.508	24388
825.648	24395
825.787	24353
825.927	24388
826.067	24323
826.206	24555
826.346	24380
826.485	24570
826.625	24467
826.765	24540
826.904	24589
827.044	24353
827.183	24262
827.323	24007
827.462	24186
827.601	24144
827.741	24049
827.88	24129
828.02	24125
828.159	24114
828.298	24201
828.437	24129
828.577	24133
828.716	24258
828.855	24140
828.994	23836
829.134	23767
829.273	23882
829.412	23912
829.551	23908
829.69	23870
829.829	23980
829.968	24060
830.107	24015
830.246	23946
830.385	23840
830.524	23840
830.663	23836
830.802	23619
830.941	23543
831.08	23444
831.219	23573
831.357	23646
831.496	23638
831.635	23440
831.774	23414
831.913	23391
832.051	23292
832.19	23235
832.329	23265
832.467	23246
832.606	23136
832.744	23128
832.883	23178
833.022	23132
833.16	23193
833.299	23345
833.437	23227
833.576	23136
833.714	23299
833.852	23402
833.991	23254
834.129	23303
834.267	23360
834.406	23376
834.544	23200
834.682	23273
834.821	23098
834.959	23376
835.097	23181
835.235	23258
835.373	23254
835.511	23220
835.65	23151
835.788	23132
835.926	22835
836.064	22919
836.202	22961
836.34	23067
836.478	23220
836.615	23162
836.753	22991
836.891	23292
837.029	23117
837.167	23136
837.305	22984
837.443	22991
837.58	22976
837.718	22965
837.856	22923
837.993	22908
838.131	23014
838.269	22904
838.406	22793
838.544	22691
838.681	22611
838.819	22649
838.956	22276
839.094	22459
839.231	22455
839.369	22508
839.506	22847
839.643	22637
839.781	22569
839.918	22360
840.055	22592
840.193	22280
840.33	22356
840.467	22341
840.604	22382
840.742	22550
840.879	22284
841.016	22386
841.153	22341
841.29	22561
841.427	22417
841.564	22329
841.701	22284
841.838	22424
841.975	22242
842.112	22295
842.249	22219
842.385	22135
842.522	22489
842.659	22238
842.796	22192
842.933	22147
843.069	22139
843.206	22078
843.343	22234
843.479	22090
843.616	22147
843.752	21819
843.889	22006
844.025	22067
844.162	21934
844.298	22006
844.435	21880
844.571	21816
844.708	21956
844.844	22044
844.98	22109
845.117	21911
845.253	21781
845.389	21892
845.525	21800
845.661	21755
845.798	21580
845.934	21705
846.07	21686
846.206	21774
846.342	21747
846.478	21717
846.614	21469
846.75	21340
846.886	21359
847.022	21420
847.158	21363
847.294	21477
847.429	21412
847.565	21325
847.701	21538
847.837	21135
847.972	21028
848.108	21260
848.244	21268
848.379	21104
848.515	21055
848.65	20918
848.786	21024
848.921	21062
849.057	21043
849.192	20925
849.328	21039
849.463	20891
849.598	20998
849.734	20804
849.869	20804
850.004	20819
850.14	20823
850.275	20872
850.41	20708
850.545	20731
850.68	20712
850.815	20830
850.95	20796
851.085	20887
851.22	20895
851.355	20830
851.49	20708
851.625	20587
851.76	20746
851.895	20613
852.03	20727
852.165	20834
852.299	20792
852.434	20899
852.569	20792
852.703	20689
852.838	20800
852.973	20895
853.107	20823
853.242	20773
853.376	20552
853.511	20400
853.645	20457
853.78	20693
853.914	20613
854.048	20659
854.183	20488
854.317	20518
854.451	20750
854.585	20564
854.72	20552
854.854	20571
854.988	20495
855.122	20564
855.256	20499
855.39	20556
855.524	20655
855.658	20545
855.792	20606
855.926	20552
856.06	20648
856.194	20724
856.327	20579
856.461	20549
856.595	20434
856.729	20522
856.862	20746
856.996	20716
857.13	20606
857.263	20655
857.397	20735
857.53	20545
857.664	20659
857.797	20663
857.931	20625
858.064	20533
858.197	20712
858.331	20431
858.464	20564
858.597	20526
858.731	20583
858.864	20587
858.997	20450
859.13	20552
859.263	20617
859.396	20640
859.529	20545
859.662	20457
859.795	20469
859.928	20480
860.061	20758
860.194	20785
860.327	20686
860.46	20560
860.592	20697
860.725	20663
860.858	20712
860.99	20533
861.123	20545
861.256	20492
861.388	20575
861.521	21374
861.653	20419
861.786	20328
861.918	20511
862.05	20473
862.183	20450
862.315	20560
862.447	20450
862.58	20495
862.712	20336
862.844	20396
862.976	20377
863.108	20507
863.24	20819
863.372	20210
863.504	20244
863.636	20256
863.768	20275
863.9	20362
864.032	20183
864.164	20309
864.296	20263
864.428	20393
864.559	20366
864.691	20377
864.823	20248
864.954	20233
865.086	20195
865.217	20191
865.349	20126
865.48	20191
865.612	20263
865.743	20294
865.875	20191
866.006	20096
866.137	20214
866.269	20119
866.4	20115
866.531	20199
866.662	20199
866.793	20043
866.924	20092
867.055	20180
867.186	20313
867.317	20168
867.448	20005
867.579	20145
867.71	20081
867.841	20062
867.972	20134
868.103	20119
868.233	20100
868.364	20069
868.495	20134
868.625	20362
868.756	20579
868.886	20412
869.017	20393
869.147	20488
869.278	20473
869.408	20351
869.539	20419
869.669	20381
869.799	20328
869.929	20480
870.06	20530
870.19	20724
870.32	20705
870.45	20689
870.58	20788
870.71	20944
870.84	20804
870.97	20682
871.1	20807
871.23	20967
871.36	20914
871.489	20944
871.619	20960
871.749	20948
871.879	21039
872.008	21192
872.138	20963
872.267	21036
872.397	20849
872.526	20899
872.656	20815
872.785	20819
872.915	21047
873.044	21112
873.173	21017
873.303	21017
873.432	21047
873.561	21218
873.69	21066
873.819	21058
873.948	21055
874.077	21112
874.206	20994
874.335	20918
874.464	21039
874.593	21188
874.722	21226
874.851	21298
874.979	21222
875.108	21302
875.237	21154
875.365	21142
875.494	21176
875.623	21332
875.751	21378
875.88	21226
876.008	21325
876.136	21363
876.265	21804
876.393	21884
876.521	21762
876.65	21835
876.778	21606
876.906	21705
877.034	21542
877.162	21549
877.29	21606
877.418	21606
877.546	21622
877.674	21557
877.802	21679
877.93	21633
878.058	21496
878.185	21515
878.313	21431
878.441	21469
878.568	21488
878.696	21652
878.824	21591
878.951	21633
879.079	21827
879.206	21854
879.333	21827
879.461	21568
879.588	21641
879.715	21724
879.842	21983
879.97	21606
880.097	21378
880.224	21428
880.351	21591
880.478	21386
880.605	21488
880.732	21405
880.859	21663
880.986	21614
881.112	21481
881.239	21310
881.366	21188
881.493	21077
881.619	21116
881.746	21032
881.872	21009
881.999	21055
882.125	20948
882.252	21005
882.378	21024
882.505	21142
882.631	20842
882.757	20777
882.883	20769
883.01	20735
883.136	20651
883.262	20594
883.388	20640
883.514	20823
883.64	20800
883.766	20583
883.892	20442
884.018	20507
884.143	20640
884.269	20743
884.395	20499
884.52	20469
884.646	20347
884.772	20446
884.897	20286
885.023	20450
885.148	20545
885.274	20617
885.399	20442
885.524	20404
885.65	20484
885.775	20427
885.9	20351
886.025	20469
886.15	20393
886.275	20499
886.4	20336
886.525	20480
886.65	20225
886.775	20343
886.9	20571
887.025	20526
887.149	20427
887.274	20294
887.399	20183
887.523	20157
887.648	20100
887.773	20111
887.897	20138
888.021	20210
888.146	20069
888.27	20366
888.395	20229
888.519	20187
888.643	20176
888.767	20229
888.891	20062
889.015	19898
889.139	20058
889.263	19970
889.387	20054
889.511	20202
889.635	20092
889.759	19936
889.883	19879
890.006	19989
890.13	20134
890.254	19837
890.377	19997
890.501	19727
890.624	19578
890.748	19830
890.871	19674
890.995	19544
891.118	19552
891.241	19556
891.364	19567
891.488	19685
891.611	19620
891.734	19563
891.857	19575
891.98	19502
892.103	19567
892.226	19605
892.349	19445
892.471	19419
892.594	19518
892.717	19544
892.839	19422
892.962	19468
893.085	19464
893.207	19453
893.33	19350
893.452	19331
893.575	19495
893.697	19460
893.819	19514
893.941	19670
894.064	19613
894.186	19396
894.308	19358
894.43	19540
894.552	19529
894.674	19483
894.796	19434
894.918	19460
895.04	19392
895.161	19586
895.283	19624
895.405	19400
895.526	19510
895.648	19537
895.769	19575
895.891	19483
896.012	19586
896.134	19453
896.255	19502
896.376	19529
896.498	19563
896.619	19457
896.74	19354
896.861	19540
896.982	19772
897.103	19928
897.224	19902
897.345	19712
897.466	19639
897.587	19590
897.708	19727
897.828	19662
897.949	19616
898.07	19533
898.19	19677
898.311	19731
898.431	19624
898.552	19597
898.672	19803
898.792	19811
898.913	19753
899.033	19601
899.153	19559
899.273	19480
899.393	19358
899.513	19578
899.633	19377
899.753	19422
899.873	19483
899.993	19514
900.113	19510
900.232	19525
900.352	19377
900.472	19304
900.591	19209
900.711	19343
900.83	19213
900.95	19419
901.069	19301
901.189	18996
901.308	18863
901.427	18749
901.546	18886
901.665	18802
901.784	18882
901.904	18772
902.023	18566
902.141	18441
902.26	18403
902.379	18376
902.498	18445
902.617	18384
902.735	18525
902.854	18171
902.973	18247
903.091	18057
903.21	17980
903.328	17977
903.446	18034
903.565	17775
903.683	17847
903.801	17722
903.919	17870
904.038	17703
904.156	17638
904.274	17699
904.392	17691
904.51	17642
904.627	17573
904.745	17604
904.863	17687
904.981	17551
905.098	17239
905.216	17288
905.334	17307
905.451	17322
905.569	17212
905.686	17322
905.803	17277
905.921	17170
906.038	17242
906.155	17151
906.272	16980
906.389	16976
906.506	16915
906.623	16904
906.74	16752
906.857	16698
906.974	16679
907.091	16847
907.208	16999
907.324	16828
907.441	16710
907.557	16679
907.674	16611
907.79	16424
907.907	16554
908.023	16565
908.139	16538
908.256	16584
908.372	16424
908.488	16371
908.604	16386
908.72	16333
908.836	16230
908.952	16314
909.068	16310
909.184	16394
909.3	16272
909.415	16181
909.531	16242
909.647	16040
909.762	15994
909.878	15960
909.993	16101
910.108	15899
910.224	15918
910.339	15895
910.454	15854
910.57	15781
910.685	15747
910.8	15991
910.915	15907
911.03	15835
911.145	15701
911.259	15580
911.374	15606
911.489	15591
911.604	15500
911.718	15279
911.833	15477
911.947	15214
912.062	15195
912.176	15450
912.291	15275
912.405	15408
912.519	15576
912.633	15519
912.748	15348
912.862	15260
912.976	15241
913.09	15051
913.204	15203
913.318	15089
913.431	15218
913.545	15245
913.659	15264
913.772	15097
913.886	15039
914	14925
914.113	15024
914.226	14982
914.34	14986
914.453	14929
914.566	14998
914.68	14830
914.793	14705
914.906	14594
915.019	14537
915.132	14552
915.245	14575
915.358	14648
915.47	14606
915.583	14613
915.696	14613
915.809	14773
915.921	14705
916.034	14507
916.146	14427
916.259	14431
916.371	14629
916.483	14659
916.595	14404
916.708	14480
916.82	14423
916.932	14465
917.044	14404
917.156	14389
917.268	14320
917.38	14259
917.491	14317
917.603	14294
917.715	14278
917.826	14351
917.938	14233
918.049	14134
918.161	14103
918.272	14278
918.384	14423
918.495	14202
918.606	14149
918.717	14016
918.828	14081
918.939	14107
919.05	14027
919.161	13947
919.272	13807
919.383	13868
919.494	14054
919.604	14233
919.715	13917
919.826	13921
919.936	13997
920.047	14050
920.157	14043
920.267	14191
920.378	14065
920.488	13909
920.598	14145
920.708	14317
920.818	14210
920.928	14164
921.038	14336
921.148	14305
921.258	13917
921.368	13875
921.477	13803
921.587	13765
921.697	13658
921.806	13849
921.916	13559
922.025	13480
922.134	13354
922.244	13388
922.353	13571
922.462	13255
922.571	13164
922.68	13080
922.789	13114
922.898	13091
923.007	13057
923.116	13126
923.224	13084
923.333	13023
923.442	12913
923.55	12886
923.659	12867
923.767	12954
923.876	12833
923.984	12951
924.092	12829
924.201	12802
924.309	12760
924.417	12779
924.525	12757
924.633	12776
924.741	13460
924.849	12559
924.956	12662
925.064	12578
925.172	12437
925.279	12532
925.387	12544
925.494	12551
925.602	12616
925.709	12551
925.816	12350
925.924	12486
926.031	12559
926.138	12464
926.245	12506
926.352	12437
926.459	12536
926.566	12521
926.673	12384
926.779	12258
926.886	12273
926.993	12125
927.099	12201
927.206	12030
927.312	12007
927.419	12148
927.525	12125
927.631	12125
927.737	11965
927.843	11882
927.95	11843
928.056	11832
928.162	11942
928.267	11965
928.373	12513
928.479	12076
928.585	11733
928.69	11836
928.796	11946
928.901	11752
929.007	11596
929.112	11729
929.218	11764
929.323	11741
929.428	11592
929.533	11836
929.638	11634
929.743	11623
929.848	11657
929.953	11619
930.058	11486
930.163	11330
930.267	11356
930.372	11547
930.477	11330
930.581	11493
930.685	11349
930.79	11159
930.894	11277
930.998	11223
931.103	11273
931.207	11006
931.311	10946
931.415	10869
931.519	10687
931.623	10618
