Data from test_V78500241_1490.txt Node
Date: Fri Mar 25 15:20:13 CST 2022
User: usil
Spectrometer: V785-0024
Trigger mode: 0
Integration Time (sec): 4.000000E-1
Scans to average: 1
Nonlinearity correction enabled: false
Boxcar width: 0
Storing dark spectrum: false
XAxis mode: Wavelengths
Number of Pixels in Spectrum: 1024
>>>>>Begin Spectral Data<<<<<
801.071	28242
801.214	28017
801.356	27838
801.499	27743
801.641	27690
801.783	27450
801.926	27641
802.068	27641
802.211	27622
802.353	27614
802.496	27294
802.638	27294
802.78	27294
802.923	27287
803.065	27184
803.208	27169
803.35	27462
803.492	27477
803.635	27420
803.777	27427
803.919	27420
804.061	27728
804.204	27511
804.346	27469
804.488	27439
804.63	27511
804.773	27545
804.915	27622
805.057	27519
805.199	27435
805.341	27595
805.483	27759
805.626	27713
805.768	27553
805.91	27633
806.052	27812
806.194	27606
806.336	27762
806.478	27720
806.62	27667
806.762	27888
806.904	27983
807.046	28120
807.188	28044
807.33	28010
807.472	28238
807.614	28029
807.756	28044
807.898	28006
808.04	27987
808.182	27922
808.324	27979
808.465	27972
808.607	28181
808.749	28337
808.891	28417
809.033	28386
809.174	28432
809.316	28363
809.458	28181
809.6	28234
809.741	28436
809.883	28436
810.025	28698
810.166	28664
810.308	28634
810.45	28675
810.591	28436
810.733	28265
810.875	28226
811.016	28158
811.158	28166
811.299	28440
811.441	28447
811.582	28432
811.724	28390
811.865	28401
812.007	28287
812.148	28154
812.29	28462
812.431	28462
812.573	28675
812.714	28733
812.855	28881
812.997	28888
813.138	28987
813.279	29044
813.421	28854
813.562	28786
813.703	28694
813.845	28493
813.986	28234
814.127	28207
814.268	28116
814.41	28128
814.551	27998
814.692	28063
814.833	27979
814.974	27960
815.115	27930
815.256	27888
815.397	27781
815.539	27816
815.68	27865
815.821	27759
815.962	27797
816.103	27895
816.244	27728
816.385	27652
816.526	27477
816.666	27583
816.807	27412
816.948	27340
817.089	27287
817.23	27306
817.371	27272
817.512	27386
817.653	27264
817.793	27298
817.934	27481
818.075	27359
818.216	27370
818.356	27287
818.497	27245
818.638	27138
818.778	26956
818.919	27047
819.06	27135
819.2	27207
819.341	27279
819.481	27325
819.622	27435
819.762	27561
819.903	27420
820.043	27485
820.184	27424
820.324	27306
820.465	27530
820.605	27481
820.746	27359
820.886	27313
821.026	27252
821.167	27325
821.307	27374
821.447	27214
821.588	27161
821.728	27043
821.868	26971
822.008	26758
822.149	26701
822.289	26648
822.429	26492
822.569	26400
822.709	26419
822.849	26259
822.99	26225
823.13	26214
823.27	26202
823.41	26043
823.55	25887
823.69	26271
823.83	26043
823.97	26191
824.11	25894
824.25	25814
824.389	25966
824.529	25966
824.669	26100
824.809	25989
824.949	25944
825.089	25830
825.228	26008
825.368	25753
825.508	25734
825.648	25875
825.787	25875
825.927	25894
826.067	25727
826.206	25719
826.346	25982
826.485	25788
826.625	25731
826.765	25879
826.904	25780
827.044	25537
827.183	25594
827.323	25487
827.462	25540
827.601	25544
827.741	25575
827.88	25643
828.02	25320
828.159	25388
828.298	25540
828.437	25472
828.577	25537
828.716	25639
828.855	25346
828.994	25331
829.134	25312
829.273	25285
829.412	25213
829.551	25190
829.69	25206
829.829	25171
829.968	25304
830.107	25297
830.246	25209
830.385	25171
830.524	25141
830.663	24897
830.802	25053
830.941	24677
831.08	24867
831.219	24821
831.357	24848
831.496	24970
831.635	24810
831.774	24795
831.913	24707
832.051	24597
832.19	24593
832.329	24578
832.467	24525
832.606	24410
832.744	24403
832.883	24467
833.022	24502
833.16	24544
833.299	24471
833.437	24559
833.576	24551
833.714	24437
833.852	24570
833.991	24566
834.129	24608
834.267	24494
834.406	24639
834.544	24658
834.682	24608
834.821	24460
834.959	24658
835.097	24445
835.235	24700
835.373	24422
835.511	24475
835.65	24418
835.788	24357
835.926	24209
836.064	24041
836.202	24190
836.34	24308
836.478	24464
836.615	24357
836.753	24483
836.891	24418
837.029	24399
837.167	24281
837.305	24395
837.443	24311
837.58	24178
837.718	24178
837.856	24201
837.993	24155
838.131	24186
838.269	24144
838.406	24087
838.544	24106
838.681	23794
838.819	23885
838.956	23649
839.094	23710
839.231	23638
839.369	23863
839.506	23988
839.643	23927
839.781	23699
839.918	23611
840.055	23676
840.193	23642
840.33	23509
840.467	23634
840.604	23714
840.742	23836
840.879	23455
841.016	23512
841.153	23440
841.29	23589
841.427	23604
841.564	23630
841.701	23581
841.838	23539
841.975	23417
842.112	23471
842.249	23452
842.385	23315
842.522	23493
842.659	23402
842.796	23345
842.933	23254
843.069	23242
843.206	23258
843.343	23516
843.479	23326
843.616	23250
843.752	23098
843.889	23136
844.025	23117
844.162	23056
844.298	23197
844.435	23140
844.571	23075
844.708	23212
844.844	23372
844.98	23128
845.117	23083
845.253	22991
845.389	23003
845.525	23083
845.661	23010
845.798	22767
845.934	22843
846.07	22660
846.206	22908
846.342	22927
846.478	22782
846.614	22565
846.75	22554
846.886	22668
847.022	22584
847.158	22630
847.294	22668
847.429	22489
847.565	22478
847.701	22763
847.837	22268
847.972	22249
848.108	22382
848.244	22215
848.379	22124
848.515	22109
848.65	22147
848.786	22242
848.921	22158
849.057	22318
849.192	22139
849.328	22162
849.463	22070
849.598	22029
849.734	22090
849.869	21949
850.004	21979
850.14	21907
850.275	21895
850.41	21842
850.545	21819
850.68	21895
850.815	21956
850.95	21835
851.085	22097
851.22	21987
851.355	21918
851.49	21804
851.625	21804
851.76	21892
851.895	21838
852.03	21774
852.165	21762
852.299	21918
852.434	22029
852.569	22036
852.703	21903
852.838	21953
852.973	21964
853.107	22006
853.242	21869
853.376	21739
853.511	21587
853.645	21724
853.78	21854
853.914	21705
854.048	21686
854.183	21766
854.317	21800
854.451	21827
854.585	21781
854.72	21755
854.854	21823
854.988	21599
855.122	21652
855.256	21530
855.39	21838
855.524	21869
855.658	21747
855.792	21838
855.926	21732
856.06	21770
856.194	21880
856.327	21717
856.461	21603
856.595	21694
856.729	21778
856.862	21759
856.996	21713
857.13	21743
857.263	21857
857.397	21854
857.53	21663
857.664	21789
857.797	21724
857.931	21888
858.064	21793
858.197	21835
858.331	21713
858.464	21622
858.597	21614
858.731	21747
858.864	21614
858.997	21561
859.13	21667
859.263	21663
859.396	21793
859.529	21747
859.662	21660
859.795	21686
859.928	21835
860.061	21869
860.194	21983
860.327	21743
860.46	21713
860.592	21842
860.725	21915
860.858	21770
860.99	21770
861.123	21572
861.256	21637
861.388	21686
861.521	22375
861.653	21675
861.786	21466
861.918	21553
862.05	21679
862.183	21709
862.315	21648
862.447	21743
862.58	21564
862.712	21439
862.844	21405
862.976	21504
863.108	21523
863.24	21907
863.372	21367
863.504	21450
863.636	21439
863.768	21473
863.9	21561
864.032	21424
864.164	21329
864.296	21454
864.428	21663
864.559	21534
864.691	21424
864.823	21473
864.954	21412
865.086	21408
865.217	21363
865.349	21260
865.48	21310
865.612	21283
865.743	21473
865.875	21393
866.006	21230
866.137	21279
866.269	21237
866.4	21317
866.531	21237
866.662	21226
866.793	21226
866.924	21173
867.055	21218
867.186	21233
867.317	21173
867.448	21222
867.579	21199
867.71	21173
867.841	21009
867.972	21256
868.103	21256
868.233	21306
868.364	21241
868.495	21317
868.625	21523
868.756	21587
868.886	21374
869.017	21477
869.147	21610
869.278	21705
869.408	21481
869.539	21496
869.669	21576
869.799	21591
869.929	21595
870.06	21618
870.19	21812
870.32	21705
870.45	21808
870.58	21831
870.71	21972
870.84	21899
870.97	21880
871.1	21816
871.23	22150
871.36	22112
871.489	21968
871.619	22070
871.749	22139
871.879	22021
872.008	22196
872.138	22162
872.267	22010
872.397	21918
872.526	21934
872.656	21983
872.785	21854
872.915	22101
873.044	22196
873.173	22158
873.303	22173
873.432	22082
873.561	22280
873.69	22109
873.819	22097
873.948	22207
874.077	22158
874.206	21964
874.335	21991
874.464	22166
874.593	22234
874.722	22169
874.851	22261
874.979	22367
875.108	22344
875.237	22135
875.365	22257
875.494	22284
875.623	22310
875.751	22303
875.88	22329
876.008	22436
876.136	22382
876.265	22725
876.393	22824
876.521	22778
876.65	22763
876.778	22710
876.906	22626
877.034	22645
877.162	22592
877.29	22634
877.418	22717
877.546	22675
877.674	22592
877.802	22523
877.93	22618
878.058	22645
878.185	22523
878.313	22660
878.441	22584
878.568	22577
878.696	22656
878.824	22668
878.951	22774
879.079	22736
879.206	22847
879.333	22793
879.461	22763
879.588	22752
879.715	22881
879.842	22862
879.97	22793
880.097	22557
880.224	22451
880.351	22409
880.478	22394
880.605	22485
880.732	22489
880.859	22698
880.986	22508
881.112	22519
881.239	22325
881.366	22154
881.493	22078
881.619	22082
881.746	22226
881.872	22017
881.999	21964
882.125	22013
882.252	21983
882.378	21968
882.505	22253
882.631	21827
882.757	21656
882.883	21785
883.01	21823
883.136	21603
883.262	21466
883.388	21622
883.514	21850
883.64	21827
883.766	21633
883.892	21557
884.018	21549
884.143	21698
884.269	21652
884.395	21523
884.52	21332
884.646	21363
884.772	21306
884.897	21252
885.023	21302
885.148	21397
885.274	21526
885.399	21294
885.524	21344
885.65	21302
885.775	21443
885.9	21332
886.025	21496
886.15	21401
886.275	21237
886.4	21393
886.525	21431
886.65	21367
886.775	21211
886.9	21530
887.025	21595
887.149	21389
887.274	21157
887.399	21051
887.523	21203
887.648	21188
887.773	21032
887.897	21214
888.021	21089
888.146	21199
888.27	21165
888.395	21222
888.519	21207
888.643	21142
888.767	21214
888.891	21085
889.015	20857
889.139	21001
889.263	20826
889.387	21024
889.511	21131
889.635	21062
889.759	20849
889.883	20895
890.006	20948
890.13	21108
890.254	20849
890.377	20849
890.501	20708
890.624	20640
890.748	20739
890.871	20644
890.995	20533
891.118	20499
891.241	20503
891.364	20438
891.488	20602
891.611	20503
891.734	20419
891.857	20465
891.98	20621
892.103	20571
892.226	20446
892.349	20488
892.471	20343
892.594	20457
892.717	20530
892.839	20381
892.962	20400
893.085	20495
893.207	20370
893.33	20248
893.452	20328
893.575	20450
893.697	20358
893.819	20556
893.941	20549
894.064	20446
894.186	20298
894.308	20313
894.43	20423
894.552	20374
894.674	20412
894.796	20320
894.918	20423
895.04	20469
895.161	20473
895.283	20415
895.405	20423
895.526	20434
895.648	20317
895.769	20381
895.891	20442
896.012	20530
896.134	20355
896.255	20362
896.376	20332
896.498	20393
896.619	20526
896.74	20431
896.861	20438
896.982	20697
897.103	21028
897.224	20746
897.345	20754
897.466	20564
897.587	20621
897.708	20697
897.828	20590
897.949	20465
898.07	20473
898.19	20495
898.311	20609
898.431	20583
898.552	20602
898.672	20720
898.792	20705
898.913	20583
899.033	20537
899.153	20339
899.273	20248
899.393	20336
899.513	20370
899.633	20313
899.753	20400
899.873	20259
899.993	20355
900.113	20366
900.232	20317
900.352	20309
900.472	20225
900.591	20088
900.711	20187
900.83	20012
900.95	20187
901.069	20301
901.189	20027
901.308	19841
901.427	19651
901.546	19731
901.665	19799
901.784	19601
901.904	19548
902.023	19502
902.141	19236
902.26	19274
902.379	19213
902.498	19217
902.617	19247
902.735	19266
902.854	19213
902.973	19004
903.091	18829
903.21	18913
903.328	18886
903.446	18802
903.565	18764
903.683	18707
903.801	18563
903.919	18604
904.038	18589
904.156	18433
904.274	18593
904.392	18467
904.51	18410
904.627	18502
904.745	18513
904.863	18502
904.981	18296
905.098	18072
905.216	18083
905.334	18167
905.451	18129
905.569	18121
905.686	18087
905.803	18083
905.921	17874
906.038	18091
906.155	17851
906.272	17794
906.389	17798
906.506	17748
906.623	17733
906.74	17703
906.857	17585
906.974	17497
907.091	17649
907.208	17874
907.324	17585
907.441	17562
907.557	17421
907.674	17372
907.79	17322
907.907	17277
908.023	17273
908.139	17322
908.256	17311
908.372	17242
908.488	17174
908.604	17136
908.72	17121
908.836	17033
908.952	16957
909.068	17064
909.184	17200
909.3	17109
909.415	17025
909.531	16999
909.647	16847
909.762	16771
909.878	16759
909.993	16835
910.108	16744
910.224	16805
910.339	16809
910.454	16626
910.57	16607
910.685	16443
910.8	16828
910.915	16698
911.03	16637
911.145	16421
911.259	16299
911.374	16344
911.489	16249
911.604	16150
911.718	16112
911.833	16196
911.947	16013
912.062	15857
912.176	16048
912.291	16051
912.405	16105
912.519	16291
912.633	16314
912.748	16128
912.862	16101
912.976	15911
913.09	15770
913.204	15808
913.318	15964
913.431	15998
913.545	16029
913.659	16071
913.772	15827
913.886	15781
914	15785
914.113	15785
914.226	15739
914.34	15793
914.453	15595
914.566	15660
914.68	15682
914.793	15625
914.906	15534
915.019	15279
915.132	15260
915.245	15325
915.358	15325
915.47	15355
915.583	15214
915.696	15279
915.809	15466
915.921	15477
916.034	15272
916.146	15222
916.259	15161
916.371	15310
916.483	15310
916.595	15108
916.708	15108
916.82	15123
916.932	15150
917.044	15074
917.156	15089
917.268	15009
917.38	15036
917.491	14944
917.603	15024
917.715	15074
917.826	15039
917.938	14910
918.049	14857
918.161	14933
918.272	15017
918.384	15047
918.495	14914
918.606	14743
918.717	14674
918.828	14632
918.939	14777
919.05	14629
919.161	14682
919.272	14518
919.383	14617
919.494	14800
919.604	14990
919.715	14689
919.826	14583
919.936	14625
920.047	14716
920.157	14632
920.267	14937
920.378	14777
920.488	14636
920.598	14895
920.708	15013
920.818	14800
920.928	14765
921.038	14948
921.148	14826
921.258	14602
921.368	14484
921.477	14431
921.587	14434
921.697	14343
921.806	14408
921.916	14278
922.025	14123
922.134	14039
922.244	13890
922.353	14081
922.462	13906
922.571	13856
922.68	13723
922.789	13609
922.898	13613
923.007	13647
923.116	13689
923.224	13693
923.333	13632
923.442	13537
923.55	13453
923.659	13472
923.767	13632
923.876	13483
923.984	13601
924.092	13407
924.201	13411
924.309	13419
924.417	13445
924.525	13324
924.633	13339
924.741	14046
924.849	13095
924.956	13247
925.064	13095
925.172	13034
925.279	13031
925.387	13088
925.494	13023
925.602	13179
925.709	13190
925.816	12951
925.924	12966
926.031	13114
926.138	13034
926.245	13088
926.352	12909
926.459	13091
926.566	13065
926.673	13000
926.779	12798
926.886	12856
926.993	12738
927.099	12669
927.206	12578
927.312	12574
927.419	12669
927.525	12631
927.631	12662
927.737	12589
927.843	12486
927.95	12353
928.056	12486
928.162	12437
928.267	12570
928.373	13221
928.479	12585
928.585	12376
928.69	12388
928.796	12483
928.901	12384
929.007	12243
929.112	12311
929.218	12327
929.323	12190
929.428	12220
929.533	12258
929.638	12167
929.743	12167
929.848	12152
929.953	12114
930.058	12003
930.163	11878
930.267	11916
930.372	11992
930.477	11855
930.581	12110
930.685	11866
930.79	11771
930.894	11874
930.998	11748
931.103	11923
931.207	11478
931.311	11398
931.415	11398
931.519	11132
931.623	11124
