Data from test_V78500241_3402.txt Node
Date: Fri Mar 25 15:33:33 CST 2022
User: usil
Spectrometer: V785-0024
Trigger mode: 0
Integration Time (sec): 4.000000E-1
Scans to average: 1
Nonlinearity correction enabled: false
Boxcar width: 0
Storing dark spectrum: false
XAxis mode: Wavelengths
Number of Pixels in Spectrum: 1024
>>>>>Begin Spectral Data<<<<<
801.071	27207
801.214	27146
801.356	27036
801.499	26914
801.641	26815
801.783	26864
801.926	26872
802.068	26826
802.211	26792
802.353	26606
802.496	26609
802.638	26442
802.78	26377
802.923	26332
803.065	26343
803.208	26362
803.35	26427
803.492	26606
803.635	26689
803.777	26484
803.919	26659
804.061	26956
804.204	26686
804.346	26518
804.488	26400
804.63	26712
804.773	26461
804.915	26533
805.057	26674
805.199	26568
805.341	26655
805.483	26674
805.626	26541
805.768	26545
805.91	26716
806.052	26587
806.194	26606
806.336	26788
806.478	26697
806.62	26617
806.762	26940
806.904	26975
807.046	27237
807.188	27017
807.33	27116
807.472	27005
807.614	26975
807.756	26906
807.898	27039
808.04	26849
808.182	26815
808.324	26876
808.465	27089
808.607	27135
808.749	27260
808.891	27241
809.033	27348
809.174	27317
809.316	27252
809.458	27294
809.6	27150
809.741	27401
809.883	27416
810.025	27454
810.166	27701
810.308	27606
810.45	27526
810.591	27485
810.733	27420
810.875	27302
811.016	27249
811.158	27093
811.299	27405
811.441	27492
811.582	27427
811.724	27351
811.865	27241
812.007	27203
812.148	27176
812.29	27252
812.431	27443
812.573	27686
812.714	27610
812.855	27694
812.997	27842
813.138	28177
813.279	27892
813.421	27816
813.562	27869
813.703	27656
813.845	27302
813.986	27135
814.127	27062
814.268	27032
814.41	26902
814.551	26902
814.692	26933
814.833	26872
814.974	26956
815.115	27066
815.256	26940
815.397	26788
815.539	26807
815.68	26693
815.821	26545
815.962	26773
816.103	26788
816.244	26514
816.385	26453
816.526	26492
816.666	26248
816.807	26218
816.948	26324
817.089	26244
817.23	26237
817.371	26183
817.512	26092
817.653	26161
817.793	26157
817.934	26210
818.075	26153
818.216	26294
818.356	26126
818.497	26001
818.638	25845
818.778	25955
818.919	25940
819.06	25986
819.2	25928
819.341	26218
819.481	26180
819.622	26336
819.762	26518
819.903	26412
820.043	26267
820.184	26351
820.324	26339
820.465	26324
820.605	26199
820.746	26195
820.886	26069
821.026	26115
821.167	26237
821.307	26366
821.447	26286
821.588	26088
821.728	25803
821.868	25856
822.008	25643
822.149	25731
822.289	25689
822.429	25460
822.569	25377
822.709	25358
822.849	25133
822.99	25164
823.13	25168
823.27	25148
823.41	24928
823.55	24852
823.69	24852
823.83	25107
823.97	25046
824.11	24669
824.25	24764
824.389	24681
824.529	24852
824.669	24768
824.809	24894
824.949	24856
825.089	24882
825.228	24886
825.368	24661
825.508	24612
825.648	24597
825.787	24954
825.927	24612
826.067	24703
826.206	24589
826.346	24669
826.485	24779
826.625	24673
826.765	24692
826.904	24772
827.044	24559
827.183	24563
827.323	24353
827.462	24441
827.601	24327
827.741	24384
827.88	24330
828.02	24289
828.159	24448
828.298	24315
828.437	24426
828.577	24277
828.716	24441
828.855	24357
828.994	24190
829.134	23999
829.273	24102
829.412	24068
829.551	23946
829.69	24057
829.829	24209
829.968	24140
830.107	24239
830.246	24121
830.385	24091
830.524	23870
830.663	23973
830.802	23775
830.941	23680
831.08	23695
831.219	23726
831.357	23866
831.496	23870
831.635	23649
831.774	23760
831.913	23623
832.051	23630
832.19	23410
832.329	23547
832.467	23341
832.606	23277
832.744	23330
832.883	23459
833.022	23433
833.16	23315
833.299	23376
833.437	23395
833.576	23524
833.714	23353
833.852	23592
833.991	23520
834.129	23661
834.267	23577
834.406	23387
834.544	23509
834.682	23600
834.821	23493
834.959	23687
835.097	23493
835.235	23551
835.373	23478
835.511	23566
835.65	23421
835.788	23299
835.926	23231
836.064	23025
836.202	23254
836.34	23349
836.478	23372
836.615	23258
836.753	23318
836.891	23265
837.029	23372
837.167	23231
837.305	23296
837.443	23185
837.58	23174
837.718	23322
837.856	23220
837.993	23075
838.131	23022
838.269	22991
838.406	23067
838.544	22942
838.681	22934
838.819	22759
838.956	22702
839.094	22698
839.231	22820
839.369	22828
839.506	23041
839.643	22889
839.781	22596
839.918	22645
840.055	22630
840.193	22725
840.33	22561
840.467	22664
840.604	22630
840.742	22809
840.879	22402
841.016	22584
841.153	22375
841.29	22702
841.427	22626
841.564	22580
841.701	22497
841.838	22512
841.975	22508
842.112	22519
842.249	22421
842.385	22299
842.522	22546
842.659	22424
842.796	22322
842.933	22405
843.069	22314
843.206	22234
843.343	22333
843.479	22489
843.616	22356
843.752	22131
843.889	22135
844.025	22196
844.162	22150
844.298	22291
844.435	22162
844.571	22128
844.708	22173
844.844	22188
844.98	22230
845.117	22234
845.253	21987
845.389	21994
845.525	21994
845.661	21972
845.798	21762
845.934	21846
846.07	21781
846.206	21819
846.342	21983
846.478	21831
846.614	21656
846.75	21511
846.886	21572
847.022	21762
847.158	21511
847.294	21557
847.429	21530
847.565	21500
847.701	21800
847.837	21306
847.972	21348
848.108	21393
848.244	21370
848.379	21192
848.515	21226
848.65	21146
848.786	21146
848.921	21310
849.057	21264
849.192	21264
849.328	21138
849.463	21157
849.598	21127
849.734	21093
849.869	21039
850.004	20910
850.14	20891
850.275	20982
850.41	20887
850.545	20895
850.68	20819
850.815	21013
850.95	20861
851.085	21188
851.22	21085
851.355	21032
851.49	20982
851.625	20921
851.76	20887
851.895	20853
852.03	20792
852.165	20967
852.299	20952
852.434	21032
852.569	20925
852.703	20921
852.838	20986
852.973	21085
853.107	21032
853.242	20880
853.376	20826
853.511	20606
853.645	20815
853.78	20914
853.914	20823
854.048	20716
854.183	20861
854.317	20849
854.451	21043
854.585	20765
854.72	20792
854.854	20967
854.988	20674
855.122	20659
855.256	20636
855.39	20887
855.524	20693
855.658	20880
855.792	20800
855.926	20777
856.06	20804
856.194	20842
856.327	20746
856.461	20712
856.595	20781
856.729	20651
856.862	20902
856.996	20921
857.13	20800
857.263	20918
857.397	20823
857.53	20773
857.664	20883
857.797	20788
857.931	20937
858.064	20800
858.197	20804
858.331	20712
858.464	20617
858.597	20716
858.731	20739
858.864	20689
858.997	20708
859.13	20754
859.263	20781
859.396	20708
859.529	20804
859.662	20788
859.795	20819
859.928	20849
860.061	20849
860.194	20902
860.327	20727
860.46	20838
860.592	20975
860.725	20899
860.858	20853
860.99	20815
861.123	20701
861.256	20762
861.388	20834
861.521	21408
861.653	20617
861.786	20457
861.918	20632
862.05	20689
862.183	20667
862.315	20636
862.447	20762
862.58	20712
862.712	20450
862.844	20518
862.976	20659
863.108	20469
863.24	20963
863.372	20339
863.504	20454
863.636	20530
863.768	20530
863.9	20484
864.032	20450
864.164	20358
864.296	20476
864.428	20514
864.559	20507
864.691	20602
864.823	20476
864.954	20621
865.086	20514
865.217	20484
865.349	20370
865.48	20370
865.612	20351
865.743	20533
865.875	20309
866.006	20415
866.137	20377
866.269	20381
866.4	20313
866.531	20393
866.662	20195
866.793	20320
866.924	20286
867.055	20415
867.186	20377
867.317	20393
867.448	20370
867.579	20408
867.71	20252
867.841	20309
867.972	20358
868.103	20339
868.233	20400
868.364	20438
868.495	20511
868.625	20617
868.756	20564
868.886	20457
869.017	20583
869.147	20667
869.278	20609
869.408	20526
869.539	20606
869.669	20697
869.799	20526
869.929	20815
870.06	20731
870.19	20864
870.32	20902
870.45	20963
870.58	21077
870.71	21096
870.84	20921
870.97	21173
871.1	20861
871.23	21112
871.36	21146
871.489	21058
871.619	21192
871.749	21127
871.879	21188
872.008	21348
872.138	21302
872.267	21222
872.397	21062
872.526	21032
872.656	20990
872.785	21093
872.915	21249
873.044	21226
873.173	21173
873.303	21272
873.432	21264
873.561	21287
873.69	21222
873.819	20990
873.948	21302
874.077	21195
874.206	21085
874.335	21146
874.464	21256
874.593	21553
874.722	21378
874.851	21488
874.979	21435
875.108	21523
875.237	21496
875.365	21336
875.494	21443
875.623	21447
875.751	21359
875.88	21500
876.008	21572
876.136	21766
876.265	21838
876.393	21983
876.521	21945
876.65	21888
876.778	21857
876.906	21808
877.034	21739
877.162	21812
877.29	21713
877.418	21892
877.546	21865
877.674	21835
877.802	21759
877.93	21812
878.058	21633
878.185	21743
878.313	21732
878.441	21854
878.568	21637
878.696	21739
878.824	21747
878.951	21751
879.079	22112
879.206	22021
879.333	21953
879.461	21812
879.588	21888
879.715	21972
879.842	22131
879.97	21793
880.097	21732
880.224	21709
880.351	21656
880.478	21576
880.605	21564
880.732	21580
880.859	21785
880.986	21698
881.112	21644
881.239	21542
881.366	21363
881.493	21389
881.619	21249
881.746	21306
881.872	21214
881.999	21199
882.125	21119
882.252	21298
882.378	21123
882.505	21180
882.631	21154
882.757	20925
882.883	20986
883.01	20872
883.136	20769
883.262	20899
883.388	20792
883.514	20861
883.64	20941
883.766	20849
883.892	20598
884.018	20731
884.143	20861
884.269	20941
884.395	20701
884.52	20511
884.646	20682
884.772	20526
884.897	20473
885.023	20598
885.148	20739
885.274	20754
885.399	20644
885.524	20526
885.65	20640
885.775	20602
885.9	20602
886.025	20651
886.15	20750
886.275	20590
886.4	20579
886.525	20526
886.65	20564
886.775	20644
886.9	20724
887.025	20792
887.149	20450
887.274	20328
887.399	20214
887.523	20317
887.648	20256
887.773	20176
887.897	20374
888.021	20423
888.146	20282
888.27	20358
888.395	20568
888.519	20328
888.643	20423
888.767	20294
888.891	20332
889.015	20122
889.139	20210
889.263	20069
889.387	20221
889.511	20339
889.635	20237
889.759	20035
889.883	20180
890.006	20130
890.13	20183
890.254	20012
890.377	20073
890.501	19750
890.624	19818
890.748	19951
890.871	19772
890.995	19594
891.118	19700
891.241	19788
891.364	19788
891.488	19826
891.611	19776
891.734	19651
891.857	19761
891.98	19757
892.103	19757
892.226	19742
892.349	19689
892.471	19544
892.594	19624
892.717	19708
892.839	19597
892.962	19674
893.085	19628
893.207	19719
893.33	19449
893.452	19628
893.575	19670
893.697	19597
893.819	19769
893.941	19871
894.064	19772
894.186	19548
894.308	19567
894.43	19742
894.552	19753
894.674	19776
894.796	19434
894.918	19540
895.04	19575
895.161	19772
895.283	19753
895.405	19597
895.526	19635
895.648	19575
895.769	19685
895.891	19624
896.012	19818
896.134	19586
896.255	19674
896.376	19674
896.498	19719
896.619	19605
896.74	19632
896.861	19677
896.982	19974
897.103	20240
897.224	20008
897.345	19791
897.466	19811
897.587	19807
897.708	20039
897.828	20005
897.949	19909
898.07	19723
898.19	19708
898.311	19955
898.431	19791
898.552	19761
898.672	19887
898.792	19932
898.913	19913
899.033	19833
899.153	19685
899.273	19685
899.393	19616
899.513	19731
899.633	19670
899.753	19624
899.873	19609
899.993	19647
900.113	19510
900.232	19575
900.352	19495
900.472	19514
900.591	19400
900.711	19457
900.83	19278
900.95	19525
901.069	19502
901.189	19266
901.308	19088
901.427	18901
901.546	19019
901.665	18970
901.784	18970
901.904	18878
902.023	18711
902.141	18639
902.26	18555
902.379	18684
902.498	18483
902.617	18407
902.735	18566
902.854	18517
902.973	18395
903.091	18083
903.21	18174
903.328	18197
903.446	18155
903.565	17980
903.683	18034
903.801	17866
903.919	17984
904.038	17946
904.156	17817
904.274	17843
904.392	17710
904.51	17649
904.627	17798
904.745	17672
904.863	17798
904.981	17592
905.098	17383
905.216	17383
905.334	17467
905.451	17417
905.569	17387
905.686	17505
905.803	17345
905.921	17269
906.038	17376
906.155	17307
906.272	17124
906.389	17083
906.506	16976
906.623	16885
906.74	17018
906.857	16881
906.974	16858
907.091	16930
907.208	17170
907.324	16946
907.441	16839
907.557	16759
907.674	16717
907.79	16656
907.907	16596
908.023	16694
908.139	16649
908.256	16679
908.372	16626
908.488	16527
908.604	16474
908.72	16508
908.836	16371
908.952	16462
909.068	16405
909.184	16527
909.3	16398
909.415	16360
909.531	16360
909.647	16188
909.762	16177
909.878	16185
909.993	16215
910.108	16154
910.224	16101
910.339	16078
910.454	16055
910.57	15922
910.685	15873
910.8	16219
910.915	15960
911.03	15979
911.145	15751
911.259	15732
911.374	15766
911.489	15675
911.604	15625
911.718	15622
911.833	15466
911.947	15382
912.062	15416
912.176	15564
912.291	15515
912.405	15481
912.519	15701
912.633	15709
912.748	15580
912.862	15572
912.976	15264
913.09	15211
913.204	15332
913.318	15317
913.431	15412
913.545	15428
913.659	15477
913.772	15260
913.886	15161
914	15097
914.113	15192
914.226	15169
914.34	15138
914.453	15036
914.566	15173
914.68	14956
914.793	14929
914.906	14773
915.019	14739
915.132	14655
915.245	14796
915.358	14720
915.47	14590
915.583	14720
915.696	14743
915.809	14731
915.921	14857
916.034	14743
916.146	14644
916.259	14590
916.371	14823
916.483	14606
916.595	14560
916.708	14571
916.82	14530
916.932	14575
917.044	14499
917.156	14541
917.268	14533
917.38	14427
917.491	14415
917.603	14423
917.715	14518
917.826	14454
917.938	14336
918.049	14233
918.161	14313
918.272	14530
918.384	14393
918.495	14271
918.606	14218
918.717	14107
918.828	14248
918.939	14103
919.05	14206
919.161	14202
919.272	13898
919.383	14103
919.494	14149
919.604	14446
919.715	14199
919.826	14134
919.936	14073
920.047	14180
920.157	14214
920.267	14339
920.378	14214
920.488	14031
920.598	14229
920.708	14396
920.818	14275
920.928	14317
921.038	14423
921.148	14396
921.258	14081
921.368	13963
921.477	13887
921.587	13921
921.697	13811
921.806	13906
921.916	13746
922.025	13620
922.134	13449
922.244	13506
922.353	13521
922.462	13438
922.571	13381
922.68	13168
922.789	13156
922.898	13107
923.007	13110
923.116	13183
923.224	13236
923.333	13206
923.442	13012
923.55	12973
923.659	13099
923.767	13072
923.876	13008
923.984	13080
924.092	12878
924.201	12977
924.309	12951
924.417	12916
924.525	12787
924.633	12882
924.741	13784
924.849	12601
924.956	12749
925.064	12604
925.172	12620
925.279	12604
925.387	12563
925.494	12589
925.602	12734
925.709	12623
925.816	12601
925.924	12528
926.031	12711
926.138	12627
926.245	12620
926.352	12414
926.459	12566
926.566	12642
926.673	12456
926.779	12334
926.886	12384
926.993	12235
927.099	12289
927.206	12148
927.312	12121
927.419	12186
927.525	12201
927.631	12106
927.737	11992
927.843	11992
927.95	11912
928.056	11977
928.162	12076
928.267	12022
928.373	12612
928.479	12106
928.585	11882
928.69	11961
928.796	12045
928.901	11843
929.007	11779
929.112	11942
929.218	11847
929.323	11714
929.428	11718
929.533	11863
929.638	11642
929.743	11714
929.848	11760
929.953	11714
930.058	11570
930.163	11429
930.267	11471
930.372	11501
930.477	11440
930.581	11589
930.685	11433
930.79	11353
930.894	11292
930.998	11303
931.103	11417
931.207	11067
931.311	10968
931.415	10930
931.519	10675
931.623	10721
