Data from test_V78500241_802.txt Node
Date: Fri Mar 25 15:15:26 CST 2022
User: usil
Spectrometer: V785-0024
Trigger mode: 0
Integration Time (sec): 4.000000E-1
Scans to average: 1
Nonlinearity correction enabled: false
Boxcar width: 0
Storing dark spectrum: false
XAxis mode: Wavelengths
Number of Pixels in Spectrum: 1024
>>>>>Begin Spectral Data<<<<<
801.071	28280
801.214	28192
801.356	28112
801.499	28006
801.641	27800
801.783	27686
801.926	27930
802.068	27732
802.211	27728
802.353	27610
802.496	27458
802.638	27583
802.78	27481
802.923	27454
803.065	27443
803.208	27401
803.35	27557
803.492	27580
803.635	27622
803.777	27469
803.919	27667
804.061	27876
804.204	27751
804.346	27656
804.488	27614
804.63	27770
804.773	27485
804.915	27686
805.057	27873
805.199	27553
805.341	27713
805.483	27941
805.626	27838
805.768	27561
805.91	27701
806.052	27850
806.194	27747
806.336	28131
806.478	27975
806.62	27998
806.762	27892
806.904	28063
807.046	28424
807.188	28128
807.33	28207
807.472	28257
807.614	28177
807.756	28253
807.898	28120
808.04	28109
808.182	28093
808.324	28002
808.465	28226
808.607	28352
808.749	28417
808.891	28493
809.033	28687
809.174	28504
809.316	28455
809.458	28447
809.6	28554
809.741	28630
809.883	28634
810.025	28801
810.166	28668
810.308	28721
810.45	28828
810.591	28702
810.733	28554
810.875	28668
811.016	28500
811.158	28390
811.299	28687
811.441	28713
811.582	28733
811.724	28390
811.865	28405
812.007	28504
812.148	28588
812.29	28554
812.431	28733
812.573	28904
812.714	28908
812.855	29109
812.997	28980
813.138	29231
813.279	29109
813.421	29064
813.562	29128
813.703	28869
813.845	28801
813.986	28421
814.127	28344
814.268	28230
814.41	28295
814.551	28230
814.692	28287
814.833	28135
814.974	28246
815.115	28401
815.256	28078
815.397	28093
815.539	28150
815.68	27861
815.821	27964
815.962	27991
816.103	28010
816.244	27964
816.385	27846
816.526	27713
816.666	27599
816.807	27469
816.948	27633
817.089	27736
817.23	27614
817.371	27553
817.512	27538
817.653	27488
817.793	27386
817.934	27473
818.075	27595
818.216	27427
818.356	27424
818.497	27542
818.638	27329
818.778	27321
818.919	27435
819.06	27363
819.2	27374
819.341	27473
819.481	27523
819.622	27766
819.762	27766
819.903	27831
820.043	27732
820.184	27679
820.324	27720
820.465	27618
820.605	27709
820.746	27880
820.886	27477
821.026	27603
821.167	27523
821.307	27671
821.447	27583
821.588	27439
821.728	27131
821.868	27211
822.008	27032
822.149	26811
822.289	27005
822.429	26678
822.569	26606
822.709	26727
822.849	26579
822.99	26568
823.13	26568
823.27	26480
823.41	26233
823.55	26229
823.69	26396
823.83	26351
823.97	26309
824.11	26107
824.25	26039
824.389	26054
824.529	26248
824.669	26206
824.809	26370
824.949	26389
825.089	26271
825.228	26301
825.368	25917
825.508	25963
825.648	25925
825.787	26073
825.927	26119
826.067	25955
826.206	26043
826.346	26103
826.485	26027
826.625	25974
826.765	26168
826.904	26069
827.044	25795
827.183	25776
827.323	25750
827.462	25890
827.601	25788
827.741	25731
827.88	25704
828.02	25693
828.159	25689
828.298	25689
828.437	25879
828.577	25590
828.716	25795
828.855	25647
828.994	25499
829.134	25381
829.273	25377
829.412	25339
829.551	25415
829.69	25411
829.829	25282
829.968	25567
830.107	25544
830.246	25487
830.385	25430
830.524	25308
830.663	25232
830.802	25217
830.941	25046
831.08	25046
831.219	25084
831.357	25194
831.496	25175
831.635	25095
831.774	25118
831.913	24989
832.051	24882
832.19	24920
832.329	24848
832.467	24726
832.606	24795
832.744	24658
832.883	24688
833.022	24635
833.16	24791
833.299	24848
833.437	24715
833.576	24654
833.714	24764
833.852	24779
833.991	24878
834.129	24913
834.267	24810
834.406	24787
834.544	24909
834.682	24840
834.821	24863
834.959	24951
835.097	24692
835.235	24897
835.373	24798
835.511	24772
835.65	24612
835.788	24616
835.926	24384
836.064	24452
836.202	24422
836.34	24665
836.478	24623
836.615	24597
836.753	24681
836.891	24726
837.029	24604
837.167	24620
837.305	24574
837.443	24407
837.58	24410
837.718	24559
837.856	24555
837.993	24456
838.131	24483
838.269	24399
838.406	24327
838.544	24243
838.681	24110
838.819	24114
838.956	23916
839.094	23790
839.231	23923
839.369	24125
839.506	24273
839.643	24148
839.781	23927
839.918	23908
840.055	23813
840.193	23912
840.33	23756
840.467	23790
840.604	23794
840.742	24038
840.879	23718
841.016	23680
841.153	23760
841.29	23912
841.427	23863
841.564	23874
841.701	23859
841.838	23699
841.975	23630
842.112	23710
842.249	23699
842.385	23474
842.522	23733
842.659	23615
842.796	23551
842.933	23627
843.069	23490
843.206	23531
843.343	23630
843.479	23539
843.616	23478
843.752	23478
843.889	23482
844.025	23463
844.162	23216
844.298	23474
844.435	23440
844.571	23368
844.708	23299
844.844	23558
844.98	23478
845.117	23474
845.253	23246
845.389	23235
845.525	23277
845.661	23189
845.798	23067
845.934	23128
846.07	23079
846.206	23136
846.342	23147
846.478	23147
846.614	22847
846.75	22752
846.886	22942
847.022	22904
847.158	22854
847.294	22771
847.429	22820
847.565	22805
847.701	23079
847.837	22519
847.972	22440
848.108	22717
848.244	22565
848.379	22459
848.515	22398
848.65	22443
848.786	22363
848.921	22489
849.057	22561
849.192	22523
849.328	22447
849.463	22333
849.598	22398
849.734	22386
849.869	22223
850.004	22154
850.14	22223
850.275	22181
850.41	22291
850.545	22097
850.68	22086
850.815	22192
850.95	22242
851.085	22367
851.22	22303
851.355	22211
851.49	22166
851.625	22078
851.76	22211
851.895	22029
852.03	21945
852.165	22196
852.299	22253
852.434	22242
852.569	22105
852.703	22120
852.838	22204
852.973	22402
853.107	22303
853.242	22219
853.376	21998
853.511	21785
853.645	21926
853.78	22188
853.914	22109
854.048	21926
854.183	21994
854.317	21972
854.451	22101
854.585	22017
854.72	22032
854.854	22040
854.988	21846
855.122	22048
855.256	21884
855.39	21873
855.524	21991
855.658	22097
855.792	21964
855.926	21918
856.06	22029
856.194	22036
856.327	21956
856.461	21884
856.595	21937
856.729	21854
856.862	22120
856.996	22002
857.13	22013
857.263	22044
857.397	22090
857.53	21979
857.664	22013
857.797	22021
857.931	21968
858.064	21937
858.197	22063
858.331	21911
858.464	21888
858.597	21876
858.731	22032
858.864	21926
858.997	21964
859.13	22078
859.263	21964
859.396	21987
859.529	21972
859.662	21987
859.795	21907
859.928	21991
860.061	22135
860.194	22105
860.327	22048
860.46	22128
860.592	22086
860.725	22139
860.858	22090
860.99	22067
861.123	22010
861.256	21975
861.388	22002
861.521	22755
861.653	21774
861.786	21800
861.918	21812
862.05	21869
862.183	21926
862.315	21930
862.447	22025
862.58	21960
862.712	21698
862.844	21648
862.976	21709
863.108	21644
863.24	22128
863.372	21583
863.504	21591
863.636	21736
863.768	21690
863.9	21770
864.032	21682
864.164	21675
864.296	21686
864.428	21857
864.559	21888
864.691	21793
864.823	21789
864.954	21667
865.086	21652
865.217	21553
865.349	21557
865.48	21705
865.612	21561
865.743	21663
865.875	21690
866.006	21458
866.137	21424
866.269	21485
866.4	21492
866.531	21568
866.662	21530
866.793	21564
866.924	21526
867.055	21515
867.186	21481
867.317	21424
867.448	21515
867.579	21534
867.71	21507
867.841	21443
867.972	21454
868.103	21523
868.233	21561
868.364	21462
868.495	21629
868.625	21572
868.756	21743
868.886	21610
869.017	21736
869.147	21838
869.278	21911
869.408	21785
869.539	21797
869.669	21781
869.799	21816
869.929	21934
870.06	21789
870.19	22105
870.32	22074
870.45	22017
870.58	22070
870.71	22196
870.84	22238
870.97	22147
871.1	22177
871.23	22344
871.36	22432
871.489	22284
871.619	22344
871.749	22265
871.879	22234
872.008	22436
872.138	22299
872.267	22333
872.397	22169
872.526	22120
872.656	22051
872.785	22230
872.915	22299
873.044	22413
873.173	22333
873.303	22405
873.432	22348
873.561	22462
873.69	22348
873.819	22257
873.948	22478
874.077	22287
874.206	22360
874.335	22333
874.464	22512
874.593	22626
874.722	22618
874.851	22508
874.979	22546
875.108	22485
875.237	22504
875.365	22421
875.494	22535
875.623	22634
875.751	22546
875.88	22523
876.008	22744
876.136	22767
876.265	22961
876.393	23037
876.521	23086
876.65	23086
876.778	23098
876.906	22801
877.034	22877
877.162	23003
877.29	22828
877.418	22801
877.546	22957
877.674	22949
877.802	22930
877.93	22858
878.058	22866
878.185	22778
878.313	22820
878.441	22930
878.568	22797
878.696	22858
878.824	22961
878.951	22987
879.079	23162
879.206	23254
879.333	22984
879.461	22923
879.588	22987
879.715	23113
879.842	23174
879.97	22953
880.097	22782
880.224	22626
880.351	22767
880.478	22869
880.605	22607
880.732	22641
880.859	23025
880.986	22755
881.112	22801
881.239	22538
881.366	22523
881.493	22455
881.619	22344
881.746	22337
881.872	22310
881.999	22363
882.125	22207
882.252	22371
882.378	22223
882.505	22424
882.631	22105
882.757	21956
882.883	22128
883.01	21903
883.136	21880
883.262	21808
883.388	21717
883.514	21994
883.64	21979
883.766	21922
883.892	21690
884.018	21705
884.143	21915
884.269	22013
884.395	21652
884.52	21583
884.646	21690
884.772	21637
884.897	21587
885.023	21743
885.148	21648
885.274	21743
885.399	21682
885.524	21583
885.65	21576
885.775	21603
885.9	21492
886.025	21789
886.15	21542
886.275	21469
886.4	21458
886.525	21682
886.65	21610
886.775	21428
886.9	21751
887.025	21759
887.149	21656
887.274	21408
887.399	21439
887.523	21378
887.648	21321
887.773	21233
887.897	21443
888.021	21340
888.146	21294
888.27	21458
888.395	21408
888.519	21428
888.643	21454
888.767	21279
888.891	21408
889.015	21184
889.139	21192
889.263	21123
889.387	21226
889.511	21435
889.635	21279
889.759	21188
889.883	21146
890.006	21157
890.13	21176
890.254	21047
890.377	21085
890.501	20895
890.624	20906
890.748	20887
890.871	20739
890.995	20712
891.118	20689
891.241	20857
891.364	20800
891.488	20956
891.611	20720
891.734	20804
891.857	20819
891.98	20754
892.103	20750
892.226	20705
892.349	20743
892.471	20518
892.594	20716
892.717	20785
892.839	20606
892.962	20560
893.085	20785
893.207	20609
893.33	20571
893.452	20530
893.575	20708
893.697	20575
893.819	20807
893.941	20895
894.064	20708
894.186	20549
894.308	20606
894.43	20625
894.552	20792
894.674	20674
894.796	20606
894.918	20590
895.04	20461
895.161	20670
895.283	20716
895.405	20526
895.526	20609
895.648	20507
895.769	20575
895.891	20629
896.012	20644
896.134	20617
896.255	20651
896.376	20575
896.498	20564
896.619	20590
896.74	20442
896.861	20781
896.982	20956
897.103	20941
897.224	20921
897.345	20800
897.466	20701
897.587	20921
897.708	20864
897.828	20895
897.949	20644
898.07	20617
898.19	20640
898.311	20956
898.431	20830
898.552	20777
898.672	20887
898.792	20861
898.913	20853
899.033	20625
899.153	20590
899.273	20598
899.393	20659
899.513	20495
899.633	20598
899.753	20697
899.873	20533
899.993	20541
900.113	20514
900.232	20575
900.352	20465
900.472	20385
900.591	20324
900.711	20381
900.83	20332
900.95	20412
901.069	20507
901.189	20256
901.308	20065
901.427	19932
901.546	19894
901.665	19879
901.784	19856
901.904	19742
902.023	19788
902.141	19449
902.26	19464
902.379	19533
902.498	19407
902.617	19301
902.735	19426
902.854	19460
902.973	19388
903.091	19057
903.21	19019
903.328	19103
903.446	19103
903.565	19034
903.683	18901
903.801	18726
903.919	18844
904.038	18772
904.156	18741
904.274	18760
904.392	18547
904.51	18589
904.627	18635
904.745	18677
904.863	18677
904.981	18414
905.098	18262
905.216	18357
905.334	18410
905.451	18300
905.569	18228
905.686	18357
905.803	18277
905.921	18266
906.038	18121
906.155	18140
906.272	17996
906.389	17996
906.506	17897
906.623	17904
906.74	17817
906.857	17779
906.974	17771
907.091	17832
907.208	17992
907.324	17942
907.441	17653
907.557	17585
907.674	17558
907.79	17516
907.907	17589
908.023	17573
908.139	17573
908.256	17505
908.372	17391
908.488	17387
908.604	17360
908.72	17204
908.836	17376
908.952	17216
909.068	17197
909.184	17395
909.3	17242
909.415	17360
909.531	17299
909.647	17033
909.762	17010
909.878	16892
909.993	16957
910.108	16999
910.224	16995
910.339	16930
910.454	16915
910.57	16801
910.685	16790
910.8	16980
910.915	16866
911.03	16797
911.145	16588
911.259	16538
911.374	16634
911.489	16462
911.604	16367
911.718	16295
911.833	16363
911.947	16249
912.062	16105
912.176	16265
912.291	16238
912.405	16219
912.519	16470
912.633	16497
912.748	16363
912.862	16276
912.976	16101
913.09	15892
913.204	16082
913.318	16143
913.431	16230
913.545	16207
913.659	16318
913.772	16173
913.886	16017
914	15903
914.113	15991
914.226	16025
914.34	15991
914.453	15732
914.566	15945
914.68	15842
914.793	15724
914.906	15553
915.019	15504
915.132	15420
915.245	15428
915.358	15515
915.47	15511
915.583	15466
915.696	15591
915.809	15519
915.921	15595
916.034	15462
916.146	15340
916.259	15260
916.371	15477
916.483	15519
916.595	15329
916.708	15412
916.82	15340
916.932	15287
917.044	15222
917.156	15252
917.268	15123
917.38	15218
917.491	15203
917.603	15233
917.715	15237
917.826	15135
917.938	15108
918.049	15028
918.161	15009
918.272	15313
918.384	15245
918.495	15039
918.606	14941
918.717	14765
918.828	14842
918.939	14933
919.05	14644
919.161	14891
919.272	14727
919.383	14804
919.494	14872
919.604	15074
919.715	14906
919.826	14701
919.936	14868
920.047	14933
920.157	14933
920.267	14971
920.378	14842
920.488	14769
920.598	14963
920.708	15150
920.818	14929
920.928	14998
921.038	15077
921.148	15119
921.258	14754
921.368	14689
921.477	14590
921.587	14617
921.697	14480
921.806	14640
921.916	14438
922.025	14176
922.134	14161
922.244	14180
922.353	14153
922.462	14168
922.571	14024
922.68	13868
922.789	13803
922.898	13879
923.007	13887
923.116	13928
923.224	13849
923.333	13898
923.442	13719
923.55	13677
923.659	13700
923.767	13765
923.876	13624
923.984	13670
924.092	13586
924.201	13575
924.309	13620
924.417	13578
924.525	13495
924.633	13571
924.741	14187
924.849	13244
924.956	13453
925.064	13316
925.172	13213
925.279	13244
925.387	13343
925.494	13213
925.602	13384
925.709	13251
925.816	13107
925.924	13145
926.031	13289
926.138	13221
926.245	13209
926.352	13057
926.459	13240
926.566	13259
926.673	13110
926.779	13015
926.886	12954
926.993	12875
927.099	12867
927.206	12837
927.312	12753
927.419	12795
927.525	12768
927.631	12840
927.737	12711
927.843	12681
927.95	12547
928.056	12563
928.162	12601
928.267	12608
928.373	13316
928.479	12692
928.585	12486
928.69	12582
928.796	12650
928.901	12486
929.007	12323
929.112	12536
929.218	12536
929.323	12414
929.428	12357
929.533	12551
929.638	12273
929.743	12365
929.848	12308
929.953	12216
930.058	12186
930.163	12003
930.267	12102
930.372	12171
930.477	11965
930.581	12182
930.685	11935
930.79	11878
930.894	12007
930.998	11912
931.103	11969
931.207	11630
931.311	11642
931.415	11421
931.519	11216
931.623	11299
