Data from test_V78500241_411.txt Node
Date: Fri Mar 25 15:12:43 CST 2022
User: usil
Spectrometer: V785-0024
Trigger mode: 0
Integration Time (sec): 4.000000E-1
Scans to average: 1
Nonlinearity correction enabled: false
Boxcar width: 0
Storing dark spectrum: false
XAxis mode: Wavelengths
Number of Pixels in Spectrum: 1024
>>>>>Begin Spectral Data<<<<<
801.071	27104
801.214	27108
801.356	26785
801.499	26819
801.641	26739
801.783	26613
801.926	26925
802.068	26701
802.211	26609
802.353	26530
802.496	26495
802.638	26427
802.78	26339
802.923	26202
803.065	26358
803.208	26473
803.35	26343
803.492	26438
803.635	26549
803.777	26507
803.919	26385
804.061	26815
804.204	26484
804.346	26381
804.488	26343
804.63	26518
804.773	26374
804.915	26488
805.057	26655
805.199	26476
805.341	26674
805.483	26625
805.626	26560
805.768	26480
805.91	26522
806.052	26602
806.194	26613
806.336	26617
806.478	26689
806.62	26640
806.762	26693
806.904	26861
807.046	27123
807.188	26994
807.33	26982
807.472	26944
807.614	26914
807.756	26982
807.898	26838
808.04	26781
808.182	26716
808.324	26792
808.465	26796
808.607	27024
808.749	27180
808.891	27131
809.033	27443
809.174	27256
809.316	27310
809.458	27211
809.6	27089
809.741	27302
809.883	27317
810.025	27401
810.166	27397
810.308	27515
810.45	27519
810.591	27317
810.733	27203
810.875	27146
811.016	27131
811.158	27184
811.299	27195
811.441	27268
811.582	27264
811.724	27157
811.865	27112
812.007	27169
812.148	27093
812.29	27188
812.431	27294
812.573	27557
812.714	27515
812.855	27583
812.997	27835
813.138	27888
813.279	27956
813.421	27568
813.562	27720
813.703	27492
813.845	27564
813.986	27127
814.127	27013
814.268	26982
814.41	26883
814.551	26807
814.692	26956
814.833	26667
814.974	26739
815.115	26815
815.256	26587
815.397	26648
815.539	26655
815.68	26693
815.821	26579
815.962	26705
816.103	26507
816.244	26480
816.385	26434
816.526	26374
816.666	26286
816.807	26073
816.948	26225
817.089	26149
817.23	26195
817.371	26134
817.512	26084
817.653	26164
817.793	26081
817.934	26164
818.075	26016
818.216	26142
818.356	26027
818.497	25944
818.638	25841
818.778	25822
818.919	25875
819.06	25997
819.2	25959
819.341	25986
819.481	26005
819.622	26313
819.762	26518
819.903	26396
820.043	26286
820.184	26343
820.324	26267
820.465	26351
820.605	26294
820.746	26263
820.886	26092
821.026	26282
821.167	26210
821.307	26309
821.447	26119
821.588	26043
821.728	25917
821.868	25727
822.008	25601
822.149	25502
822.289	25559
822.429	25388
822.569	25156
822.709	25354
822.849	25023
822.99	25122
823.13	24981
823.27	25050
823.41	24821
823.55	24833
823.69	24992
823.83	24928
823.97	24863
824.11	24646
824.25	24776
824.389	24703
824.529	24719
824.669	24772
824.809	24791
824.949	24726
825.089	24882
825.228	24817
825.368	24642
825.508	24517
825.648	24464
825.787	24616
825.927	24711
826.067	24536
826.206	24574
826.346	24635
826.485	24711
826.625	24574
826.765	24604
826.904	24783
827.044	24323
827.183	24304
827.323	24266
827.462	24346
827.601	24391
827.741	24334
827.88	24273
828.02	24273
828.159	24174
828.298	24319
828.437	24369
828.577	24220
828.716	24532
828.855	24243
828.994	24125
829.134	24022
829.273	24087
829.412	23893
829.551	23916
829.69	23977
829.829	23999
829.968	24163
830.107	24254
830.246	24049
830.385	23920
830.524	24007
830.663	23779
830.802	23760
830.941	23714
831.08	23638
831.219	23615
831.357	23684
831.496	23882
831.635	23600
831.774	23573
831.913	23474
832.051	23509
832.19	23444
832.329	23501
832.467	23376
832.606	23372
832.744	23387
832.883	23387
833.022	23395
833.16	23273
833.299	23349
833.437	23391
833.576	23433
833.714	23459
833.852	23448
833.991	23345
834.129	23623
834.267	23528
834.406	23562
834.544	23440
834.682	23421
834.821	23303
834.959	23535
835.097	23421
835.235	23379
835.373	23395
835.511	23364
835.65	23315
835.788	23242
835.926	23147
836.064	23048
836.202	23060
836.34	23307
836.478	23410
836.615	23277
836.753	23231
836.891	23334
837.029	23303
837.167	23128
837.305	23094
837.443	23067
837.58	23166
837.718	23258
837.856	23162
837.993	23079
838.131	23197
838.269	22961
838.406	23003
838.544	22927
838.681	22885
838.819	22885
838.956	22531
839.094	22596
839.231	22782
839.369	22748
839.506	22942
839.643	22930
839.781	22596
839.918	22504
840.055	22615
840.193	22630
840.33	22478
840.467	22645
840.604	22748
840.742	22790
840.879	22447
841.016	22599
841.153	22375
841.29	22626
841.427	22588
841.564	22622
841.701	22516
841.838	22470
841.975	22322
842.112	22523
842.249	22352
842.385	22337
842.522	22447
842.659	22382
842.796	22284
842.933	22249
843.069	22337
843.206	22219
843.343	22379
843.479	22257
843.616	22226
843.752	22135
843.889	22173
844.025	22242
844.162	21994
844.298	22287
844.435	22105
844.571	22010
844.708	22154
844.844	22162
844.98	22249
845.117	22185
845.253	22131
845.389	21998
845.525	21964
845.661	21960
845.798	21850
845.934	21778
846.07	21682
846.206	21797
846.342	21899
846.478	21850
846.614	21625
846.75	21553
846.886	21595
847.022	21618
847.158	21538
847.294	21561
847.429	21572
847.565	21720
847.701	21846
847.837	21355
847.972	21222
848.108	21481
848.244	21249
848.379	21256
848.515	21211
848.65	21203
848.786	21256
848.921	21211
849.057	21260
849.192	21127
849.328	21321
849.463	21150
849.598	21192
849.734	20994
849.869	21039
850.004	20925
850.14	20967
850.275	20906
850.41	20910
850.545	20842
850.68	20838
850.815	21062
850.95	20868
851.085	21032
851.22	21032
851.355	20910
851.49	20838
851.625	20883
851.76	20815
851.895	20762
852.03	20872
852.165	20921
852.299	20960
852.434	20880
852.569	21127
852.703	20876
852.838	21009
852.973	21066
853.107	21039
853.242	20762
853.376	20765
853.511	20594
853.645	20678
853.78	20880
853.914	20716
854.048	20720
854.183	20750
854.317	20792
854.451	20963
854.585	20853
854.72	20754
854.854	20781
854.988	20648
855.122	20720
855.256	20636
855.39	20655
855.524	20868
855.658	20830
855.792	20762
855.926	20754
856.06	20693
856.194	20746
856.327	20743
856.461	20674
856.595	20716
856.729	20746
856.862	20853
856.996	20792
857.13	20849
857.263	20864
857.397	20792
857.53	20758
857.664	20743
857.797	20773
857.931	20853
858.064	20731
858.197	20705
858.331	20701
858.464	20849
858.597	20701
858.731	20678
858.864	20705
858.997	20640
859.13	20697
859.263	20746
859.396	20845
859.529	20758
859.662	20743
859.795	20682
859.928	20625
860.061	20998
860.194	20948
860.327	20754
860.46	20777
860.592	20834
860.725	20804
860.858	20853
860.99	20739
861.123	20617
861.256	20503
861.388	20739
861.521	21492
861.653	20617
861.786	20469
861.918	20583
862.05	20693
862.183	20640
862.315	20674
862.447	20769
862.58	20594
862.712	20446
862.844	20434
862.976	20492
863.108	20530
863.24	20990
863.372	20423
863.504	20476
863.636	20446
863.768	20442
863.9	20362
864.032	20271
864.164	20358
864.296	20526
864.428	20545
864.559	20632
864.691	20400
864.823	20480
864.954	20404
865.086	20389
865.217	20328
865.349	20362
865.48	20317
865.612	20343
865.743	20492
865.875	20362
866.006	20381
866.137	20377
866.269	20286
866.4	20244
866.531	20240
866.662	20263
866.793	20176
866.924	20195
867.055	20290
867.186	20275
867.317	20187
867.448	20191
867.579	20218
867.71	20278
867.841	20271
867.972	20240
868.103	20362
868.233	20343
868.364	20298
868.495	20438
868.625	20522
868.756	20712
868.886	20461
869.017	20446
869.147	20648
869.278	20636
869.408	20598
869.539	20571
869.669	20530
869.799	20651
869.929	20705
870.06	20667
870.19	20800
870.32	20864
870.45	20887
870.58	20967
870.71	21066
870.84	21036
870.97	20960
871.1	20952
871.23	21024
871.36	21108
871.489	21055
871.619	21150
871.749	21005
871.879	21184
872.008	21150
872.138	21123
872.267	21161
872.397	21085
872.526	20967
872.656	20861
872.785	20933
872.915	20998
873.044	21192
873.173	21135
873.303	21169
873.432	21150
873.561	21336
873.69	21176
873.819	21176
873.948	21275
874.077	21192
874.206	21142
874.335	21207
874.464	21294
874.593	21279
874.722	21363
874.851	21443
874.979	21454
875.108	21496
875.237	21447
875.365	21325
875.494	21306
875.623	21458
875.751	21389
875.88	21329
876.008	21473
876.136	21671
876.265	21922
876.393	22044
876.521	21884
876.65	21835
876.778	21789
876.906	21789
877.034	21660
877.162	21857
877.29	21694
877.418	21854
877.546	21778
877.674	21698
877.802	21759
877.93	21648
878.058	21739
878.185	21583
878.313	21667
878.441	21675
878.568	21652
878.696	21614
878.824	21762
878.951	21747
879.079	22013
879.206	22074
879.333	21956
879.461	21701
879.588	21819
879.715	21918
879.842	21937
879.97	21873
880.097	21534
880.224	21462
880.351	21572
880.478	21545
880.605	21454
880.732	21492
880.859	21766
880.986	21629
881.112	21576
881.239	21473
881.366	21298
881.493	21317
881.619	21199
881.746	21279
881.872	21146
881.999	21123
882.125	21036
882.252	21173
882.378	21074
882.505	21184
882.631	20994
882.757	20948
882.883	20929
883.01	20914
883.136	20739
883.262	20758
883.388	20826
883.514	20830
883.64	20830
883.766	20807
883.892	20522
884.018	20708
884.143	20811
884.269	20872
884.395	20552
884.52	20446
884.646	20495
884.772	20442
884.897	20438
885.023	20629
885.148	20655
885.274	20621
885.399	20632
885.524	20518
885.65	20503
885.775	20469
885.9	20495
886.025	20590
886.15	20552
886.275	20465
886.4	20301
886.525	20522
886.65	20412
886.775	20419
886.9	20530
887.025	20701
887.149	20522
887.274	20233
887.399	20164
887.523	20339
887.648	20206
887.773	20168
887.897	20347
888.021	20267
888.146	20282
888.27	20286
888.395	20377
888.519	20240
888.643	20362
888.767	20271
888.891	20233
889.015	20100
889.139	20214
889.263	20176
889.387	20111
889.511	20309
889.635	20138
889.759	20031
889.883	20054
890.006	20134
890.13	20115
890.254	20008
890.377	20062
890.501	19807
890.624	19871
890.748	19860
890.871	19864
890.995	19563
891.118	19464
891.241	19628
891.364	19696
891.488	19818
891.611	19639
891.734	19689
891.857	19753
891.98	19639
892.103	19632
892.226	19605
892.349	19544
892.471	19441
892.594	19601
892.717	19674
892.839	19514
892.962	19613
893.085	19624
893.207	19533
893.33	19441
893.452	19510
893.575	19620
893.697	19506
893.819	19780
893.941	19719
894.064	19620
894.186	19434
894.308	19411
894.43	19639
894.552	19731
894.674	19655
894.796	19438
894.918	19556
895.04	19518
895.161	19529
895.283	19632
895.405	19571
895.526	19571
895.648	19483
895.769	19571
895.891	19552
896.012	19704
896.134	19559
896.255	19533
896.376	19480
896.498	19483
896.619	19590
896.74	19552
896.861	19677
896.982	19951
897.103	20081
897.224	19871
897.345	19776
897.466	19723
897.587	19837
897.708	19879
897.828	19845
897.949	19807
898.07	19594
898.19	19689
898.311	19814
898.431	19818
898.552	19738
898.672	19803
898.792	19913
898.913	19780
899.033	19727
899.153	19658
899.273	19540
899.393	19529
899.513	19556
899.633	19521
899.753	19510
899.873	19434
899.993	19491
900.113	19460
900.232	19434
900.352	19472
900.472	19331
900.591	19251
900.711	19453
900.83	19225
900.95	19407
901.069	19327
901.189	19236
901.308	19050
901.427	18867
901.546	18901
901.665	18932
901.784	18875
901.904	18783
902.023	18635
902.141	18528
902.26	18433
902.379	18467
902.498	18445
902.617	18467
902.735	18391
902.854	18395
902.973	18426
903.091	18190
903.21	18102
903.328	18057
903.446	18129
903.565	17836
903.683	17954
903.801	17946
903.919	17946
904.038	17908
904.156	17718
904.274	17786
904.392	17748
904.51	17649
904.627	17710
904.745	17786
904.863	17756
904.981	17463
905.098	17353
905.216	17364
905.334	17452
905.451	17360
905.569	17277
905.686	17429
905.803	17467
905.921	17174
906.038	17326
906.155	17223
906.272	17117
906.389	17117
906.506	17006
906.623	17064
906.74	16915
906.857	16873
906.974	16908
907.091	17010
907.208	16980
907.324	16892
907.441	16790
907.557	16675
907.674	16710
907.79	16588
907.907	16622
908.023	16729
908.139	16656
908.256	16611
908.372	16569
908.488	16527
908.604	16443
908.72	16314
908.836	16379
908.952	16405
909.068	16455
909.184	16508
909.3	16455
909.415	16344
909.531	16428
909.647	16131
909.762	15949
909.878	16097
909.993	16116
910.108	16124
910.224	16086
910.339	16128
910.454	15956
910.57	15800
910.685	15899
910.8	16162
910.915	16032
911.03	15983
911.145	15724
911.259	15679
911.374	15816
911.489	15709
911.604	15629
911.718	15496
911.833	15466
911.947	15416
912.062	15230
912.176	15336
912.291	15454
912.405	15329
912.519	15633
912.633	15663
912.748	15519
912.862	15355
912.976	15294
913.09	15150
913.204	15150
913.318	15389
913.431	15420
913.545	15386
913.659	15367
913.772	15256
913.886	15230
914	15051
914.113	15165
914.226	15203
914.34	15123
914.453	14944
914.566	15203
914.68	15009
914.793	14960
914.906	14754
915.019	14796
915.132	14701
915.245	14716
915.358	14659
915.47	14746
915.583	14746
915.696	14849
915.809	14796
915.921	14788
916.034	14689
916.146	14598
916.259	14568
916.371	14708
916.483	14629
916.595	14499
916.708	14549
916.82	14564
916.932	14427
917.044	14480
917.156	14446
917.268	14233
917.38	14381
917.491	14355
917.603	14412
917.715	14408
917.826	14465
917.938	14389
918.049	14145
918.161	14343
918.272	14511
918.384	14526
918.495	14442
918.606	14115
918.717	14187
918.828	14161
918.939	14214
919.05	14126
919.161	14195
919.272	13951
919.383	13947
919.494	14187
919.604	14320
919.715	14081
919.826	14123
919.936	14119
920.047	14195
920.157	14134
920.267	14389
920.378	14142
920.488	14176
920.598	14374
920.708	14423
920.818	14248
920.928	14282
921.038	14362
921.148	14351
921.258	14164
921.368	13986
921.477	13989
921.587	13947
921.697	13769
921.806	13947
921.916	13753
922.025	13597
922.134	13502
922.244	13518
922.353	13605
922.462	13403
922.571	13362
922.68	13171
922.789	13175
922.898	13175
923.007	13065
923.116	13122
923.224	13107
923.333	13149
923.442	13103
923.55	12909
923.659	13080
923.767	13042
923.876	13053
923.984	13042
924.092	12821
924.201	12875
924.309	12947
924.417	12928
924.525	12932
924.633	12954
924.741	13772
924.849	12612
924.956	12909
925.064	12623
925.172	12574
925.279	12547
925.387	12585
925.494	12612
925.602	12749
925.709	12650
925.816	12506
925.924	12665
926.031	12677
926.138	12574
926.245	12532
926.352	12513
926.459	12654
926.566	12658
926.673	12532
926.779	12357
926.886	12330
926.993	12254
927.099	12266
927.206	12125
927.312	12121
927.419	12254
927.525	12167
927.631	12220
927.737	12060
927.843	12022
927.95	11901
928.056	12087
928.162	12034
928.267	12114
928.373	12681
928.479	12140
928.585	11889
928.69	11961
928.796	12007
928.901	11882
929.007	11805
929.112	11843
929.218	11794
929.323	11722
929.428	11714
929.533	11897
929.638	11604
929.743	11718
929.848	11729
929.953	11611
930.058	11627
930.163	11421
930.267	11452
930.372	11543
930.477	11410
930.581	11604
930.685	11455
930.79	11330
930.894	11307
930.998	11345
931.103	11421
931.207	11109
931.311	10949
931.415	10816
931.519	10763
931.623	10812
