Data from test_V78500241_2565.txt Node
Date: Fri Mar 25 15:27:43 CST 2022
User: usil
Spectrometer: V785-0024
Trigger mode: 0
Integration Time (sec): 4.000000E-1
Scans to average: 1
Nonlinearity correction enabled: false
Boxcar width: 0
Storing dark spectrum: false
XAxis mode: Wavelengths
Number of Pixels in Spectrum: 1024
>>>>>Begin Spectral Data<<<<<
801.071	27291
801.214	27310
801.356	26998
801.499	26914
801.641	26861
801.783	26815
801.926	26887
802.068	26792
802.211	26792
802.353	26655
802.496	26629
802.638	26514
802.78	26442
802.923	26495
803.065	26408
803.208	26358
803.35	26480
803.492	26644
803.635	26587
803.777	26419
803.919	26792
804.061	27047
804.204	26606
804.346	26663
804.488	26564
804.63	26530
804.773	26636
804.915	26655
805.057	26613
805.199	26545
805.341	26785
805.483	26819
805.626	26864
805.768	26552
805.91	26868
806.052	26819
806.194	26842
806.336	26956
806.478	26727
806.62	26712
806.762	27039
806.904	26982
807.046	27237
807.188	27310
807.33	27207
807.472	27306
807.614	26998
807.756	27230
807.898	26914
808.04	26979
808.182	26944
808.324	27070
808.465	27165
808.607	27268
808.749	27313
808.891	27526
809.033	27496
809.174	27363
809.316	27496
809.458	27351
809.6	27317
809.741	27439
809.883	27492
810.025	27572
810.166	27622
810.308	27667
810.45	27648
810.591	27481
810.733	27454
810.875	27207
811.016	27313
811.158	27306
811.299	27511
811.441	27507
811.582	27641
811.724	27393
811.865	27329
812.007	27211
812.148	27389
812.29	27393
812.431	27450
812.573	27709
812.714	27903
812.855	27694
812.997	27873
813.138	27873
813.279	27991
813.421	27865
813.562	27705
813.703	27656
813.845	27443
813.986	27279
814.127	27116
814.268	27131
814.41	26883
814.551	27036
814.692	27138
814.833	27039
814.974	26929
815.115	26933
815.256	26804
815.397	26769
815.539	26929
815.68	26765
815.821	26781
815.962	26845
816.103	26880
816.244	26640
816.385	26606
816.526	26476
816.666	26404
816.807	26191
816.948	26332
817.089	26473
817.23	26457
817.371	26320
817.512	26313
817.653	26343
817.793	26062
817.934	26320
818.075	26309
818.216	26214
818.356	26282
818.497	26092
818.638	25997
818.778	26005
818.919	26077
819.06	25993
819.2	26168
819.341	26206
819.481	26271
819.622	26324
819.762	26571
819.903	26511
820.043	26507
820.184	26355
820.324	26286
820.465	26400
820.605	26370
820.746	26492
820.886	26324
821.026	26362
821.167	26473
821.307	26465
821.447	26339
821.588	26191
821.728	26096
821.868	25974
822.008	25860
822.149	25818
822.289	25830
822.429	25609
822.569	25464
822.709	25468
822.849	25274
822.99	25324
823.13	25270
823.27	25304
823.41	25137
823.55	24920
823.69	25194
823.83	25042
823.97	25110
824.11	24928
824.25	24772
824.389	25012
824.529	25046
824.669	24821
824.809	25084
824.949	24924
825.089	24920
825.228	24909
825.368	24639
825.508	24791
825.648	24795
825.787	24821
825.927	24768
826.067	24760
826.206	24867
826.346	24844
826.485	24817
826.625	24768
826.765	24787
826.904	24875
827.044	24532
827.183	24559
827.323	24540
827.462	24502
827.601	24433
827.741	24475
827.88	24528
828.02	24521
828.159	24342
828.298	24498
828.437	24585
828.577	24464
828.716	24483
828.855	24441
828.994	24254
829.134	24155
829.273	24304
829.412	24254
829.551	24190
829.69	24254
829.829	24228
829.968	24350
830.107	24266
830.246	24258
830.385	24201
830.524	24182
830.663	24018
830.802	23916
830.941	23885
831.08	23771
831.219	23843
831.357	23889
831.496	24015
831.635	23874
831.774	23771
831.913	23775
832.051	23615
832.19	23691
832.329	23608
832.467	23600
832.606	23383
832.744	23417
832.883	23391
833.022	23501
833.16	23440
833.299	23539
833.437	23531
833.576	23615
833.714	23661
833.852	23528
833.991	23710
834.129	23566
834.267	23638
834.406	23543
834.544	23726
834.682	23596
834.821	23566
834.959	23783
835.097	23455
835.235	23737
835.373	23627
835.511	23687
835.65	23459
835.788	23448
835.926	23337
836.064	23292
836.202	23398
836.34	23467
836.478	23474
836.615	23531
836.753	23406
836.891	23444
837.029	23406
837.167	23398
837.305	23376
837.443	23311
837.58	23151
837.718	23414
837.856	23299
837.993	23181
838.131	23341
838.269	23048
838.406	23143
838.544	23277
838.681	22965
838.819	22938
838.956	22759
839.094	22793
839.231	22889
839.369	22942
839.506	23208
839.643	22991
839.781	22816
839.918	22637
840.055	22733
840.193	22744
840.33	22660
840.467	22599
840.604	22915
840.742	23033
840.879	22615
841.016	22675
841.153	22557
841.29	22835
841.427	22497
841.564	22637
841.701	22713
841.838	22691
841.975	22596
842.112	22698
842.249	22535
842.385	22588
842.522	22771
842.659	22694
842.796	22451
842.933	22508
843.069	22405
843.206	22341
843.343	22508
843.479	22531
843.616	22504
843.752	22257
843.889	22196
844.025	22382
844.162	22329
844.298	22409
844.435	22280
844.571	22299
844.708	22192
844.844	22459
844.98	22280
845.117	22284
845.253	22211
845.389	21941
845.525	22128
845.661	21972
845.798	21949
845.934	21895
846.07	22036
846.206	21987
846.342	22048
846.478	21987
846.614	21854
846.75	21633
846.886	21641
847.022	21846
847.158	21804
847.294	21793
847.429	21686
847.565	21694
847.701	21835
847.837	21386
847.972	21473
848.108	21477
848.244	21595
848.379	21393
848.515	21359
848.65	21367
848.786	21321
848.921	21378
849.057	21279
849.192	21351
849.328	21367
849.463	21218
849.598	21363
849.734	21161
849.869	21195
850.004	21024
850.14	21077
850.275	21055
850.41	20933
850.545	20990
850.68	21112
850.815	20925
850.95	21013
851.085	21226
851.22	21051
851.355	21169
851.49	21062
851.625	21062
851.76	20952
851.895	20967
852.03	20982
852.165	21074
852.299	21116
852.434	21176
852.569	21119
852.703	21131
852.838	21081
852.973	21173
853.107	21112
853.242	20944
853.376	20902
853.511	20815
853.645	20861
853.78	20944
853.914	20937
854.048	20944
854.183	20944
854.317	20899
854.451	21085
854.585	20811
854.72	20807
854.854	20899
854.988	20800
855.122	20807
855.256	20705
855.39	20853
855.524	21001
855.658	20864
855.792	21001
855.926	20891
856.06	20944
856.194	20998
856.327	20914
856.461	20765
856.595	20819
856.729	20902
856.862	20986
856.996	20902
857.13	20994
857.263	21009
857.397	21024
857.53	20838
857.664	20929
857.797	21074
857.931	21013
858.064	20963
858.197	21043
858.331	20902
858.464	20777
858.597	20773
858.731	20895
858.864	20864
858.997	20876
859.13	20868
859.263	20906
859.396	20982
859.529	20944
859.662	20815
859.795	20944
859.928	20982
860.061	21013
860.194	21135
860.327	20937
860.46	20925
860.592	21017
860.725	21081
860.858	20986
860.99	20982
861.123	20750
861.256	20720
861.388	20910
861.521	21477
861.653	20762
861.786	20716
861.918	20712
862.05	20823
862.183	20659
862.315	20830
862.447	20937
862.58	20941
862.712	20636
862.844	20689
862.976	20678
863.108	20762
863.24	21192
863.372	20621
863.504	20533
863.636	20617
863.768	20823
863.9	20686
864.032	20602
864.164	20476
864.296	20670
864.428	20697
864.559	20644
864.691	20678
864.823	20530
864.954	20655
865.086	20648
865.217	20571
865.349	20351
865.48	20492
865.612	20484
865.743	20518
865.875	20518
866.006	20339
866.137	20552
866.269	20537
866.4	20438
866.531	20560
866.662	20442
866.793	20408
866.924	20385
867.055	20530
867.186	20393
867.317	20419
867.448	20450
867.579	20301
867.71	20347
867.841	20282
867.972	20484
868.103	20461
868.233	20461
868.364	20469
868.495	20571
868.625	20689
868.756	20815
868.886	20598
869.017	20670
869.147	20902
869.278	20792
869.408	20823
869.539	20708
869.669	20731
869.799	20781
869.929	20815
870.06	20731
870.19	20963
870.32	20998
870.45	21028
870.58	21039
870.71	21294
870.84	21272
870.97	21066
871.1	21077
871.23	21188
871.36	21336
871.489	21313
871.619	21321
871.749	21233
871.879	21279
872.008	21401
872.138	21321
872.267	21245
872.397	21131
872.526	21157
872.656	21184
872.785	21279
872.915	21230
873.044	21359
873.173	21256
873.303	21294
873.432	21283
873.561	21416
873.69	21367
873.819	21329
873.948	21370
874.077	21386
874.206	21245
874.335	21256
874.464	21408
874.593	21447
874.722	21625
874.851	21599
874.979	21606
875.108	21743
875.237	21504
875.365	21408
875.494	21447
875.623	21595
875.751	21435
875.88	21713
876.008	21667
876.136	21705
876.265	22048
876.393	22074
876.521	22029
876.65	21941
876.778	21895
876.906	21816
877.034	21861
877.162	21918
877.29	21781
877.418	21926
877.546	21899
877.674	21846
877.802	21819
877.93	21953
878.058	21956
878.185	21728
878.313	21800
878.441	21785
878.568	21743
878.696	21759
878.824	21964
878.951	22051
879.079	22051
879.206	22185
879.333	22006
879.461	22017
879.588	22032
879.715	21968
879.842	22226
879.97	22051
880.097	21747
880.224	21652
880.351	21808
880.478	21778
880.605	21739
880.732	21743
880.859	21766
880.986	21785
881.112	21869
881.239	21610
881.366	21462
881.493	21416
881.619	21325
881.746	21382
881.872	21374
881.999	21287
882.125	21329
882.252	21431
882.378	21268
882.505	21351
882.631	21173
882.757	21013
882.883	21058
883.01	21039
883.136	20975
883.262	20979
883.388	20952
883.514	21184
883.64	21001
883.766	21020
883.892	20921
884.018	20830
884.143	21032
884.269	21055
884.395	20720
884.52	20659
884.646	20727
884.772	20503
884.897	20552
885.023	20621
885.148	20705
885.274	20838
885.399	20769
885.524	20651
885.65	20705
885.775	20769
885.9	20682
886.025	20682
886.15	20750
886.275	20632
886.4	20606
886.525	20514
886.65	20545
886.775	20648
886.9	20663
887.025	20807
887.149	20693
887.274	20446
887.399	20469
887.523	20438
887.648	20347
887.773	20362
887.897	20465
888.021	20442
888.146	20427
888.27	20454
888.395	20511
888.519	20377
888.643	20446
888.767	20488
888.891	20320
889.015	20244
889.139	20366
889.263	20275
889.387	20298
889.511	20389
889.635	20423
889.759	20115
889.883	20278
890.006	20187
890.13	20339
890.254	20069
890.377	20191
890.501	20157
890.624	19860
890.748	20081
890.871	19860
890.995	19928
891.118	19738
891.241	19757
891.364	19696
891.488	19879
891.611	19807
891.734	19753
891.857	19898
891.98	19769
892.103	19936
892.226	19841
892.349	19708
892.471	19651
892.594	19753
892.717	19772
892.839	19674
892.962	19689
893.085	19712
893.207	19670
893.33	19628
893.452	19590
893.575	19814
893.697	19643
893.819	19925
893.941	19765
894.064	19932
894.186	19734
894.308	19575
894.43	19799
894.552	19841
894.674	19807
894.796	19723
894.918	19651
895.04	19738
895.161	19784
895.283	19696
895.405	19670
895.526	19780
895.648	19666
895.769	19658
895.891	19601
896.012	19769
896.134	19723
896.255	19791
896.376	19624
896.498	19677
896.619	19757
896.74	19647
896.861	19685
896.982	19925
897.103	20081
897.224	20096
897.345	19909
897.466	19925
897.587	19772
897.708	20005
897.828	19921
897.949	19928
898.07	19742
898.19	19928
898.311	19989
898.431	19883
898.552	19989
898.672	20138
898.792	20062
898.913	19917
899.033	19849
899.153	19750
899.273	19605
899.393	19696
899.513	19681
899.633	19761
899.753	19738
899.873	19647
899.993	19605
900.113	19578
900.232	19639
900.352	19567
900.472	19529
900.591	19441
900.711	19548
900.83	19392
900.95	19525
901.069	19499
901.189	19438
901.308	19118
901.427	18977
901.546	19065
901.665	19168
901.784	19122
901.904	18844
902.023	18840
902.141	18597
902.26	18635
902.379	18703
902.498	18525
902.617	18525
902.735	18608
902.854	18528
902.973	18410
903.091	18296
903.21	18281
903.328	18220
903.446	18129
903.565	18121
903.683	18102
903.801	17927
903.919	17958
904.038	17984
904.156	17897
904.274	17992
904.392	17821
904.51	17870
904.627	17912
904.745	17882
904.863	17882
904.981	17646
905.098	17509
905.216	17505
905.334	17589
905.451	17585
905.569	17455
905.686	17455
905.803	17520
905.921	17349
906.038	17364
906.155	17258
906.272	17151
906.389	17185
906.506	17098
906.623	17143
906.74	17003
906.857	16911
906.974	16927
907.091	17220
907.208	17162
907.324	17231
907.441	16927
907.557	16820
907.674	16801
907.79	16713
907.907	16733
908.023	16839
908.139	16740
908.256	16698
908.372	16637
908.488	16736
908.604	16546
908.72	16519
908.836	16508
908.952	16489
909.068	16497
909.184	16531
909.3	16611
909.415	16489
909.531	16451
909.647	16303
909.762	16272
909.878	16120
909.993	16246
910.108	16139
910.224	16188
910.339	16226
910.454	16059
910.57	15968
910.685	16002
910.8	16230
910.915	16086
911.03	16036
911.145	15876
911.259	15774
911.374	15869
911.489	15736
911.604	15698
911.718	15466
911.833	15671
911.947	15477
912.062	15431
912.176	15599
912.291	15720
912.405	15625
912.519	15816
912.633	15698
912.748	15576
912.862	15492
912.976	15450
913.09	15291
913.204	15321
913.318	15367
913.431	15523
913.545	15431
913.659	15416
913.772	15241
913.886	15218
914	15203
914.113	15272
914.226	15260
914.34	15272
914.453	15169
914.566	15169
914.68	15058
914.793	15085
914.906	14826
915.019	14861
915.132	14830
915.245	14788
915.358	14891
915.47	14739
915.583	14842
915.696	14781
915.809	14876
915.921	14838
916.034	14754
916.146	14708
916.259	14682
916.371	14629
916.483	14674
916.595	14659
916.708	14670
916.82	14575
916.932	14560
917.044	14575
917.156	14511
917.268	14415
917.38	14598
917.491	14492
917.603	14377
917.715	14541
917.826	14560
917.938	14423
918.049	14271
918.161	14454
918.272	14587
918.384	14457
918.495	14431
918.606	14138
918.717	14252
918.828	14237
918.939	14313
919.05	14161
919.161	14103
919.272	14043
919.383	14145
919.494	14294
919.604	14469
919.715	14187
919.826	14123
919.936	14176
920.047	14320
920.157	14233
920.267	14473
920.378	14244
920.488	14100
920.598	14313
920.708	14404
920.818	14351
920.928	14324
921.038	14400
921.148	14374
921.258	14134
921.368	14043
921.477	13959
921.587	13940
921.697	13776
921.806	13989
921.916	13791
922.025	13609
922.134	13476
922.244	13525
922.353	13590
922.462	13445
922.571	13483
922.68	13308
922.789	13400
922.898	13206
923.007	13202
923.116	13149
923.224	13232
923.333	13206
923.442	13118
923.55	13099
923.659	13156
923.767	13190
923.876	13065
923.984	13050
924.092	12993
924.201	13072
924.309	13012
924.417	12981
924.525	12958
924.633	12905
924.741	13803
924.849	12707
924.956	12817
925.064	12738
925.172	12589
925.279	12677
925.387	12677
925.494	12658
925.602	12779
925.709	12650
925.816	12646
925.924	12597
926.031	12715
926.138	12582
926.245	12677
926.352	12555
926.459	12681
926.566	12631
926.673	12544
926.779	12490
926.886	12445
926.993	12296
927.099	12148
927.206	12232
927.312	12220
927.419	12201
927.525	12205
927.631	12334
927.737	12144
927.843	12117
927.95	11923
928.056	12060
928.162	12087
928.267	12072
928.373	12612
928.479	12178
928.585	11961
928.69	11939
928.796	12049
928.901	11927
929.007	11703
929.112	11923
929.218	11958
929.323	11813
929.428	11748
929.533	11870
929.638	11649
929.743	11722
929.848	11775
929.953	11737
930.058	11562
930.163	11532
930.267	11452
930.372	11558
930.477	11421
930.581	11718
930.685	11581
930.79	11444
930.894	11341
930.998	11360
931.103	11459
931.207	11231
931.311	11048
931.415	10942
931.519	10824
931.623	10782
