Data from test_V78500241_1250.txt Node
Date: Fri Mar 25 15:18:33 CST 2022
User: usil
Spectrometer: V785-0024
Trigger mode: 0
Integration Time (sec): 4.000000E-1
Scans to average: 1
Nonlinearity correction enabled: false
Boxcar width: 0
Storing dark spectrum: false
XAxis mode: Wavelengths
Number of Pixels in Spectrum: 1024
>>>>>Begin Spectral Data<<<<<
801.071	27842
801.214	27705
801.356	27439
801.499	27291
801.641	27272
801.783	27237
801.926	27256
802.068	27245
802.211	27165
802.353	27024
802.496	26921
802.638	26944
802.78	26861
802.923	26762
803.065	26727
803.208	26762
803.35	26948
803.492	26937
803.635	26994
803.777	27043
803.919	26910
804.061	27367
804.204	27093
804.346	26944
804.488	26807
804.63	27096
804.773	26891
804.915	26986
805.057	27279
805.199	26990
805.341	27131
805.483	27199
805.626	27230
805.768	27142
805.91	27150
806.052	27336
806.194	27039
806.336	27412
806.478	27287
806.62	27157
806.762	27462
806.904	27431
807.046	27823
807.188	27667
807.33	27545
807.472	27797
807.614	27507
807.756	27686
807.898	27447
808.04	27416
808.182	27374
808.324	27393
808.465	27469
808.607	27591
808.749	27838
808.891	27873
809.033	27918
809.174	27861
809.316	27644
809.458	27838
809.6	27720
809.741	27964
809.883	27983
810.025	28021
810.166	28120
810.308	28086
810.45	27956
810.591	28059
810.733	27709
810.875	27800
811.016	27724
811.158	27675
811.299	27945
811.441	28032
811.582	27842
811.724	27850
811.865	27736
812.007	27865
812.148	27922
812.29	27964
812.431	28013
812.573	28002
812.714	28185
812.855	28306
812.997	28542
813.138	28546
813.279	28440
813.421	28443
813.562	28276
813.703	27937
813.845	28048
813.986	27686
814.127	27488
814.268	27477
814.41	27488
814.551	27355
814.692	27580
814.833	27477
814.974	27416
815.115	27454
815.256	27317
815.397	27363
815.539	27264
815.68	27146
815.821	27321
815.962	27401
816.103	27195
816.244	27268
816.385	27051
816.526	27096
816.666	26902
816.807	26880
816.948	26921
817.089	26929
817.23	26986
817.371	26708
817.512	26720
817.653	26765
817.793	26781
817.934	26823
818.075	26826
818.216	26899
818.356	26678
818.497	26674
818.638	26484
818.778	26530
818.919	26533
819.06	26568
819.2	26735
819.341	26788
819.481	26663
819.622	26880
819.762	27047
819.903	27058
820.043	26948
820.184	26906
820.324	26895
820.465	27062
820.605	26925
820.746	26834
820.886	26678
821.026	26815
821.167	26883
821.307	26830
821.447	26883
821.588	26625
821.728	26438
821.868	26446
822.008	26259
822.149	26278
822.289	26168
822.429	26035
822.569	25788
822.709	25845
822.849	25746
822.99	25845
823.13	25708
823.27	25594
823.41	25613
823.55	25510
823.69	25571
823.83	25643
823.97	25343
824.11	25293
824.25	25434
824.389	25430
824.529	25544
824.669	25457
824.809	25594
824.949	25571
825.089	25510
825.228	25460
825.368	25362
825.508	25358
825.648	25331
825.787	25411
825.927	25381
826.067	25255
826.206	25251
826.346	25301
826.485	25278
826.625	25236
826.765	25362
826.904	25335
827.044	25065
827.183	25031
827.323	24951
827.462	25126
827.601	24966
827.741	24947
827.88	24943
828.02	24871
828.159	24954
828.298	25012
828.437	25004
828.577	24973
828.716	25156
828.855	24920
828.994	24669
829.134	24639
829.273	24726
829.412	24570
829.551	24703
829.69	24654
829.829	24528
829.968	24837
830.107	24639
830.246	24661
830.385	24684
830.524	24627
830.663	24616
830.802	24395
830.941	24327
831.08	24289
831.219	24391
831.357	24365
831.496	24582
831.635	24308
831.774	24281
831.913	24144
832.051	24102
832.19	24194
832.329	24087
832.467	24060
832.606	23980
832.744	24018
832.883	23996
833.022	24064
833.16	23870
833.299	24083
833.437	24034
833.576	24152
833.714	24007
833.852	24011
833.991	23992
834.129	24182
834.267	24133
834.406	24095
834.544	24186
834.682	23996
834.821	24018
834.959	24201
835.097	23912
835.235	24114
835.373	23988
835.511	23992
835.65	23885
835.788	23843
835.926	23794
836.064	23703
836.202	23680
836.34	23927
836.478	23950
836.615	23935
836.753	23870
836.891	24026
837.029	23870
837.167	23935
837.305	23802
837.443	23863
837.58	23687
837.718	23786
837.856	23741
837.993	23729
838.131	23642
838.269	23634
838.406	23592
838.544	23566
838.681	23433
838.819	23383
838.956	23292
839.094	23239
839.231	23121
839.369	23383
839.506	23699
839.643	23478
839.781	23242
839.918	23048
840.055	23159
840.193	23189
840.33	23166
840.467	23185
840.604	23147
840.742	23417
840.879	23067
841.016	22995
841.153	23113
841.29	23086
841.427	23193
841.564	23151
841.701	23056
841.838	23147
841.975	22961
842.112	23003
842.249	22972
842.385	22900
842.522	23041
842.659	23025
842.796	22877
842.933	22957
843.069	22915
843.206	22831
843.343	23056
843.479	22938
843.616	22866
843.752	22634
843.889	22634
844.025	22831
844.162	22653
844.298	22824
844.435	22649
844.571	22649
844.708	22698
844.844	22740
844.98	22717
845.117	22771
845.253	22516
845.389	22512
845.525	22504
845.661	22561
845.798	22386
845.934	22440
846.07	22253
846.206	22413
846.342	22455
846.478	22402
846.614	22185
846.75	22048
846.886	22086
847.022	22200
847.158	22139
847.294	22150
847.429	22268
847.565	22116
847.701	22379
847.837	21850
847.972	21823
848.108	22002
848.244	21895
848.379	21793
848.515	21793
848.65	21739
848.786	21808
848.921	21804
849.057	21823
849.192	21785
849.328	21728
849.463	21808
849.598	21759
849.734	21572
849.869	21641
850.004	21466
850.14	21469
850.275	21488
850.41	21412
850.545	21511
850.68	21519
850.815	21519
850.95	21454
851.085	21694
851.22	21507
851.355	21568
851.49	21439
851.625	21500
851.76	21492
851.895	21435
852.03	21447
852.165	21439
852.299	21561
852.434	21542
852.569	21507
852.703	21595
852.838	21583
852.973	21618
853.107	21534
853.242	21408
853.376	21313
853.511	21184
853.645	21268
853.78	21462
853.914	21382
854.048	21279
854.183	21329
854.317	21214
854.451	21519
854.585	21321
854.72	21218
854.854	21374
854.988	21214
855.122	21306
855.256	21279
855.39	21317
855.524	21317
855.658	21359
855.792	21291
855.926	21340
856.06	21424
856.194	21367
856.327	21222
856.461	21321
856.595	21367
856.729	21283
856.862	21287
856.996	21348
857.13	21397
857.263	21355
857.397	21439
857.53	21176
857.664	21443
857.797	21473
857.931	21439
858.064	21256
858.197	21393
858.331	21363
858.464	21321
858.597	21214
858.731	21272
858.864	21279
858.997	21207
859.13	21199
859.263	21355
859.396	21378
859.529	21283
859.662	21275
859.795	21367
859.928	21424
860.061	21370
860.194	21530
860.327	21298
860.46	21332
860.592	21443
860.725	21450
860.858	21447
860.99	21279
861.123	21165
861.256	21306
861.388	21275
861.521	21975
861.653	21161
861.786	21116
861.918	21264
862.05	21230
862.183	21313
862.315	21214
862.447	21321
862.58	21268
862.712	21108
862.844	20979
862.976	21104
863.108	21108
863.24	21344
863.372	20990
863.504	21009
863.636	21020
863.768	21047
863.9	21051
864.032	20777
864.164	20880
864.296	21036
864.428	21062
864.559	21154
864.691	20963
864.823	21093
864.954	21051
865.086	20986
865.217	20868
865.349	20861
865.48	20883
865.612	20895
865.743	21108
865.875	20914
866.006	20830
866.137	20925
866.269	20967
866.4	20906
866.531	20971
866.662	20800
866.793	20849
866.924	20876
867.055	20902
867.186	20887
867.317	20845
867.448	20682
867.579	20712
867.71	20777
867.841	20758
867.972	20853
868.103	20925
868.233	20960
868.364	20876
868.495	20910
868.625	21043
868.756	21188
868.886	21058
869.017	21020
869.147	21287
869.278	21252
869.408	21070
869.539	21150
869.669	21093
869.799	21146
869.929	21245
870.06	21283
870.19	21272
870.32	21344
870.45	21374
870.58	21473
870.71	21549
870.84	21458
870.97	21431
871.1	21431
871.23	21606
871.36	21762
871.489	21606
871.619	21618
871.749	21701
871.879	21679
872.008	21793
872.138	21705
872.267	21865
872.397	21591
872.526	21504
872.656	21450
872.785	21599
872.915	21701
873.044	21751
873.173	21663
873.303	21724
873.432	21732
873.561	21865
873.69	21751
873.819	21564
873.948	21827
874.077	21675
874.206	21618
874.335	21679
874.464	21766
874.593	21876
874.722	21884
874.851	21911
874.979	21895
875.108	22070
875.237	21937
875.365	21930
875.494	21915
875.623	22109
875.751	21956
875.88	22002
876.008	22048
876.136	22131
876.265	22261
876.393	22443
876.521	22333
876.65	22462
876.778	22246
876.906	22261
877.034	22226
877.162	22287
877.29	22147
877.418	22204
877.546	22386
877.674	22242
877.802	22219
877.93	22230
878.058	22303
878.185	22166
878.313	22257
878.441	22230
878.568	22044
878.696	22310
878.824	22348
878.951	22409
879.079	22421
879.206	22470
879.333	22386
879.461	22291
879.588	22287
879.715	22363
879.842	22565
879.97	22322
880.097	21968
880.224	22166
880.351	22242
880.478	22173
880.605	21994
880.732	22070
880.859	22265
880.986	22090
881.112	22150
881.239	22044
881.366	21831
881.493	21797
881.619	21682
881.746	21667
881.872	21671
881.999	21724
882.125	21709
882.252	21603
882.378	21698
882.505	21732
882.631	21553
882.757	21450
882.883	21549
883.01	21325
883.136	21382
883.262	21211
883.388	21195
883.514	21447
883.64	21393
883.766	21230
883.892	21096
884.018	21195
884.143	21336
884.269	21492
884.395	21146
884.52	21055
884.646	20933
884.772	20880
884.897	20937
885.023	21005
885.148	21077
885.274	21165
885.399	21047
885.524	21051
885.65	21047
885.775	21066
885.9	20956
886.025	21051
886.15	20902
886.275	20910
886.4	21032
886.525	20967
886.65	20876
886.775	20948
886.9	21085
887.025	21222
887.149	21051
887.274	20777
887.399	20883
887.523	20880
887.648	20792
887.773	20686
887.897	20769
888.021	20750
888.146	20655
888.27	20830
888.395	20876
888.519	20727
888.643	20762
888.767	20857
888.891	20746
889.015	20712
889.139	20777
889.263	20629
889.387	20777
889.511	20750
889.635	20735
889.759	20667
889.883	20590
890.006	20564
890.13	20655
890.254	20473
890.377	20465
890.501	20434
890.624	20199
890.748	20263
890.871	20142
890.995	20130
891.118	20084
891.241	20176
891.364	20218
891.488	20362
891.611	20267
891.734	20092
891.857	20218
891.98	20134
892.103	20233
892.226	20176
892.349	20039
892.471	19967
892.594	20103
892.717	20134
892.839	20149
892.962	20195
893.085	20195
893.207	20153
893.33	20077
893.452	19970
893.575	20122
893.697	19955
893.819	20286
893.941	20256
894.064	20164
894.186	19997
894.308	20130
894.43	20142
894.552	20278
894.674	20195
894.796	20005
894.918	20046
895.04	19997
895.161	20111
895.283	19997
895.405	20016
895.526	20031
895.648	19986
895.769	20168
895.891	20191
896.012	20126
896.134	20065
896.255	19989
896.376	20062
896.498	19978
896.619	20012
896.74	20031
896.861	20065
896.982	20370
897.103	20476
897.224	20404
897.345	20248
897.466	20218
897.587	20195
897.708	20488
897.828	20267
897.949	20122
898.07	19982
898.19	20229
898.311	20355
898.431	20218
898.552	20164
898.672	20465
898.792	20362
898.913	20187
899.033	20199
899.153	20062
899.273	20058
899.393	19997
899.513	19978
899.633	20043
899.753	19955
899.873	20016
899.993	20138
900.113	19902
900.232	19993
900.352	19913
900.472	19845
900.591	19681
900.711	19902
900.83	19765
900.95	19757
901.069	19917
901.189	19780
901.308	19468
901.427	19449
901.546	19369
901.665	19316
901.784	19335
901.904	19240
902.023	19091
902.141	19012
902.26	18783
902.379	18962
902.498	18901
902.617	18791
902.735	18939
902.854	18901
902.973	18973
903.091	18642
903.21	18578
903.328	18620
903.446	18464
903.565	18445
903.683	18475
903.801	18235
903.919	18213
904.038	18239
904.156	18209
904.274	18201
904.392	18076
904.51	18140
904.627	18152
904.745	18197
904.863	18243
904.981	17889
905.098	17813
905.216	17878
905.334	17897
905.451	17786
905.569	17790
905.686	17889
905.803	17893
905.921	17653
906.038	17653
906.155	17619
906.272	17558
906.389	17463
906.506	17444
906.623	17459
906.74	17368
906.857	17220
906.974	17307
907.091	17368
907.208	17421
907.324	17337
907.441	17212
907.557	17117
907.674	16980
907.79	17006
907.907	17025
908.023	17102
908.139	17083
908.256	16999
908.372	16885
908.488	16850
908.604	16797
908.72	16767
908.836	16805
908.952	16831
909.068	16812
909.184	16858
909.3	16774
909.415	16797
909.531	16702
909.647	16592
909.762	16470
909.878	16516
909.993	16523
910.108	16394
910.224	16413
910.339	16447
910.454	16375
910.57	16398
910.685	16234
910.8	16542
910.915	16421
911.03	16314
911.145	16109
911.259	15953
911.374	16192
911.489	16112
911.604	15968
911.718	15850
911.833	15884
911.947	15724
912.062	15633
912.176	15846
912.291	15831
912.405	15800
912.519	16044
912.633	15994
912.748	15895
912.862	15736
912.976	15717
913.09	15542
913.204	15694
913.318	15504
913.431	15701
913.545	15739
913.659	15759
913.772	15557
913.886	15511
914	15424
914.113	15511
914.226	15595
914.34	15500
914.453	15416
914.566	15504
914.68	15310
914.793	15321
914.906	15173
915.019	15104
915.132	15055
915.245	15020
915.358	15097
915.47	15039
915.583	15028
915.696	15100
915.809	15138
915.921	15237
916.034	15020
916.146	14986
916.259	15058
916.371	14975
916.483	15043
916.595	14868
916.708	14902
916.82	14902
916.932	14842
917.044	14785
917.156	14735
917.268	14758
917.38	14712
917.491	14720
917.603	14765
917.715	14785
917.826	14773
917.938	14724
918.049	14514
918.161	14651
918.272	14807
918.384	14769
918.495	14655
918.606	14560
918.717	14423
918.828	14537
918.939	14442
919.05	14431
919.161	14431
919.272	14183
919.383	14324
919.494	14495
919.604	14712
919.715	14442
919.826	14366
919.936	14461
920.047	14454
920.157	14484
920.267	14686
920.378	14396
920.488	14457
920.598	14590
920.708	14632
920.818	14610
920.928	14602
921.038	14701
921.148	14571
921.258	14419
921.368	14244
921.477	14240
921.587	14237
921.697	14069
921.806	14214
921.916	14100
922.025	13940
922.134	13791
922.244	13818
922.353	13791
922.462	13757
922.571	13544
922.68	13495
922.789	13430
922.898	13563
923.007	13445
923.116	13544
923.224	13521
923.333	13396
923.442	13304
923.55	13369
923.659	13251
923.767	13304
923.876	13293
923.984	13365
924.092	13168
924.201	13263
924.309	13259
924.417	13183
924.525	13122
924.633	13084
924.741	13921
924.849	12970
924.956	13046
925.064	13008
925.172	12863
925.279	12886
925.387	12886
925.494	12916
925.602	12966
925.709	12939
925.816	12798
925.924	12916
926.031	12852
926.138	12829
926.245	12829
926.352	12772
926.459	12844
926.566	12897
926.673	12802
926.779	12589
926.886	12612
926.993	12490
927.099	12464
927.206	12372
927.312	12410
927.419	12479
927.525	12407
927.631	12471
927.737	12308
927.843	12292
927.95	12228
928.056	12277
928.162	12300
928.267	12247
928.373	12897
928.479	12350
928.585	12057
928.69	12224
928.796	12296
928.901	12117
929.007	11935
929.112	12251
929.218	12136
929.323	12019
929.428	11999
929.533	12148
929.638	11840
929.743	11980
929.848	12030
929.953	11878
930.058	11885
930.163	11691
930.267	11741
930.372	11794
930.477	11619
930.581	11988
930.685	11821
930.79	11634
930.894	11592
930.998	11520
931.103	11627
931.207	11353
931.311	11242
931.415	11151
931.519	10965
931.623	10976
