Data from test_V78500241_463.txt Node
Date: Fri Mar 25 15:13:05 CST 2022
User: usil
Spectrometer: V785-0024
Trigger mode: 0
Integration Time (sec): 4.000000E-1
Scans to average: 1
Nonlinearity correction enabled: false
Boxcar width: 0
Storing dark spectrum: false
XAxis mode: Wavelengths
Number of Pixels in Spectrum: 1024
>>>>>Begin Spectral Data<<<<<
801.071	27294
801.214	27272
801.356	27131
801.499	27085
801.641	26948
801.783	26986
801.926	27009
802.068	26971
802.211	26819
802.353	26811
802.496	26785
802.638	26613
802.78	26625
802.923	26754
803.065	26518
803.208	26533
803.35	26583
803.492	26678
803.635	26777
803.777	26682
803.919	26735
804.061	27028
804.204	26785
804.346	26568
804.488	26651
804.63	26773
804.773	26644
804.915	26834
805.057	26758
805.199	26788
805.341	26769
805.483	26834
805.626	26762
805.768	26785
805.91	26777
806.052	26883
806.194	26819
806.336	26956
806.478	26944
806.62	26819
806.762	27032
806.904	27100
807.046	27367
807.188	27199
807.33	27260
807.472	27245
807.614	27207
807.756	27150
807.898	27218
808.04	27058
808.182	27108
808.324	27127
808.465	27024
808.607	27306
808.749	27405
808.891	27458
809.033	27610
809.174	27542
809.316	27488
809.458	27405
809.6	27492
809.741	27534
809.883	27515
810.025	27618
810.166	27751
810.308	27698
810.45	27751
810.591	27625
810.733	27595
810.875	27386
811.016	27408
811.158	27389
811.299	27663
811.441	27629
811.582	27629
811.724	27439
811.865	27435
812.007	27424
812.148	27454
812.29	27424
812.431	27534
812.573	27770
812.714	27899
812.855	27975
812.997	27949
813.138	28356
813.279	28097
813.421	28173
813.562	28120
813.703	27720
813.845	27667
813.986	27469
814.127	27302
814.268	27138
814.41	27154
814.551	27135
814.692	27230
814.833	27074
814.974	27116
815.115	27180
815.256	26960
815.397	27066
815.539	26925
815.68	26876
815.821	26819
815.962	26986
816.103	26994
816.244	26773
816.385	26705
816.526	26659
816.666	26514
816.807	26332
816.948	26511
817.089	26568
817.23	26415
817.371	26453
817.512	26408
817.653	26492
817.793	26248
817.934	26461
818.075	26415
818.216	26366
818.356	26267
818.497	26180
818.638	26214
818.778	26111
818.919	26161
819.06	26240
819.2	26343
819.341	26396
819.481	26328
819.622	26526
819.762	26853
819.903	26659
820.043	26560
820.184	26537
820.324	26545
820.465	26655
820.605	26617
820.746	26530
820.886	26336
821.026	26442
821.167	26514
821.307	26533
821.447	26480
821.588	26282
821.728	26176
821.868	26050
822.008	25936
822.149	25906
822.289	25849
822.429	25529
822.569	25502
822.709	25506
822.849	25285
822.99	25335
823.13	25381
823.27	25247
823.41	25259
823.55	25099
823.69	25156
823.83	25168
823.97	25053
824.11	25019
824.25	24977
824.389	24882
824.529	25084
824.669	25145
824.809	25152
824.949	25065
825.089	25023
825.228	25031
825.368	24829
825.508	24943
825.648	24913
825.787	24916
825.927	24916
826.067	24779
826.206	24821
826.346	24897
826.485	24795
826.625	24806
826.765	24981
826.904	24852
827.044	24707
827.183	24658
827.323	24578
827.462	24540
827.601	24513
827.741	24471
827.88	24627
828.02	24418
828.159	24536
828.298	24635
828.437	24623
828.577	24540
828.716	24623
828.855	24486
828.994	24346
829.134	24422
829.273	24395
829.412	24327
829.551	24197
829.69	24308
829.829	24266
829.968	24395
830.107	24433
830.246	24346
830.385	24277
830.524	24251
830.663	24106
830.802	23999
830.941	23798
831.08	24034
831.219	23980
831.357	23950
831.496	24136
831.635	23961
831.774	23863
831.913	23821
832.051	23729
832.19	23809
832.329	23710
832.467	23684
832.606	23509
832.744	23474
832.883	23497
833.022	23459
833.16	23642
833.299	23745
833.437	23592
833.576	23661
833.714	23642
833.852	23710
833.991	23741
834.129	23863
834.267	23851
834.406	23760
834.544	23737
834.682	23661
834.821	23608
834.959	23752
835.097	23516
835.235	23775
835.373	23558
835.511	23657
835.65	23562
835.788	23638
835.926	23288
836.064	23254
836.202	23322
836.34	23627
836.478	23623
836.615	23531
836.753	23520
836.891	23585
837.029	23395
837.167	23387
837.305	23440
837.443	23467
837.58	23433
837.718	23364
837.856	23417
837.993	23239
838.131	23368
838.269	23216
838.406	23261
838.544	23239
838.681	22991
838.819	23041
838.956	22790
839.094	22816
839.231	22995
839.369	23014
839.506	23311
839.643	23124
839.781	22858
839.918	22752
840.055	22721
840.193	22793
840.33	22763
840.467	22824
840.604	22729
840.742	23075
840.879	22660
841.016	22767
841.153	22626
841.29	22740
841.427	22622
841.564	22854
841.701	22755
841.838	22679
841.975	22634
842.112	22698
842.249	22577
842.385	22580
842.522	22694
842.659	22489
842.796	22440
842.933	22577
843.069	22538
843.206	22584
843.343	22561
843.479	22569
843.616	22531
843.752	22363
843.889	22268
844.025	22447
844.162	22242
844.298	22398
844.435	22226
844.571	22352
844.708	22341
844.844	22493
844.98	22497
845.117	22455
845.253	22226
845.389	22177
845.525	22322
845.661	22139
845.798	22093
845.934	22105
846.07	21956
846.206	22029
846.342	22181
846.478	22040
846.614	21819
846.75	21717
846.886	21747
847.022	21778
847.158	21850
847.294	21869
847.429	21838
847.565	21717
847.701	21945
847.837	21542
847.972	21580
848.108	21568
848.244	21545
848.379	21447
848.515	21424
848.65	21325
848.786	21340
848.921	21424
849.057	21382
849.192	21576
849.328	21370
849.463	21412
849.598	21275
849.734	21195
849.869	21245
850.004	21123
850.14	21230
850.275	21131
850.41	21066
850.545	20979
850.68	21176
850.815	21165
850.95	21085
851.085	21374
851.22	21226
851.355	21123
851.49	21123
851.625	21070
851.76	21108
851.895	20994
852.03	21024
852.165	21074
852.299	21047
852.434	21249
852.569	21074
852.703	21077
852.838	21146
852.973	21344
853.107	21283
853.242	21043
853.376	20979
853.511	20845
853.645	20895
853.78	21131
853.914	21017
854.048	20880
854.183	20910
854.317	21047
854.451	21230
854.585	20994
854.72	20895
854.854	21001
854.988	20804
855.122	20864
855.256	20800
855.39	20925
855.524	21039
855.658	20937
855.792	21013
855.926	20982
856.06	20963
856.194	21081
856.327	20963
856.461	20853
856.595	20864
856.729	20933
856.862	20975
856.996	20944
857.13	20941
857.263	20971
857.397	21013
857.53	20975
857.664	20963
857.797	21036
857.931	21047
858.064	20986
858.197	20963
858.331	20967
858.464	20906
858.597	20899
858.731	20868
858.864	20815
858.997	20880
859.13	20971
859.263	21001
859.396	21024
859.529	21001
859.662	20933
859.795	20872
859.928	20960
860.061	21135
860.194	21188
860.327	20979
860.46	20963
860.592	21161
860.725	21199
860.858	21039
860.99	20899
861.123	20887
861.256	20979
861.388	20963
861.521	21682
861.653	20872
861.786	20804
861.918	20720
862.05	20758
862.183	20925
862.315	20830
862.447	20952
862.58	20849
862.712	20754
862.844	20693
862.976	20785
863.108	20735
863.24	21131
863.372	20640
863.504	20758
863.636	20659
863.768	20842
863.9	20727
864.032	20476
864.164	20716
864.296	20693
864.428	20842
864.559	20724
864.691	20773
864.823	20659
864.954	20651
865.086	20659
865.217	20640
865.349	20507
865.48	20621
865.612	20636
865.743	20693
865.875	20667
866.006	20541
866.137	20663
866.269	20518
866.4	20492
866.531	20640
866.662	20526
866.793	20556
866.924	20533
867.055	20473
867.186	20511
867.317	20461
867.448	20495
867.579	20419
867.71	20423
867.841	20431
867.972	20526
868.103	20377
868.233	20518
868.364	20522
868.495	20507
868.625	20693
868.756	20861
868.886	20644
869.017	20838
869.147	20845
869.278	20982
869.408	20807
869.539	20720
869.669	20929
869.799	20788
869.929	20899
870.06	20838
870.19	21131
870.32	21081
870.45	21074
870.58	21108
870.71	21176
870.84	21294
870.97	21218
871.1	21157
871.23	21332
871.36	21279
871.489	21279
871.619	21291
871.749	21321
871.879	21214
872.008	21511
872.138	21344
872.267	21488
872.397	21188
872.526	21154
872.656	21260
872.785	21150
872.915	21329
873.044	21401
873.173	21359
873.303	21306
873.432	21447
873.561	21420
873.69	21389
873.819	21359
873.948	21538
874.077	21393
874.206	21367
874.335	21336
874.464	21545
874.593	21675
874.722	21622
874.851	21717
874.979	21549
875.108	21644
875.237	21595
875.365	21473
875.494	21580
875.623	21610
875.751	21583
875.88	21698
876.008	21766
876.136	21816
876.265	21949
876.393	22055
876.521	22139
876.65	22063
876.778	21945
876.906	21972
877.034	21964
877.162	22006
877.29	21892
877.418	22051
877.546	21964
877.674	21926
877.802	21857
877.93	21869
878.058	21865
878.185	21656
878.313	21972
878.441	21956
878.568	21816
878.696	21850
878.824	22048
878.951	21994
879.079	22093
879.206	22287
879.333	22173
879.461	21922
879.588	22086
879.715	22185
879.842	22204
879.97	22006
880.097	21808
880.224	21736
880.351	21778
880.478	21808
880.605	21770
880.732	21785
880.859	21903
880.986	21789
881.112	21812
881.239	21614
881.366	21469
881.493	21511
881.619	21412
881.746	21397
881.872	21374
881.999	21336
882.125	21317
882.252	21439
882.378	21344
882.505	21500
882.631	21252
882.757	21013
882.883	21142
883.01	21096
883.136	21104
883.262	21028
883.388	20960
883.514	21199
883.64	21089
883.766	20941
883.892	20800
884.018	20834
884.143	21001
884.269	21089
884.395	20785
884.52	20602
884.646	20693
884.772	20712
884.897	20621
885.023	20823
885.148	20838
885.274	20899
885.399	20731
885.524	20708
885.65	20655
885.775	20689
885.9	20686
886.025	20720
886.15	20792
886.275	20571
886.4	20545
886.525	20689
886.65	20583
886.775	20583
886.9	20804
887.025	20914
887.149	20606
887.274	20545
887.399	20488
887.523	20442
887.648	20332
887.773	20313
887.897	20434
888.021	20488
888.146	20511
888.27	20537
888.395	20583
888.519	20609
888.643	20514
888.767	20514
888.891	20438
889.015	20252
889.139	20343
889.263	20324
889.387	20419
889.511	20564
889.635	20412
889.759	20298
889.883	20237
890.006	20225
890.13	20328
890.254	20214
890.377	20267
890.501	20016
890.624	20035
890.748	20126
890.871	19986
890.995	19769
891.118	19776
891.241	19932
891.364	19856
891.488	19936
891.611	19940
891.734	19879
891.857	19780
891.98	19868
892.103	19940
892.226	19837
892.349	19852
892.471	19670
892.594	19799
892.717	19875
892.839	19643
892.962	19788
893.085	19795
893.207	19685
893.33	19658
893.452	19575
893.575	19776
893.697	19780
893.819	19974
893.941	19970
894.064	19936
894.186	19696
894.308	19597
894.43	19875
894.552	19944
894.674	19826
894.796	19693
894.918	19822
895.04	19704
895.161	19723
895.283	19780
895.405	19753
895.526	19769
895.648	19738
895.769	19803
895.891	19856
896.012	19822
896.134	19757
896.255	19811
896.376	19685
896.498	19769
896.619	19917
896.74	19723
896.861	19849
896.982	20081
897.103	20176
897.224	20134
897.345	20008
897.466	19879
897.587	19959
897.708	20058
897.828	20046
897.949	19982
898.07	19830
898.19	19868
898.311	20107
898.431	19932
898.552	19959
898.672	20084
898.792	20092
898.913	20081
899.033	19837
899.153	19845
899.273	19738
899.393	19818
899.513	19818
899.633	19856
899.753	19799
899.873	19719
899.993	19738
900.113	19753
900.232	19662
900.352	19704
900.472	19540
900.591	19453
900.711	19495
900.83	19358
900.95	19613
901.069	19586
901.189	19495
901.308	19247
901.427	19034
901.546	19103
901.665	19148
901.784	19145
901.904	18932
902.023	18833
902.141	18730
902.26	18635
902.379	18760
902.498	18589
902.617	18536
902.735	18730
902.854	18490
902.973	18509
903.091	18327
903.21	18235
903.328	18277
903.446	18232
903.565	18007
903.683	18152
903.801	17923
903.919	18034
904.038	18030
904.156	18003
904.274	18041
904.392	17874
904.51	17885
904.627	17958
904.745	17916
904.863	17996
904.981	17741
905.098	17551
905.216	17509
905.334	17699
905.451	17543
905.569	17509
905.686	17524
905.803	17490
905.921	17356
906.038	17512
906.155	17448
906.272	17193
906.389	17261
906.506	17056
906.623	17094
906.74	17128
906.857	17033
906.974	16991
907.091	17227
907.208	17227
907.324	17197
907.441	16980
907.557	16828
907.674	16820
907.79	16873
907.907	16725
908.023	16995
908.139	16812
908.256	16634
908.372	16748
908.488	16694
908.604	16504
908.72	16497
908.836	16485
908.952	16538
909.068	16561
909.184	16569
909.3	16500
909.415	16523
909.531	16584
909.647	16398
909.762	16265
909.878	16230
909.993	16211
910.108	16284
910.224	16166
910.339	16341
910.454	16101
910.57	16086
910.685	16017
910.8	16261
910.915	16246
911.03	16059
911.145	15842
911.259	15888
911.374	15823
911.489	15766
911.604	15720
911.718	15675
911.833	15648
911.947	15576
912.062	15329
912.176	15572
912.291	15660
912.405	15500
912.519	15717
912.633	15736
912.748	15629
912.862	15515
912.976	15473
913.09	15344
913.204	15397
913.318	15473
913.431	15473
913.545	15424
913.659	15481
913.772	15443
913.886	15260
914	15211
914.113	15336
914.226	15359
914.34	15325
914.453	15074
914.566	15176
914.68	15058
914.793	15055
914.906	14906
915.019	14788
915.132	14830
915.245	14830
915.358	14906
915.47	14792
915.583	14876
915.696	14876
915.809	14960
915.921	14937
916.034	14731
916.146	14712
916.259	14724
916.371	14796
916.483	14769
916.595	14731
916.708	14571
916.82	14644
916.932	14625
917.044	14610
917.156	14606
917.268	14526
917.38	14530
917.491	14412
917.603	14507
917.715	14556
917.826	14537
917.938	14473
918.049	14358
918.161	14408
918.272	14598
918.384	14590
918.495	14434
918.606	14278
918.717	14199
918.828	14305
918.939	14343
919.05	14134
919.161	14164
919.272	13989
919.383	14153
919.494	14256
919.604	14404
919.715	14187
919.826	14153
919.936	14221
920.047	14248
920.157	14187
920.267	14419
920.378	14210
920.488	14138
920.598	14484
920.708	14537
920.818	14358
920.928	14374
921.038	14522
921.148	14495
921.258	14259
921.368	14142
921.477	13936
921.587	13947
921.697	13871
921.806	13986
921.916	13841
922.025	13643
922.134	13643
922.244	13563
922.353	13670
922.462	13430
922.571	13384
922.68	13312
922.789	13293
922.898	13282
923.007	13221
923.116	13331
923.224	13263
923.333	13293
923.442	13149
923.55	13076
923.659	13183
923.767	13145
923.876	13015
923.984	13072
924.092	13023
924.201	13084
924.309	13012
924.417	13019
924.525	12962
924.633	12985
924.741	13837
924.849	12787
924.956	12935
925.064	12681
925.172	12684
925.279	12730
925.387	12719
925.494	12665
925.602	12863
925.709	12719
925.816	12673
925.924	12722
926.031	12776
926.138	12673
926.245	12604
926.352	12601
926.459	12677
926.566	12715
926.673	12578
926.779	12494
926.886	12452
926.993	12369
927.099	12224
927.206	12216
927.312	12190
927.419	12273
927.525	12213
927.631	12327
927.737	12125
927.843	12129
927.95	12064
928.056	12163
928.162	12095
928.267	12148
928.373	12783
928.479	12228
928.585	12011
928.69	12057
928.796	12163
928.901	12041
929.007	11893
929.112	11973
929.218	11908
929.323	11855
929.428	11809
929.533	11984
929.638	11817
929.743	11832
929.848	11809
929.953	11805
930.058	11649
930.163	11543
930.267	11581
930.372	11665
930.477	11421
930.581	11688
930.685	11589
930.79	11387
930.894	11505
930.998	11478
931.103	11535
931.207	11102
931.311	11098
931.415	11075
931.519	10801
931.623	10847
