Data from test_V78500241_103.txt Node
Date: Fri Mar 25 15:10:34 CST 2022
User: usil
Spectrometer: V785-0024
Trigger mode: 0
Integration Time (sec): 4.000000E-1
Scans to average: 1
Nonlinearity correction enabled: false
Boxcar width: 0
Storing dark spectrum: false
XAxis mode: Wavelengths
Number of Pixels in Spectrum: 1024
>>>>>Begin Spectral Data<<<<<
801.071	28128
801.214	28261
801.356	27998
801.499	27934
801.641	27789
801.783	27797
801.926	27903
802.068	27701
802.211	27667
802.353	27622
802.496	27496
802.638	27355
802.78	27317
802.923	27279
803.065	27188
803.208	27283
803.35	27405
803.492	27336
803.635	27367
803.777	27279
803.919	27545
804.061	27739
804.204	27462
804.346	27431
804.488	27443
804.63	27348
804.773	27351
804.915	27420
805.057	27618
805.199	27363
805.341	27393
805.483	27507
805.626	27477
805.768	27351
805.91	27481
806.052	27488
806.194	27367
806.336	27477
806.478	27568
806.62	27412
806.762	27549
806.904	27564
807.046	27930
807.188	27918
807.33	27835
807.472	27934
807.614	27812
807.756	27724
807.898	27599
808.04	27690
808.182	27542
808.324	27648
808.465	27667
808.607	27759
808.749	27857
808.891	27998
809.033	28029
809.174	27937
809.316	27956
809.458	28006
809.6	27884
809.741	28002
809.883	27987
810.025	28154
810.166	28063
810.308	28147
810.45	28162
810.591	28097
810.733	28048
810.875	27953
811.016	27857
811.158	27789
811.299	27838
811.441	27994
811.582	27964
811.724	27842
811.865	27945
812.007	27831
812.148	27880
812.29	27857
812.431	28147
812.573	28188
812.714	28310
812.855	28432
812.997	28447
813.138	28466
813.279	28481
813.421	28405
813.562	28322
813.703	28147
813.845	28086
813.986	27850
814.127	27698
814.268	27576
814.41	27660
814.551	27515
814.692	27576
814.833	27545
814.974	27542
815.115	27633
815.256	27302
815.397	27355
815.539	27317
815.68	27169
815.821	27176
815.962	27256
816.103	27150
816.244	27100
816.385	27028
816.526	26994
816.666	26880
816.807	26716
816.948	26693
817.089	26632
817.23	26727
817.371	26568
817.512	26765
817.653	26876
817.793	26632
817.934	26716
818.075	26602
818.216	26621
818.356	26667
818.497	26499
818.638	26313
818.778	26469
818.919	26313
819.06	26495
819.2	26419
819.341	26636
819.481	26701
819.622	26670
819.762	26899
819.903	26823
820.043	26636
820.184	26590
820.324	26621
820.465	26663
820.605	26686
820.746	26754
820.886	26495
821.026	26560
821.167	26533
821.307	26815
821.447	26522
821.588	26480
821.728	26339
821.868	26172
822.008	26020
822.149	26202
822.289	26024
822.429	25738
822.569	25734
822.709	25658
822.849	25529
822.99	25510
823.13	25449
823.27	25346
823.41	25327
823.55	25126
823.69	25327
823.83	25301
823.97	25278
824.11	25080
824.25	25023
824.389	25012
824.529	25122
824.669	25053
824.809	25282
824.949	25069
825.089	25095
825.228	25095
825.368	24867
825.508	24890
825.648	24886
825.787	24928
825.927	24875
826.067	24935
826.206	24821
826.346	24947
826.485	24897
826.625	24913
826.765	25000
826.904	24901
827.044	24707
827.183	24521
827.323	24559
827.462	24738
827.601	24517
827.741	24456
827.88	24456
828.02	24334
828.159	24467
828.298	24433
828.437	24544
828.577	24505
828.716	24544
828.855	24498
828.994	24399
829.134	24247
829.273	24319
829.412	24163
829.551	24102
829.69	24232
829.829	24292
829.968	24129
830.107	24384
830.246	24266
830.385	24018
830.524	24178
830.663	23958
830.802	23878
830.941	23794
831.08	23752
831.219	23760
831.357	23824
831.496	23965
831.635	23680
831.774	23699
831.913	23642
832.051	23444
832.19	23398
832.329	23672
832.467	23349
832.606	23524
832.744	23391
832.883	23322
833.022	23288
833.16	23417
833.299	23356
833.437	23395
833.576	23459
833.714	23467
833.852	23436
833.991	23459
834.129	23471
834.267	23341
834.406	23353
834.544	23512
834.682	23356
834.821	23356
834.959	23433
835.097	23440
835.235	23391
835.373	23406
835.511	23471
835.65	23311
835.788	23277
835.926	23067
836.064	23117
836.202	23136
836.34	23265
836.478	23337
836.615	23174
836.753	23193
836.891	23353
837.029	23284
837.167	23208
837.305	23041
837.443	23044
837.58	23200
837.718	23159
837.856	23128
837.993	22930
838.131	23124
838.269	22904
838.406	22968
838.544	22866
838.681	22725
838.819	22778
838.956	22607
839.094	22615
839.231	22577
839.369	22721
839.506	22923
839.643	22778
839.781	22504
839.918	22284
840.055	22481
840.193	22485
840.33	22337
840.467	22459
840.604	22333
840.742	22717
840.879	22257
841.016	22390
841.153	22348
841.29	22356
841.427	22367
841.564	22493
841.701	22337
841.838	22238
841.975	22215
842.112	22257
842.249	22032
842.385	22055
842.522	22436
842.659	22230
842.796	22158
842.933	22029
843.069	22109
843.206	21972
843.343	22040
843.479	22051
843.616	22147
843.752	21842
843.889	21778
844.025	22059
844.162	21781
844.298	21975
844.435	21778
844.571	21785
844.708	21857
844.844	22040
844.98	21991
845.117	21926
845.253	21819
845.389	21698
845.525	21751
845.661	21675
845.798	21568
845.934	21675
846.07	21492
846.206	21686
846.342	21652
846.478	21641
846.614	21340
846.75	21321
846.886	21268
847.022	21367
847.158	21310
847.294	21245
847.429	21363
847.565	21298
847.701	21538
847.837	21062
847.972	21077
848.108	21104
848.244	21173
848.379	20906
848.515	20815
848.65	20815
848.786	20781
848.921	20979
849.057	21096
849.192	20986
849.328	20990
849.463	20933
849.598	20773
849.734	20815
849.869	20826
850.004	20590
850.14	20689
850.275	20651
850.41	20556
850.545	20545
850.68	20514
850.815	20579
850.95	20606
851.085	20727
851.22	20758
851.355	20636
851.49	20655
851.625	20625
851.76	20613
851.895	20480
852.03	20541
852.165	20530
852.299	20636
852.434	20720
852.569	20632
852.703	20545
852.838	20625
852.973	20697
853.107	20632
853.242	20530
853.376	20434
853.511	20317
853.645	20393
853.78	20590
853.914	20339
854.048	20389
854.183	20438
854.317	20442
854.451	20556
854.585	20396
854.72	20355
854.854	20537
854.988	20408
855.122	20419
855.256	20347
855.39	20339
855.524	20514
855.658	20484
855.792	20465
855.926	20503
856.06	20480
856.194	20522
856.327	20286
856.461	20298
856.595	20427
856.729	20514
856.862	20530
856.996	20446
857.13	20450
857.263	20469
857.397	20537
857.53	20423
857.664	20423
857.797	20541
857.931	20484
858.064	20438
858.197	20537
858.331	20347
858.464	20358
858.597	20233
858.731	20233
858.864	20404
858.997	20336
859.13	20400
859.263	20431
859.396	20526
859.529	20396
859.662	20313
859.795	20282
859.928	20305
860.061	20442
860.194	20450
860.327	20290
860.46	20343
860.592	20446
860.725	20480
860.858	20355
860.99	20366
861.123	20309
861.256	20275
861.388	20275
861.521	20899
861.653	20202
861.786	20183
861.918	20096
862.05	20214
862.183	20328
862.315	20339
862.447	20419
862.58	20286
862.712	20119
862.844	20084
862.976	20358
863.108	20210
863.24	20530
863.372	20130
863.504	20069
863.636	20073
863.768	20100
863.9	20126
864.032	19944
864.164	20050
864.296	20096
864.428	20206
864.559	20043
864.691	20142
864.823	19989
864.954	20050
865.086	19986
865.217	19894
865.349	19852
865.48	19913
865.612	19989
865.743	20142
865.875	19890
866.006	19868
866.137	19940
866.269	19868
866.4	19967
866.531	19868
866.662	19837
866.793	19750
866.924	19913
867.055	19974
867.186	19932
867.317	19917
867.448	19913
867.579	19780
867.71	19795
867.841	19799
867.972	19986
868.103	19811
868.233	19856
868.364	19830
868.495	19894
868.625	20069
868.756	20111
868.886	19947
869.017	20092
869.147	20210
869.278	20301
869.408	20122
869.539	20046
869.669	20191
869.799	20138
869.929	20278
870.06	20278
870.19	20415
870.32	20301
870.45	20473
870.58	20480
870.71	20613
870.84	20549
870.97	20473
871.1	20617
871.23	20724
871.36	20754
871.489	20552
871.619	20727
871.749	20655
871.879	20724
872.008	20838
872.138	20754
872.267	20686
872.397	20549
872.526	20438
872.656	20541
872.785	20587
872.915	20701
873.044	20651
873.173	20765
873.303	20800
873.432	20792
873.561	20769
873.69	20750
873.819	20746
873.948	20914
874.077	20887
874.206	20705
874.335	20876
874.464	20891
874.593	20948
874.722	20800
874.851	20868
874.979	20971
875.108	21074
875.237	20910
875.365	20910
875.494	21028
875.623	20994
875.751	20986
875.88	21020
876.008	21195
876.136	21176
876.265	21492
876.393	21610
876.521	21416
876.65	21443
876.778	21416
876.906	21329
877.034	21233
877.162	21462
877.29	21374
877.418	21325
877.546	21439
877.674	21401
877.802	21370
877.93	21302
878.058	21260
878.185	21294
878.313	21310
878.441	21382
878.568	21161
878.696	21241
878.824	21351
878.951	21287
879.079	21587
879.206	21614
879.333	21515
879.461	21351
879.588	21538
879.715	21504
879.842	21606
879.97	21370
880.097	21184
880.224	21142
880.351	21180
880.478	21112
880.605	20979
880.732	21180
880.859	21424
880.986	21233
881.112	21249
881.239	21070
881.366	21009
881.493	20925
881.619	20762
881.746	20773
881.872	20712
881.999	20758
882.125	20686
882.252	20644
882.378	20838
882.505	20838
882.631	20674
882.757	20552
882.883	20640
883.01	20412
883.136	20571
883.262	20309
883.388	20393
883.514	20385
883.64	20461
883.766	20450
883.892	20332
884.018	20343
884.143	20518
884.269	20507
884.395	20290
884.52	20084
884.646	20183
884.772	20138
884.897	20001
885.023	20256
885.148	20248
885.274	20294
885.399	20237
885.524	20153
885.65	20157
885.775	20229
885.9	20069
886.025	20275
886.15	20084
886.275	20039
886.4	20043
886.525	20084
886.65	20005
886.775	20046
886.9	20301
887.025	20343
887.149	20142
887.274	19986
887.399	19845
887.523	19925
887.648	19875
887.773	19788
887.897	20001
888.021	19921
888.146	19811
888.27	20005
888.395	19909
888.519	19864
888.643	19852
888.767	19776
888.891	19822
889.015	19704
889.139	19875
889.263	19658
889.387	19681
889.511	19814
889.635	19772
889.759	19662
889.883	19681
890.006	19757
890.13	19761
890.254	19525
890.377	19472
890.501	19377
890.624	19438
890.748	19510
890.871	19308
890.995	19274
891.118	19251
891.241	19297
891.364	19221
891.488	19373
891.611	19259
891.734	19308
891.857	19289
891.98	19297
892.103	19324
892.226	19316
892.349	19118
892.471	19076
892.594	19354
892.717	19228
892.839	19118
892.962	19202
893.085	19289
893.207	19099
893.33	19145
893.452	19293
893.575	19289
893.697	19179
893.819	19373
893.941	19388
894.064	19255
894.186	19126
894.308	19038
894.43	19194
894.552	19377
894.674	19247
894.796	19110
894.918	19141
895.04	19129
895.161	19240
895.283	19285
895.405	19091
895.526	19209
895.648	19137
895.769	19198
895.891	19190
896.012	19327
896.134	19289
896.255	19335
896.376	19126
896.498	19179
896.619	19255
896.74	19213
896.861	19270
896.982	19620
897.103	19757
897.224	19533
897.345	19533
897.466	19396
897.587	19464
897.708	19483
897.828	19487
897.949	19377
898.07	19324
898.19	19438
898.311	19544
898.431	19499
898.552	19502
898.672	19518
898.792	19571
898.913	19472
899.033	19350
899.153	19228
899.273	19160
899.393	19164
899.513	19217
899.633	19126
899.753	19194
899.873	19107
899.993	19232
900.113	19137
900.232	19175
900.352	19072
900.472	19057
900.591	18932
900.711	19050
900.83	18947
900.95	19061
901.069	19019
901.189	18852
901.308	18665
901.427	18646
901.546	18601
901.665	18574
901.784	18582
901.904	18361
902.023	18380
902.141	18110
902.26	18144
902.379	18144
902.498	18057
902.617	18072
902.735	18110
902.854	18049
902.973	17904
903.091	17737
903.21	17672
903.328	17726
903.446	17646
903.565	17535
903.683	17592
903.801	17467
903.919	17421
904.038	17596
904.156	17311
904.274	17474
904.392	17239
904.51	17360
904.627	17353
904.745	17277
904.863	17376
904.981	17048
905.098	17071
905.216	17102
905.334	16991
905.451	16957
905.569	17029
905.686	17086
905.803	16968
905.921	16713
906.038	16797
906.155	16873
906.272	16607
906.389	16668
906.506	16481
906.623	16474
906.74	16531
906.857	16451
906.974	16360
907.091	16698
907.208	16637
907.324	16607
907.441	16398
907.557	16329
907.674	16295
907.79	16204
907.907	16177
908.023	16188
908.139	16265
908.256	16280
908.372	16169
908.488	16105
908.604	16029
908.72	15960
908.836	15960
908.952	15941
909.068	15968
909.184	16067
909.3	15835
909.415	15854
909.531	15926
909.647	15686
909.762	15614
909.878	15511
909.993	15622
910.108	15523
910.224	15591
910.339	15492
910.454	15454
910.57	15389
910.685	15450
910.8	15587
910.915	15591
911.03	15477
911.145	15294
911.259	15100
911.374	15184
911.489	15207
911.604	15169
911.718	14971
911.833	15017
911.947	14872
912.062	14800
912.176	14948
912.291	14990
912.405	14910
912.519	15097
912.633	15135
912.748	14971
912.862	14944
912.976	14720
913.09	14617
913.204	14754
913.318	14853
913.431	14887
913.545	14785
913.659	14838
913.772	14823
913.886	14621
914	14598
914.113	14678
914.226	14693
914.34	14655
914.453	14488
914.566	14697
914.68	14579
914.793	14434
914.906	14381
915.019	14320
915.132	14168
915.245	14267
915.358	14259
915.47	14229
915.583	14256
915.696	14282
915.809	14431
915.921	14484
916.034	14138
916.146	14149
916.259	14142
916.371	14218
916.483	14138
916.595	14096
916.708	14115
916.82	14016
916.932	14214
917.044	14111
917.156	14031
917.268	13928
917.38	13940
917.491	13959
917.603	13890
917.715	13967
917.826	14012
917.938	13940
918.049	13822
918.161	13951
918.272	14024
918.384	13951
918.495	13909
918.606	13837
918.717	13708
918.828	13856
918.939	13757
919.05	13552
919.161	13636
919.272	13491
919.383	13563
919.494	13704
919.604	13989
919.715	13750
919.826	13639
919.936	13719
920.047	13769
920.157	13750
920.267	13852
920.378	13685
920.488	13548
920.598	13818
920.708	13974
920.818	13818
920.928	13837
921.038	14058
921.148	13860
921.258	13616
921.368	13510
921.477	13430
921.587	13407
921.697	13308
921.806	13441
921.916	13316
922.025	13160
922.134	13114
922.244	12924
922.353	13198
922.462	12863
922.571	12928
922.68	12726
922.789	12745
922.898	12764
923.007	12578
923.116	12719
923.224	12692
923.333	12604
923.442	12566
923.55	12635
923.659	12547
923.767	12589
923.876	12456
923.984	12555
924.092	12490
924.201	12460
924.309	12498
924.417	12517
924.525	12395
924.633	12376
924.741	13179
924.849	12220
924.956	12384
925.064	12178
925.172	12091
925.279	12163
925.387	12167
925.494	12197
925.602	12224
925.709	12205
925.816	12155
925.924	12136
926.031	12254
926.138	12216
926.245	12235
926.352	12041
926.459	12182
926.566	12277
926.673	12091
926.779	11965
926.886	11996
926.993	11760
927.099	11828
927.206	11767
927.312	11748
927.419	11748
927.525	11714
927.631	11847
927.737	11668
927.843	11653
927.95	11512
928.056	11558
928.162	11653
928.267	11661
928.373	12171
928.479	11729
928.585	11497
928.69	11532
928.796	11642
928.901	11543
929.007	11330
929.112	11395
929.218	11364
929.323	11318
929.428	11337
929.533	11406
929.638	11280
929.743	11258
929.848	11250
929.953	11376
930.058	11223
930.163	11083
930.267	11052
930.372	11181
930.477	10987
930.581	11223
930.685	11029
930.79	10911
930.894	10965
930.998	10828
931.103	11075
931.207	10710
931.311	10615
931.415	10497
931.519	10246
931.623	10287
