Data from test_V78500241_2039.txt Node
Date: Fri Mar 25 15:24:03 CST 2022
User: usil
Spectrometer: V785-0024
Trigger mode: 0
Integration Time (sec): 4.000000E-1
Scans to average: 1
Nonlinearity correction enabled: false
Boxcar width: 0
Storing dark spectrum: false
XAxis mode: Wavelengths
Number of Pixels in Spectrum: 1024
>>>>>Begin Spectral Data<<<<<
801.071	27800
801.214	27739
801.356	27542
801.499	27462
801.641	27344
801.783	27348
801.926	27291
802.068	27405
802.211	27310
802.353	27176
802.496	27131
802.638	26994
802.78	26967
802.923	26940
803.065	26872
803.208	26937
803.35	27001
803.492	27051
803.635	27165
803.777	26979
803.919	27142
804.061	27561
804.204	27116
804.346	27207
804.488	27017
804.63	27287
804.773	27260
804.915	27199
805.057	27416
805.199	27123
805.341	27310
805.483	27370
805.626	27279
805.768	27150
805.91	27283
806.052	27348
806.194	27157
806.336	27408
806.478	27298
806.62	27294
806.762	27545
806.904	27454
807.046	27869
807.188	27694
807.33	27705
807.472	27739
807.614	27614
807.756	27732
807.898	27481
808.04	27606
808.182	27561
808.324	27553
808.465	27728
808.607	27781
808.749	27922
808.891	28070
809.033	28097
809.174	27956
809.316	27842
809.458	28017
809.6	27857
809.741	28109
809.883	28082
810.025	28181
810.166	28211
810.308	28238
810.45	28154
810.591	28196
810.733	28006
810.875	27949
811.016	27876
811.158	27941
811.299	27945
811.441	28070
811.582	28097
811.724	27892
811.865	27899
812.007	27922
812.148	27876
812.29	27930
812.431	28177
812.573	28185
812.714	28234
812.855	28542
812.997	28527
813.138	28744
813.279	28630
813.421	28421
813.562	28276
813.703	28177
813.845	28291
813.986	27785
814.127	27846
814.268	27595
814.41	27652
814.551	27504
814.692	27663
814.833	27644
814.974	27583
815.115	27701
815.256	27466
815.397	27610
815.539	27401
815.68	27424
815.821	27214
815.962	27450
816.103	27313
816.244	27408
816.385	27116
816.526	27249
816.666	27001
816.807	26891
816.948	26986
817.089	26998
817.23	26967
817.371	26864
817.512	26967
817.653	26895
817.793	26849
817.934	26918
818.075	26975
818.216	26857
818.356	26830
818.497	26648
818.638	26659
818.778	26667
818.919	26651
819.06	26735
819.2	26815
819.341	26933
819.481	26963
819.622	27100
819.762	27176
819.903	27104
820.043	27093
820.184	27001
820.324	26986
820.465	27039
820.605	26910
820.746	27020
820.886	27009
821.026	26963
821.167	26952
821.307	27058
821.447	26800
821.588	26746
821.728	26705
821.868	26469
822.008	26446
822.149	26282
822.289	26244
822.429	26084
822.569	26005
822.709	26020
822.849	25902
822.99	25921
823.13	25879
823.27	25909
823.41	25742
823.55	25693
823.69	25780
823.83	25616
823.97	25647
824.11	25643
824.25	25495
824.389	25407
824.529	25514
824.669	25460
824.809	25544
824.949	25586
825.089	25502
825.228	25613
825.368	25384
825.508	25388
825.648	25392
825.787	25411
825.927	25377
826.067	25377
826.206	25343
826.346	25415
826.485	25506
826.625	25247
826.765	25445
826.904	25529
827.044	25133
827.183	25183
827.323	25057
827.462	25107
827.601	25175
827.741	25076
827.88	25099
828.02	24913
828.159	25042
828.298	25126
828.437	25168
828.577	25114
828.716	25164
828.855	24913
828.994	24806
829.134	24802
829.273	24810
829.412	24688
829.551	24856
829.69	24859
829.829	24783
829.968	24753
830.107	24806
830.246	24776
830.385	24715
830.524	24585
830.663	24563
830.802	24661
830.941	24353
831.08	24361
831.219	24441
831.357	24505
831.496	24665
831.635	24441
831.774	24350
831.913	24311
832.051	24174
832.19	24083
832.329	24197
832.467	24144
832.606	24045
832.744	24053
832.883	24026
833.022	24072
833.16	24049
833.299	24152
833.437	24163
833.576	24174
833.714	24209
833.852	24197
833.991	24262
834.129	24300
834.267	24133
834.406	24159
834.544	24163
834.682	24034
834.821	24289
834.959	24232
835.097	24053
835.235	24079
835.373	24007
835.511	24178
835.65	23965
835.788	23973
835.926	23843
836.064	23931
836.202	23855
836.34	24091
836.478	24007
836.615	23942
836.753	23965
836.891	23961
837.029	23999
837.167	23977
837.305	23954
837.443	23832
837.58	23764
837.718	23870
837.856	23798
837.993	23760
838.131	23897
838.269	23611
838.406	23653
838.544	23676
838.681	23402
838.819	23364
838.956	23261
839.094	23364
839.231	23360
839.369	23322
839.506	23714
839.643	23547
839.781	23322
839.918	23231
840.055	23231
840.193	23223
840.33	23086
840.467	23166
840.604	23273
840.742	23433
840.879	23098
841.016	23277
841.153	23006
841.29	23345
841.427	23200
841.564	23174
841.701	23254
841.838	23121
841.975	23178
842.112	23105
842.249	23083
842.385	22942
842.522	23151
842.659	22911
842.796	22877
842.933	23003
843.069	22908
843.206	22938
843.343	22930
843.479	23018
843.616	22968
843.752	22759
843.889	22839
844.025	22824
844.162	22634
844.298	22839
844.435	22713
844.571	22687
844.708	22835
844.844	22881
844.98	22847
845.117	22809
845.253	22786
845.389	22557
845.525	22580
845.661	22523
845.798	22455
845.934	22596
846.07	22352
846.206	22508
846.342	22588
846.478	22596
846.614	22276
846.75	22116
846.886	22272
847.022	22352
847.158	22154
847.294	22139
847.429	22284
847.565	22139
847.701	22390
847.837	21994
847.972	21903
848.108	22109
848.244	21945
848.379	21884
848.515	21835
848.65	21823
848.786	21861
848.921	21751
849.057	21911
849.192	21774
849.328	21785
849.463	21774
849.598	21762
849.734	21762
849.869	21747
850.004	21515
850.14	21572
850.275	21583
850.41	21481
850.545	21500
850.68	21641
850.815	21591
850.95	21553
851.085	21625
851.22	21564
851.355	21652
851.49	21526
851.625	21511
851.76	21481
851.895	21496
852.03	21507
852.165	21530
852.299	21466
852.434	21656
852.569	21515
852.703	21618
852.838	21523
852.973	21622
853.107	21682
853.242	21534
853.376	21359
853.511	21173
853.645	21431
853.78	21344
853.914	21192
854.048	21355
854.183	21298
854.317	21492
854.451	21492
854.585	21329
854.72	21431
854.854	21450
854.988	21310
855.122	21454
855.256	21325
855.39	21344
855.524	21412
855.658	21313
855.792	21405
855.926	21447
856.06	21344
856.194	21458
856.327	21397
856.461	21329
856.595	21416
856.729	21279
856.862	21416
856.996	21519
857.13	21367
857.263	21462
857.397	21530
857.53	21165
857.664	21393
857.797	21443
857.931	21561
858.064	21359
858.197	21469
858.331	21397
858.464	21302
858.597	21283
858.731	21348
858.864	21264
858.997	21386
859.13	21416
859.263	21443
859.396	21420
859.529	21428
859.662	21294
859.795	21310
859.928	21374
860.061	21500
860.194	21485
860.327	21397
860.46	21405
860.592	21519
860.725	21469
860.858	21549
860.99	21443
861.123	21294
861.256	21294
861.388	21500
861.521	22074
861.653	21176
861.786	21150
861.918	21211
862.05	21344
862.183	21336
862.315	21397
862.447	21447
862.58	21367
862.712	21051
862.844	20998
862.976	21199
863.108	21112
863.24	21450
863.372	21017
863.504	21096
863.636	21116
863.768	21169
863.9	21055
864.032	21017
864.164	20971
864.296	21176
864.428	21195
864.559	21313
864.691	21093
864.823	21142
864.954	20891
865.086	20960
865.217	20971
865.349	21009
865.48	20998
865.612	21032
865.743	21157
865.875	21039
866.006	20902
866.137	20941
866.269	21043
866.4	20963
866.531	20872
866.662	20876
866.793	20807
866.924	20952
867.055	20933
867.186	20902
867.317	20857
867.448	20743
867.579	20880
867.71	20804
867.841	20792
867.972	20975
868.103	20800
868.233	20899
868.364	20929
868.495	21070
868.625	21249
868.756	21260
868.886	21066
869.017	21146
869.147	21188
869.278	21275
869.408	21131
869.539	21119
869.669	21264
869.799	21127
869.929	21294
870.06	21207
870.19	21397
870.32	21382
870.45	21435
870.58	21557
870.71	21698
870.84	21610
870.97	21511
871.1	21568
871.23	21644
871.36	21629
871.489	21553
871.619	21724
871.749	21701
871.879	21778
872.008	21827
872.138	21755
872.267	21660
872.397	21694
872.526	21439
872.656	21511
872.785	21603
872.915	21739
873.044	21854
873.173	21846
873.303	21797
873.432	21755
873.561	21797
873.69	21705
873.819	21701
873.948	21774
874.077	21835
874.206	21656
874.335	21876
874.464	21838
874.593	21956
874.722	21793
874.851	22025
874.979	22017
875.108	22006
875.237	21953
875.365	21926
875.494	21915
875.623	21956
875.751	21899
875.88	22044
876.008	22086
876.136	22128
876.265	22440
876.393	22554
876.521	22405
876.65	22508
876.778	22402
876.906	22322
877.034	22276
877.162	22394
877.29	22276
877.418	22295
877.546	22287
877.674	22390
877.802	22257
877.93	22261
878.058	22329
878.185	22173
878.313	22223
878.441	22417
878.568	22086
878.696	22181
878.824	22455
878.951	22367
879.079	22470
879.206	22550
879.333	22417
879.461	22386
879.588	22356
879.715	22417
879.842	22481
879.97	22348
880.097	22318
880.224	22169
880.351	22048
880.478	22230
880.605	22139
880.732	22154
880.859	22272
880.986	22169
881.112	22067
881.239	21964
881.366	21819
881.493	21846
881.619	21789
881.746	21736
881.872	21804
881.999	21717
882.125	21671
882.252	21652
882.378	21747
882.505	21751
882.631	21603
882.757	21595
882.883	21447
883.01	21477
883.136	21435
883.262	21241
883.388	21173
883.514	21420
883.64	21462
883.766	21336
883.892	21093
884.018	21161
884.143	21389
884.269	21401
884.395	21184
884.52	21104
884.646	21055
884.772	21123
884.897	20891
885.023	20979
885.148	21142
885.274	21161
885.399	21192
885.524	21062
885.65	21096
885.775	21058
885.9	21020
886.025	21176
886.15	21005
886.275	21020
886.4	21081
886.525	21081
886.65	20948
886.775	20895
886.9	21199
887.025	21218
887.149	21047
887.274	20895
887.399	20750
887.523	20727
887.648	20674
887.773	20754
887.897	20807
888.021	20868
888.146	20754
888.27	20925
888.395	20853
888.519	20842
888.643	20948
888.767	20914
888.891	20819
889.015	20632
889.139	20705
889.263	20552
889.387	20724
889.511	20792
889.635	20857
889.759	20655
889.883	20613
890.006	20670
890.13	20746
890.254	20564
890.377	20613
890.501	20419
890.624	20252
890.748	20393
890.871	20290
890.995	20290
891.118	20202
891.241	20252
891.364	20210
891.488	20427
891.611	20256
891.734	20229
891.857	20153
891.98	20138
892.103	20328
892.226	20298
892.349	20122
892.471	20016
892.594	20077
892.717	20164
892.839	20031
892.962	20168
893.085	20100
893.207	20035
893.33	19989
893.452	20081
893.575	20103
893.697	20043
893.819	20195
893.941	20370
894.064	20111
894.186	19986
894.308	20103
894.43	20225
894.552	20233
894.674	20145
894.796	20005
894.918	19940
895.04	20084
895.161	20180
895.283	20180
895.405	20092
895.526	20122
895.648	20046
895.769	20115
895.891	20062
896.012	20259
896.134	20122
896.255	20073
896.376	20001
896.498	20100
896.619	20130
896.74	20164
896.861	20100
896.982	20423
897.103	20522
897.224	20248
897.345	20195
897.466	20176
897.587	20423
897.708	20404
897.828	20328
897.949	20176
898.07	20115
898.19	20244
898.311	20419
898.431	20248
898.552	20351
898.672	20385
898.792	20465
898.913	20229
899.033	20161
899.153	20092
899.273	19993
899.393	20069
899.513	20069
899.633	20065
899.753	20027
899.873	20073
899.993	20157
900.113	19993
900.232	20111
900.352	19917
900.472	19849
900.591	19856
900.711	19928
900.83	19723
900.95	20050
901.069	19826
901.189	19738
901.308	19632
901.427	19354
901.546	19426
901.665	19491
901.784	19422
901.904	19403
902.023	19362
902.141	19019
902.26	19023
902.379	19114
902.498	19019
902.617	18951
902.735	18916
902.854	18764
902.973	18829
903.091	18566
903.21	18639
903.328	18570
903.446	18452
903.565	18498
903.683	18460
903.801	18323
903.919	18338
904.038	18372
904.156	18243
904.274	18273
904.392	18190
904.51	18220
904.627	18247
904.745	18311
904.863	18304
904.981	18022
905.098	17855
905.216	17756
905.334	17908
905.451	17904
905.569	17722
905.686	17855
905.803	17912
905.921	17627
906.038	17745
906.155	17604
906.272	17615
906.389	17486
906.506	17372
906.623	17368
906.74	17353
906.857	17265
906.974	17254
907.091	17372
907.208	17482
907.324	17398
907.441	17360
907.557	17124
907.674	17071
907.79	17052
907.907	17067
908.023	17193
908.139	17064
908.256	17071
908.372	17018
908.488	17033
908.604	16831
908.72	16793
908.836	16900
908.952	16801
909.068	16816
909.184	16911
909.3	16729
909.415	16892
909.531	16862
909.647	16641
909.762	16402
909.878	16550
909.993	16485
910.108	16516
910.224	16443
910.339	16436
910.454	16360
910.57	16379
910.685	16207
910.8	16550
910.915	16440
911.03	16211
911.145	16150
911.259	16120
911.374	16204
911.489	16010
911.604	15979
911.718	15873
911.833	15781
911.947	15873
912.062	15724
912.176	15797
912.291	15926
912.405	15903
912.519	15968
912.633	16059
912.748	15880
912.862	15816
912.976	15686
913.09	15561
913.204	15686
913.318	15720
913.431	15956
913.545	15778
913.659	15800
913.772	15606
913.886	15473
914	15568
914.113	15519
914.226	15523
914.34	15549
914.453	15340
914.566	15450
914.68	15321
914.793	15287
914.906	15230
915.019	15039
915.132	15112
915.245	15097
915.358	15077
915.47	15150
915.583	15097
915.696	15081
915.809	15169
915.921	15173
916.034	14994
916.146	14986
916.259	14937
916.371	15055
916.483	15051
916.595	14952
916.708	14853
916.82	14971
916.932	14933
917.044	14910
917.156	14807
917.268	14834
917.38	14826
917.491	14716
917.603	14754
917.715	14880
917.826	14819
917.938	14712
918.049	14651
918.161	14651
918.272	14796
918.384	14853
918.495	14727
918.606	14613
918.717	14522
918.828	14533
918.939	14545
919.05	14412
919.161	14457
919.272	14252
919.383	14442
919.494	14389
919.604	14682
919.715	14488
919.826	14358
919.936	14473
920.047	14530
920.157	14530
920.267	14579
920.378	14469
920.488	14434
920.598	14735
920.708	14746
920.818	14674
920.928	14606
921.038	14796
921.148	14720
921.258	14370
921.368	14336
921.477	14229
921.587	14191
921.697	14058
921.806	14195
921.916	14020
922.025	13970
922.134	13830
922.244	13852
922.353	13951
922.462	13784
922.571	13624
922.68	13559
922.789	13556
922.898	13559
923.007	13396
923.116	13556
923.224	13422
923.333	13521
923.442	13358
923.55	13228
923.659	13263
923.767	13388
923.876	13343
923.984	13308
924.092	13225
924.201	13285
924.309	13183
924.417	13232
924.525	13156
924.633	13126
924.741	13959
924.849	12966
924.956	13126
925.064	13012
925.172	12924
925.279	12951
925.387	12951
925.494	12913
925.602	13031
925.709	12947
925.816	12867
925.924	12878
926.031	12993
926.138	12886
926.245	12867
926.352	12776
926.459	12970
926.566	12829
926.673	12707
926.779	12711
926.886	12650
926.993	12555
927.099	12559
927.206	12525
927.312	12437
927.419	12570
927.525	12437
927.631	12494
927.737	12357
927.843	12296
927.95	12194
928.056	12292
928.162	12323
928.267	12372
928.373	12935
928.479	12391
928.585	12125
928.69	12190
928.796	12273
928.901	12235
929.007	12045
929.112	12224
929.218	12136
929.323	11992
929.428	12030
929.533	12140
929.638	11992
929.743	12030
929.848	12057
929.953	11988
930.058	11802
930.163	11733
930.267	11805
930.372	11794
930.477	11760
930.581	11832
930.685	11710
930.79	11619
930.894	11642
930.998	11532
931.103	11710
931.207	11372
931.311	11246
931.415	11121
931.519	11037
931.623	10972
