Data from test_V78500241_1276.txt Node
Date: Fri Mar 25 15:18:44 CST 2022
User: usil
Spectrometer: V785-0024
Trigger mode: 0
Integration Time (sec): 4.000000E-1
Scans to average: 1
Nonlinearity correction enabled: false
Boxcar width: 0
Storing dark spectrum: false
XAxis mode: Wavelengths
Number of Pixels in Spectrum: 1024
>>>>>Begin Spectral Data<<<<<
801.071	28013
801.214	28105
801.356	27717
801.499	27800
801.641	27637
801.783	27614
801.926	27724
802.068	27603
802.211	27671
802.353	27412
802.496	27378
802.638	27214
802.78	27306
802.923	27306
803.065	27249
803.208	27241
803.35	27245
803.492	27332
803.635	27644
803.777	27542
803.919	27511
804.061	27857
804.204	27561
804.346	27443
804.488	27378
804.63	27443
804.773	27412
804.915	27507
805.057	27648
805.199	27523
805.341	27675
805.483	27648
805.626	27701
805.768	27523
805.91	27728
806.052	27629
806.194	27561
806.336	27728
806.478	27724
806.62	27701
806.762	27903
806.904	27785
807.046	28177
807.188	28166
807.33	28070
807.472	28135
807.614	27972
807.756	28173
807.898	27907
808.04	27842
808.182	27964
808.324	27991
808.465	28017
808.607	28082
808.749	28211
808.891	28363
809.033	28360
809.174	28280
809.316	28211
809.458	28253
809.6	28413
809.741	28436
809.883	28421
810.025	28523
810.166	28565
810.308	28653
810.45	28649
810.591	28493
810.733	28409
810.875	28344
811.016	28185
811.158	28150
811.299	28337
811.441	28451
811.582	28424
811.724	28314
811.865	28352
812.007	28398
812.148	28306
812.29	28265
812.431	28615
812.573	28603
812.714	28675
812.855	28748
812.997	28881
813.138	29037
813.279	28946
813.421	28869
813.562	28862
813.703	28782
813.845	28603
813.986	28253
814.127	28067
814.268	27975
814.41	27930
814.551	27945
814.692	28048
814.833	28185
814.974	27975
815.115	27968
815.256	27850
815.397	27998
815.539	27934
815.68	27842
815.821	27880
815.962	27781
816.103	27850
816.244	27614
816.385	27526
816.526	27603
816.666	27329
816.807	27287
816.948	27332
817.089	27450
817.23	27427
817.371	27249
817.512	27397
817.653	27230
817.793	27150
817.934	27340
818.075	27245
818.216	27268
818.356	27332
818.497	27066
818.638	26929
818.778	27024
818.919	27150
819.06	27188
819.2	27150
819.341	27382
819.481	27294
819.622	27473
819.762	27717
819.903	27504
820.043	27443
820.184	27401
820.324	27363
820.465	27492
820.605	27469
820.746	27344
820.886	27389
821.026	27496
821.167	27397
821.307	27500
821.447	27348
821.588	27062
821.728	27131
821.868	27028
822.008	26777
822.149	26682
822.289	26754
822.429	26499
822.569	26324
822.709	26499
822.849	26343
822.99	26298
823.13	26149
823.27	26355
823.41	26092
823.55	26050
823.69	26096
823.83	26122
823.97	26149
824.11	25932
824.25	25879
824.389	25822
824.529	26115
824.669	25928
824.809	26092
824.949	26001
825.089	26062
825.228	25989
825.368	25902
825.508	25765
825.648	25982
825.787	25841
825.927	25875
826.067	25776
826.206	25864
826.346	25845
826.485	25833
826.625	25750
826.765	25849
826.904	25811
827.044	25635
827.183	25601
827.323	25453
827.462	25476
827.601	25635
827.741	25601
827.88	25704
828.02	25407
828.159	25544
828.298	25460
828.437	25677
828.577	25373
828.716	25559
828.855	25335
828.994	25266
829.134	25244
829.273	25194
829.412	25396
829.551	25137
829.69	25190
829.829	25164
829.968	25350
830.107	25129
830.246	25217
830.385	25145
830.524	25099
830.663	25053
830.802	24973
830.941	24947
831.08	24791
831.219	24962
831.357	25046
831.496	25027
831.635	24935
831.774	24745
831.913	24673
832.051	24749
832.19	24532
832.329	24707
832.467	24502
832.606	24498
832.744	24456
832.883	24544
833.022	24582
833.16	24513
833.299	24566
833.437	24582
833.576	24639
833.714	24677
833.852	24566
833.991	24715
834.129	24589
834.267	24700
834.406	24547
834.544	24730
834.682	24608
834.821	24353
834.959	24776
835.097	24547
835.235	24661
835.373	24639
835.511	24646
835.65	24513
835.788	24525
835.926	24239
836.064	24159
836.202	24239
836.34	24308
836.478	24437
836.615	24437
836.753	24410
836.891	24311
837.029	24422
837.167	24346
837.305	24281
837.443	24243
837.58	24380
837.718	24365
837.856	24205
837.993	24178
838.131	24228
838.269	24026
838.406	24174
838.544	24064
838.681	23805
838.819	23851
838.956	23756
839.094	23687
839.231	23748
839.369	23954
839.506	24125
839.643	23969
839.781	23741
839.918	23562
840.055	23813
840.193	23737
840.33	23676
840.467	23630
840.604	23718
840.742	23809
840.879	23501
841.016	23512
841.153	23509
841.29	23649
841.427	23573
841.564	23649
841.701	23638
841.838	23627
841.975	23566
842.112	23596
842.249	23402
842.385	23360
842.522	23570
842.659	23436
842.796	23474
842.933	23345
843.069	23402
843.206	23429
843.343	23455
843.479	23368
843.616	23383
843.752	23159
843.889	23113
844.025	23269
844.162	23151
844.298	23174
844.435	23193
844.571	23170
844.708	23273
844.844	23379
844.98	23277
845.117	23239
845.253	23064
845.389	22987
845.525	22987
845.661	23109
845.798	22927
845.934	22980
846.07	22911
846.206	22938
846.342	22991
846.478	22866
846.614	22698
846.75	22645
846.886	22672
847.022	22774
847.158	22645
847.294	22645
847.429	22622
847.565	22512
847.701	22816
847.837	22402
847.972	22466
848.108	22512
848.244	22440
848.379	22295
848.515	22154
848.65	22181
848.786	22253
848.921	22173
849.057	22352
849.192	22234
849.328	22303
849.463	22139
849.598	22173
849.734	22204
849.869	22055
850.004	21968
850.14	21915
850.275	22078
850.41	22025
850.545	21964
850.68	21892
850.815	22029
850.95	21865
851.085	22253
851.22	22154
851.355	22082
851.49	21994
851.625	22036
851.76	21907
851.895	21869
852.03	21873
852.165	21926
852.299	22078
852.434	21907
852.569	21960
852.703	21964
852.838	21918
852.973	22055
853.107	22109
853.242	21816
853.376	21831
853.511	21553
853.645	21667
853.78	21953
853.914	21915
854.048	21785
854.183	21781
854.317	21846
854.451	22021
854.585	21778
854.72	21846
854.854	21831
854.988	21701
855.122	21869
855.256	21644
855.39	21895
855.524	21827
855.658	21732
855.792	21876
855.926	21835
856.06	21827
856.194	21827
856.327	21713
856.461	21762
856.595	21827
856.729	21785
856.862	21846
856.996	21804
857.13	22010
857.263	21781
857.397	21838
857.53	21804
857.664	21907
857.797	21937
857.931	21873
858.064	21694
858.197	22002
858.331	21778
858.464	21747
858.597	21599
858.731	21686
858.864	21736
858.997	21705
859.13	21732
859.263	21892
859.396	21728
859.529	21701
859.662	21622
859.795	21686
859.928	21743
860.061	21979
860.194	21975
860.327	21755
860.46	21827
860.592	21846
860.725	22021
860.858	21899
860.99	21690
861.123	21701
861.256	21667
861.388	21785
861.521	22569
861.653	21606
861.786	21637
861.918	21679
862.05	21675
862.183	21671
862.315	21762
862.447	21800
862.58	21648
862.712	21454
862.844	21523
862.976	21595
863.108	21469
863.24	21934
863.372	21485
863.504	21431
863.636	21428
863.768	21477
863.9	21412
864.032	21412
864.164	21545
864.296	21504
864.428	21538
864.559	21682
864.691	21504
864.823	21534
864.954	21500
865.086	21473
865.217	21302
865.349	21287
865.48	21351
865.612	21310
865.743	21462
865.875	21416
866.006	21382
866.137	21355
866.269	21420
866.4	21306
866.531	21370
866.662	21245
866.793	21412
866.924	21504
867.055	21348
867.186	21294
867.317	21272
867.448	21241
867.579	21329
867.71	21207
867.841	21142
867.972	21416
868.103	21325
868.233	21348
868.364	21313
868.495	21428
868.625	21458
868.756	21682
868.886	21545
869.017	21523
869.147	21690
869.278	21728
869.408	21648
869.539	21439
869.669	21720
869.799	21576
869.929	21679
870.06	21648
870.19	21797
870.32	21865
870.45	21956
870.58	21987
870.71	22044
870.84	22040
870.97	21987
871.1	22051
871.23	22010
871.36	22200
871.489	22040
871.619	22101
871.749	22093
871.879	22128
872.008	22280
872.138	22211
872.267	22230
872.397	21987
872.526	21975
872.656	21979
872.785	22063
872.915	22223
873.044	22166
873.173	22314
873.303	22253
873.432	22177
873.561	22234
873.69	22287
873.819	22207
873.948	22265
874.077	22177
874.206	22124
874.335	22234
874.464	22261
874.593	22360
874.722	22287
874.851	22375
874.979	22394
875.108	22360
875.237	22421
875.365	22253
875.494	22291
875.623	22546
875.751	22268
875.88	22295
876.008	22440
876.136	22485
876.265	22885
876.393	22946
876.521	22736
876.65	22915
876.778	22896
876.906	22698
877.034	22683
877.162	22778
877.29	22748
877.418	22805
877.546	22668
877.674	22767
877.802	22683
877.93	22675
878.058	22729
878.185	22561
878.313	22809
878.441	22736
878.568	22565
878.696	22782
878.824	22763
878.951	22831
879.079	22946
879.206	23113
879.333	22824
879.461	22717
879.588	22717
879.715	22805
879.842	23010
879.97	22782
880.097	22546
880.224	22497
880.351	22706
880.478	22577
880.605	22569
880.732	22512
880.859	22744
880.986	22599
881.112	22577
881.239	22474
881.366	22257
881.493	22192
881.619	22196
881.746	22223
881.872	22074
881.999	22086
882.125	22017
882.252	22128
882.378	22017
882.505	22154
882.631	21922
882.757	21907
882.883	21956
883.01	21831
883.136	21823
883.262	21724
883.388	21690
883.514	21827
883.64	21713
883.766	21743
883.892	21675
884.018	21606
884.143	21701
884.269	21766
884.395	21526
884.52	21473
884.646	21507
884.772	21317
884.897	21363
885.023	21317
885.148	21507
885.274	21507
885.399	21500
885.524	21485
885.65	21462
885.775	21477
885.9	21397
886.025	21549
886.15	21561
886.275	21462
886.4	21397
886.525	21389
886.65	21378
886.775	21359
886.9	21534
887.025	21633
887.149	21329
887.274	21241
887.399	21173
887.523	21268
887.648	21047
887.773	21127
887.897	21199
888.021	21294
888.146	21184
888.27	21138
888.395	21195
888.519	21226
888.643	21192
888.767	21131
888.891	21176
889.015	20998
889.139	21142
889.263	21062
889.387	21089
889.511	21218
889.635	21108
889.759	21085
889.883	20967
890.006	20990
890.13	21180
890.254	21047
890.377	20933
890.501	20701
890.624	20845
890.748	20708
890.871	20651
890.995	20499
891.118	20533
891.241	20488
891.364	20575
891.488	20765
891.611	20636
891.734	20621
891.857	20541
891.98	20556
892.103	20564
892.226	20583
892.349	20556
892.471	20454
892.594	20518
892.717	20514
892.839	20469
892.962	20537
893.085	20674
893.207	20465
893.33	20301
893.452	20339
893.575	20476
893.697	20374
893.819	20613
893.941	20708
894.064	20526
894.186	20495
894.308	20431
894.43	20537
894.552	20602
894.674	20507
894.796	20351
894.918	20434
895.04	20324
895.161	20530
895.283	20438
895.405	20450
895.526	20465
895.648	20427
895.769	20537
895.891	20530
896.012	20495
896.134	20446
896.255	20362
896.376	20370
896.498	20488
896.619	20495
896.74	20511
896.861	20484
896.982	20762
897.103	20826
897.224	20648
897.345	20648
897.466	20686
897.587	20705
897.708	20826
897.828	20720
897.949	20541
898.07	20568
898.19	20446
898.311	20720
898.431	20549
898.552	20701
898.672	20678
898.792	20678
898.913	20549
899.033	20484
899.153	20526
899.273	20336
899.393	20431
899.513	20473
899.633	20503
899.753	20415
899.873	20332
899.993	20461
900.113	20286
900.232	20313
900.352	20252
900.472	20290
900.591	20107
900.711	20256
900.83	20183
900.95	20229
901.069	20240
901.189	20088
901.308	19776
901.427	19750
901.546	19784
901.665	19818
901.784	19727
901.904	19582
902.023	19514
902.141	19316
902.26	19274
902.379	19381
902.498	19346
902.617	19206
902.735	19308
902.854	19133
902.973	19179
903.091	18981
903.21	18840
903.328	18905
903.446	18753
903.565	18840
903.683	18768
903.801	18642
903.919	18661
904.038	18726
904.156	18483
904.274	18681
904.392	18460
904.51	18471
904.627	18475
904.745	18536
904.863	18475
904.981	18391
905.098	18232
905.216	18243
905.334	18292
905.451	18190
905.569	18106
905.686	18190
905.803	18072
905.921	17889
906.038	17984
906.155	18049
906.272	17950
906.389	17908
906.506	17718
906.623	17642
906.74	17726
906.857	17474
906.974	17592
907.091	17726
907.208	17802
907.324	17684
907.441	17634
907.557	17467
907.674	17486
907.79	17280
907.907	17436
908.023	17414
908.139	17360
908.256	17303
908.372	17356
908.488	17246
908.604	17246
908.72	17178
908.836	17113
908.952	16953
909.068	17174
909.184	17261
909.3	17083
909.415	17162
909.531	17132
909.647	16889
909.762	16873
909.878	16782
909.993	16896
910.108	16759
910.224	16721
910.339	16858
910.454	16805
910.57	16615
910.685	16588
910.8	16854
910.915	16759
911.03	16649
911.145	16379
911.259	16409
911.374	16497
911.489	16352
911.604	16196
911.718	16116
911.833	16223
911.947	16032
912.062	15972
912.176	16067
912.291	16181
912.405	16128
912.519	16348
912.633	16249
912.748	16097
912.862	16109
912.976	16051
913.09	15842
913.204	15918
913.318	16010
913.431	15994
913.545	16051
913.659	16048
913.772	15949
913.886	15873
914	15800
914.113	15861
914.226	15846
914.34	15888
914.453	15629
914.566	15732
914.68	15660
914.793	15614
914.906	15511
915.019	15363
915.132	15355
915.245	15397
915.358	15367
915.47	15412
915.583	15367
915.696	15481
915.809	15466
915.921	15454
916.034	15351
916.146	15275
916.259	15241
916.371	15302
916.483	15370
916.595	15146
916.708	15211
916.82	15291
916.932	15089
917.044	15070
917.156	15154
917.268	15020
917.38	15119
917.491	15036
917.603	14982
917.715	15017
917.826	15211
917.938	14929
918.049	14762
918.161	14971
918.272	15085
918.384	15127
918.495	14986
918.606	14765
918.717	14678
918.828	14842
918.939	14765
919.05	14735
919.161	14765
919.272	14530
919.383	14629
919.494	14804
919.604	15077
919.715	14788
919.826	14617
919.936	14640
920.047	14811
920.157	14785
920.267	14838
920.378	14648
920.488	14678
920.598	14918
920.708	14895
920.818	14807
920.928	14849
921.038	15024
921.148	14864
921.258	14682
921.368	14602
921.477	14556
921.587	14442
921.697	14278
921.806	14541
921.916	14419
922.025	14138
922.134	14168
922.244	14145
922.353	14172
922.462	13989
922.571	13963
922.68	13738
922.789	13647
922.898	13814
923.007	13742
923.116	13746
923.224	13662
923.333	13746
923.442	13689
923.55	13525
923.659	13597
923.767	13613
923.876	13518
923.984	13586
924.092	13518
924.201	13445
924.309	13495
924.417	13499
924.525	13411
924.633	13381
924.741	14100
924.849	13114
924.956	13308
925.064	13263
925.172	13103
925.279	13091
925.387	13183
925.494	13217
925.602	13247
925.709	13137
925.816	13099
925.924	13156
926.031	13187
926.138	13099
926.245	13099
926.352	13095
926.459	13114
926.566	13160
926.673	12981
926.779	12867
926.886	12848
926.993	12798
927.099	12692
927.206	12741
927.312	12665
927.419	12757
927.525	12662
927.631	12738
927.737	12623
927.843	12563
927.95	12483
928.056	12490
928.162	12559
928.267	12536
928.373	13168
928.479	12555
928.585	12376
928.69	12399
928.796	12498
928.901	12376
929.007	12319
929.112	12448
929.218	12384
929.323	12224
929.428	12159
929.533	12350
929.638	12117
929.743	12171
929.848	12178
929.953	12182
930.058	12064
930.163	11920
930.267	11912
930.372	12022
930.477	11931
930.581	12087
930.685	11916
930.79	11767
930.894	11794
930.998	11817
931.103	11950
931.207	11604
931.311	11539
931.415	11372
931.519	11220
931.623	11151
