Data from test_V78500241_1031.txt Node
Date: Fri Mar 25 15:17:02 CST 2022
User: usil
Spectrometer: V785-0024
Trigger mode: 0
Integration Time (sec): 4.000000E-1
Scans to average: 1
Nonlinearity correction enabled: false
Boxcar width: 0
Storing dark spectrum: false
XAxis mode: Wavelengths
Number of Pixels in Spectrum: 1024
>>>>>Begin Spectral Data<<<<<
801.071	28139
801.214	28074
801.356	27922
801.499	27724
801.641	27675
801.783	27591
801.926	27751
802.068	27747
802.211	27576
802.353	27534
802.496	27416
802.638	27325
802.78	27374
802.923	27249
803.065	27355
803.208	27344
803.35	27241
803.492	27477
803.635	27561
803.777	27523
803.919	27633
804.061	27911
804.204	27603
804.346	27485
804.488	27416
804.63	27504
804.773	27420
804.915	27557
805.057	27717
805.199	27473
805.341	27838
805.483	27774
805.626	27732
805.768	27610
805.91	27800
806.052	27671
806.194	27660
806.336	27838
806.478	27728
806.62	27667
806.762	27766
806.904	28013
807.046	28188
807.188	28025
807.33	28070
807.472	28044
807.614	28013
807.756	28101
807.898	27998
808.04	27838
808.182	27880
808.324	27949
808.465	28067
808.607	28112
808.749	28272
808.891	28360
809.033	28413
809.174	28382
809.316	28390
809.458	28363
809.6	28284
809.741	28436
809.883	28455
810.025	28706
810.166	28706
810.308	28519
810.45	28634
810.591	28603
810.733	28337
810.875	28268
811.016	28090
811.158	28360
811.299	28424
811.441	28523
811.582	28607
811.724	28101
811.865	28367
812.007	28265
812.148	28375
812.29	28295
812.431	28481
812.573	28721
812.714	28729
812.855	28774
812.997	29014
813.138	29121
813.279	29056
813.421	28987
813.562	28797
813.703	28736
813.845	28573
813.986	28303
814.127	28204
814.268	28097
814.41	28109
814.551	27949
814.692	28204
814.833	27941
814.974	27991
815.115	28147
815.256	28010
815.397	27907
815.539	27857
815.68	27911
815.821	27728
815.962	27854
816.103	27827
816.244	27762
816.385	27663
816.526	27648
816.666	27591
816.807	27462
816.948	27496
817.089	27519
817.23	27439
817.371	27367
817.512	27325
817.653	27507
817.793	27256
817.934	27329
818.075	27424
818.216	27435
818.356	27351
818.497	27165
818.638	27142
818.778	27100
818.919	27237
819.06	27188
819.2	27287
819.341	27344
819.481	27454
819.622	27473
819.762	27675
819.903	27690
820.043	27511
820.184	27519
820.324	27325
820.465	27583
820.605	27530
820.746	27606
820.886	27279
821.026	27530
821.167	27530
821.307	27458
821.447	27336
821.588	27313
821.728	27207
821.868	27036
822.008	26769
822.149	26899
822.289	26895
822.429	26564
822.569	26590
822.709	26453
822.849	26389
822.99	26332
823.13	26271
823.27	26282
823.41	26233
823.55	26077
823.69	26149
823.83	26191
823.97	26081
824.11	26005
824.25	26008
824.389	25974
824.529	26100
824.669	25993
824.809	26073
824.949	26145
825.089	26259
825.228	26107
825.368	25769
825.508	25951
825.648	25837
825.787	25890
825.927	25993
826.067	25826
826.206	25898
826.346	25822
826.485	26046
826.625	25913
826.765	25928
826.904	25868
827.044	25780
827.183	25632
827.323	25601
827.462	25628
827.601	25670
827.741	25632
827.88	25605
828.02	25605
828.159	25613
828.298	25651
828.437	25689
828.577	25597
828.716	25696
828.855	25521
828.994	25255
829.134	25369
829.273	25396
829.412	25327
829.551	25213
829.69	25266
829.829	25350
829.968	25316
830.107	25362
830.246	25343
830.385	25160
830.524	25255
830.663	25240
830.802	25012
830.941	24867
831.08	24844
831.219	25053
831.357	24977
831.496	25179
831.635	24837
831.774	24760
831.913	24757
832.051	24760
832.19	24730
832.329	24627
832.467	24673
832.606	24582
832.744	24490
832.883	24585
833.022	24547
833.16	24658
833.299	24650
833.437	24658
833.576	24707
833.714	24650
833.852	24821
833.991	24810
834.129	24753
834.267	24681
834.406	24673
834.544	24639
834.682	24749
834.821	24635
834.959	24795
835.097	24528
835.235	24791
835.373	24654
835.511	24734
835.65	24521
835.788	24502
835.926	24544
836.064	24414
836.202	24376
836.34	24601
836.478	24726
836.615	24479
836.753	24422
836.891	24502
837.029	24669
837.167	24369
837.305	24486
837.443	24350
837.58	24281
837.718	24369
837.856	24483
837.993	24418
838.131	24273
838.269	24285
838.406	24273
838.544	24155
838.681	24045
838.819	23969
838.956	23745
839.094	23764
839.231	23813
839.369	23935
839.506	24140
839.643	24053
839.781	23741
839.918	23813
840.055	23832
840.193	23733
840.33	23767
840.467	23786
840.604	23619
840.742	24038
840.879	23570
841.016	23691
841.153	23577
841.29	23889
841.427	23714
841.564	23707
841.701	23767
841.838	23684
841.975	23630
842.112	23577
842.249	23512
842.385	23341
842.522	23775
842.659	23482
842.796	23452
842.933	23493
843.069	23387
843.206	23410
843.343	23512
843.479	23551
843.616	23547
843.752	23273
843.889	23269
844.025	23459
844.162	23269
844.298	23280
844.435	23296
844.571	23246
844.708	23307
844.844	23398
844.98	23414
845.117	23326
845.253	23200
845.389	23159
845.525	23246
845.661	23117
845.798	23098
845.934	22991
846.07	23075
846.206	22965
846.342	23025
846.478	22889
846.614	22748
846.75	22771
846.886	22611
847.022	22790
847.158	22691
847.294	22759
847.429	22725
847.565	22782
847.701	22980
847.837	22500
847.972	22443
848.108	22504
848.244	22497
848.379	22291
848.515	22265
848.65	22318
848.786	22329
848.921	22295
849.057	22447
849.192	22394
849.328	22398
849.463	22261
849.598	22257
849.734	22207
849.869	22150
850.004	22074
850.14	22162
850.275	22086
850.41	22063
850.545	21987
850.68	21979
850.815	22128
850.95	22044
851.085	22253
851.22	22192
851.355	22097
851.49	22177
851.625	21994
851.76	22029
851.895	22017
852.03	21907
852.165	22090
852.299	22055
852.434	22112
852.569	22070
852.703	22074
852.838	22097
852.973	22265
853.107	22253
853.242	21983
853.376	22017
853.511	21865
853.645	21869
853.78	21892
853.914	21972
854.048	21884
854.183	21854
854.317	21838
854.451	22116
854.585	21899
854.72	21918
854.854	21941
854.988	21861
855.122	21907
855.256	21793
855.39	21975
855.524	21918
855.658	21945
855.792	21956
855.926	21968
856.06	21949
856.194	21991
856.327	21895
856.461	21884
856.595	21827
856.729	21884
856.862	21956
856.996	21899
857.13	22013
857.263	22067
857.397	21991
857.53	21797
857.664	21888
857.797	21953
857.931	21918
858.064	21937
858.197	22006
858.331	21869
858.464	21774
858.597	21785
858.731	21907
858.864	21804
858.997	21793
859.13	21869
859.263	21956
859.396	21953
859.529	21850
859.662	21869
859.795	21880
859.928	21964
860.061	22002
860.194	22124
860.327	21937
860.46	21937
860.592	21922
860.725	22147
860.858	21998
860.99	21964
861.123	21876
861.256	21941
861.388	22010
861.521	22531
861.653	21724
861.786	21743
861.918	21686
862.05	21869
862.183	21812
862.315	21842
862.447	21903
862.58	21762
862.712	21542
862.844	21618
862.976	21728
863.108	21739
863.24	22040
863.372	21545
863.504	21488
863.636	21580
863.768	21644
863.9	21511
864.032	21492
864.164	21488
864.296	21519
864.428	21675
864.559	21564
864.691	21618
864.823	21690
864.954	21713
865.086	21492
865.217	21637
865.349	21549
865.48	21549
865.612	21526
865.743	21686
865.875	21682
866.006	21496
866.137	21534
866.269	21447
866.4	21515
866.531	21481
866.662	21382
866.793	21500
866.924	21340
867.055	21363
867.186	21431
867.317	21466
867.448	21389
867.579	21348
867.71	21256
867.841	21420
867.972	21374
868.103	21367
868.233	21287
868.364	21473
868.495	21488
868.625	21496
868.756	21705
868.886	21641
869.017	21545
869.147	21656
869.278	21770
869.408	21698
869.539	21633
869.669	21743
869.799	21660
869.929	21701
870.06	21789
870.19	21895
870.32	21911
870.45	22082
870.58	22006
870.71	22086
870.84	22177
870.97	21998
871.1	21983
871.23	22173
871.36	22257
871.489	22177
871.619	22120
871.749	22306
871.879	22211
872.008	22481
872.138	22322
872.267	22303
872.397	22135
872.526	22112
872.656	21979
872.785	22067
872.915	22223
873.044	22382
873.173	22284
873.303	22344
873.432	22272
873.561	22295
873.69	22265
873.819	22226
873.948	22329
874.077	22280
874.206	22135
874.335	22303
874.464	22413
874.593	22531
874.722	22455
874.851	22512
874.979	22599
875.108	22546
875.237	22527
875.365	22341
875.494	22451
875.623	22481
875.751	22390
875.88	22489
876.008	22672
876.136	22641
876.265	22889
876.393	23075
876.521	22972
876.65	22980
876.778	22892
876.906	22778
877.034	22900
877.162	22793
877.29	22729
877.418	22915
877.546	22946
877.674	22896
877.802	22641
877.93	22774
878.058	22702
878.185	22790
878.313	22778
878.441	22805
878.568	22618
878.696	22729
878.824	22953
878.951	22881
879.079	22976
879.206	23151
879.333	22934
879.461	22908
879.588	22927
879.715	22900
879.842	23174
879.97	22782
880.097	22622
880.224	22596
880.351	22641
880.478	22645
880.605	22634
880.732	22679
880.859	22877
880.986	22618
881.112	22588
881.239	22561
881.366	22276
881.493	22394
881.619	22246
881.746	22238
881.872	22223
881.999	22040
882.125	22207
882.252	22181
882.378	22219
882.505	22341
882.631	22196
882.757	21964
882.883	21899
883.01	21873
883.136	21720
883.262	21743
883.388	21766
883.514	21975
883.64	21937
883.766	21778
883.892	21682
884.018	21709
884.143	21918
884.269	21846
884.395	21618
884.52	21534
884.646	21561
884.772	21466
884.897	21302
885.023	21515
885.148	21682
885.274	21679
885.399	21698
885.524	21549
885.65	21618
885.775	21599
885.9	21545
886.025	21583
886.15	21603
886.275	21481
886.4	21458
886.525	21545
886.65	21374
886.775	21477
886.9	21553
887.025	21739
887.149	21507
887.274	21363
887.399	21348
887.523	21283
887.648	21138
887.773	21211
887.897	21443
888.021	21325
888.146	21203
888.27	21378
888.395	21412
888.519	21329
888.643	21317
888.767	21374
888.891	21199
889.015	21085
889.139	21058
889.263	21005
889.387	21184
889.511	21313
889.635	21317
889.759	21077
889.883	20967
890.006	21119
890.13	21138
890.254	21081
890.377	21024
890.501	20849
890.624	20739
890.748	20857
890.871	20750
890.995	20727
891.118	20765
891.241	20830
891.364	20625
891.488	20785
891.611	20682
891.734	20632
891.857	20769
891.98	20621
892.103	20773
892.226	20701
892.349	20705
892.471	20423
892.594	20541
892.717	20514
892.839	20549
892.962	20632
893.085	20617
893.207	20545
893.33	20522
893.452	20526
893.575	20549
893.697	20613
893.819	20640
893.941	20845
894.064	20781
894.186	20446
894.308	20499
894.43	20617
894.552	20754
894.674	20674
894.796	20511
894.918	20590
895.04	20545
895.161	20613
895.283	20492
895.405	20404
895.526	20514
895.648	20499
895.769	20678
895.891	20621
896.012	20617
896.134	20606
896.255	20522
896.376	20434
896.498	20568
896.619	20617
896.74	20511
896.861	20648
896.982	20792
897.103	20937
897.224	20853
897.345	20705
897.466	20655
897.587	20834
897.708	20731
897.828	20777
897.949	20701
898.07	20480
898.19	20731
898.311	20724
898.431	20781
898.552	20739
898.672	20705
898.792	20842
898.913	20796
899.033	20632
899.153	20511
899.273	20461
899.393	20473
899.513	20579
899.633	20545
899.753	20503
899.873	20423
899.993	20419
900.113	20488
900.232	20434
900.352	20400
900.472	20366
900.591	20180
900.711	20267
900.83	20142
900.95	20343
901.069	20263
901.189	20126
901.308	20035
901.427	19887
901.546	19936
901.665	19879
901.784	19868
901.904	19769
902.023	19651
902.141	19411
902.26	19453
902.379	19548
902.498	19422
902.617	19331
902.735	19445
902.854	19377
902.973	19289
903.091	18985
903.21	18970
903.328	19057
903.446	18943
903.565	18901
903.683	18776
903.801	18760
903.919	18734
904.038	18738
904.156	18540
904.274	18582
904.392	18502
904.51	18544
904.627	18460
904.745	18623
904.863	18601
904.981	18353
905.098	18342
905.216	18197
905.334	18300
905.451	18334
905.569	18201
905.686	18239
905.803	18327
905.921	18072
906.038	18076
906.155	17923
906.272	18076
906.389	17954
906.506	17756
906.623	17805
906.74	17786
906.857	17619
906.974	17729
907.091	17771
907.208	17939
907.324	17836
907.441	17608
907.557	17566
907.674	17482
907.79	17528
907.907	17402
908.023	17402
908.139	17505
908.256	17448
908.372	17379
908.488	17376
908.604	17239
908.72	17220
908.836	17273
908.952	17254
909.068	17288
909.184	17284
909.3	17254
909.415	17200
909.531	17098
909.647	16999
909.762	16972
909.878	16961
909.993	16972
910.108	16755
910.224	16934
910.339	16904
910.454	16797
910.57	16790
910.685	16645
910.8	16805
910.915	16843
911.03	16694
911.145	16569
911.259	16527
911.374	16500
911.489	16432
911.604	16436
911.718	16306
911.833	16310
911.947	16173
912.062	16097
912.176	16223
912.291	16276
912.405	16295
912.519	16417
912.633	16516
912.748	16226
912.862	16181
912.976	16071
913.09	15850
913.204	16112
913.318	16044
913.431	16143
913.545	16093
913.659	16143
913.772	15949
913.886	15968
914	15888
914.113	15895
914.226	15934
914.34	15953
914.453	15808
914.566	15846
914.68	15789
914.793	15682
914.906	15496
915.019	15447
915.132	15408
915.245	15431
915.358	15454
915.47	15382
915.583	15386
915.696	15481
915.809	15553
915.921	15580
916.034	15473
916.146	15408
916.259	15298
916.371	15447
916.483	15428
916.595	15306
916.708	15283
916.82	15207
916.932	15344
917.044	15199
917.156	15119
917.268	15058
917.38	15146
917.491	15093
917.603	15100
917.715	15142
917.826	15188
917.938	15020
918.049	14845
918.161	15062
918.272	15100
918.384	15123
918.495	15055
918.606	14819
918.717	14796
918.828	14914
918.939	14853
919.05	14811
919.161	14765
919.272	14564
919.383	14648
919.494	14864
919.604	14971
919.715	14792
919.826	14678
919.936	14811
920.047	14823
920.157	14815
920.267	14895
920.378	14800
920.488	14743
920.598	14834
920.708	15085
920.818	14861
920.928	14929
921.038	15070
921.148	14941
921.258	14670
921.368	14648
921.477	14644
921.587	14423
921.697	14347
921.806	14533
921.916	14324
922.025	14225
922.134	14229
922.244	14111
922.353	14240
922.462	14039
922.571	13898
922.68	13791
922.789	13776
922.898	13761
923.007	13795
923.116	13750
923.224	13776
923.333	13791
923.442	13643
923.55	13571
923.659	13628
923.767	13689
923.876	13658
923.984	13662
924.092	13495
924.201	13487
924.309	13613
924.417	13495
924.525	13419
924.633	13495
924.741	14438
924.849	13213
924.956	13422
925.064	13301
925.172	13122
925.279	13194
925.387	13149
925.494	13228
925.602	13266
925.709	13255
925.816	13103
925.924	13149
926.031	13270
926.138	13129
926.245	13156
926.352	13107
926.459	13289
926.566	13202
926.673	12970
926.779	12973
926.886	12962
926.993	12844
927.099	12787
927.206	12734
927.312	12734
927.419	12768
927.525	12798
927.631	12772
927.737	12654
927.843	12612
927.95	12426
928.056	12585
928.162	12528
928.267	12597
928.373	13213
928.479	12658
928.585	12334
928.69	12525
928.796	12521
928.901	12426
929.007	12311
929.112	12456
929.218	12334
929.323	12311
929.428	12209
929.533	12338
929.638	12152
929.743	12175
929.848	12178
929.953	12178
930.058	12133
930.163	12003
930.267	11984
930.372	12106
930.477	11874
930.581	12182
930.685	12030
930.79	11866
930.894	11980
930.998	11904
931.103	11965
931.207	11783
931.311	11535
931.415	11395
931.519	11178
931.623	11235
