Data from test_V78500241_3112.txt Node
Date: Fri Mar 25 15:31:31 CST 2022
User: usil
Spectrometer: V785-0024
Trigger mode: 0
Integration Time (sec): 4.000000E-1
Scans to average: 1
Nonlinearity correction enabled: false
Boxcar width: 0
Storing dark spectrum: false
XAxis mode: Wavelengths
Number of Pixels in Spectrum: 1024
>>>>>Begin Spectral Data<<<<<
801.071	26754
801.214	26636
801.356	26377
801.499	26339
801.641	26229
801.783	26176
801.926	26199
802.068	26370
802.211	26039
802.353	25974
802.496	25909
802.638	25750
802.78	25651
802.923	25601
803.065	25628
803.208	25727
803.35	25795
803.492	25928
803.635	26001
803.777	25658
803.919	25940
804.061	26187
804.204	25970
804.346	25753
804.488	25822
804.63	25963
804.773	25788
804.915	25902
805.057	26073
805.199	25769
805.341	25807
805.483	25974
805.626	25993
805.768	25951
805.91	25944
806.052	25993
806.194	25849
806.336	26229
806.478	26027
806.62	25997
806.762	26065
806.904	26282
807.046	26415
807.188	26484
807.33	26412
807.472	26453
807.614	26317
807.756	26351
807.898	26324
808.04	26157
808.182	26206
808.324	26164
808.465	26328
808.607	26442
808.749	26640
808.891	26720
809.033	26701
809.174	26655
809.316	26587
809.458	26545
809.6	26320
809.741	26659
809.883	26731
810.025	26815
810.166	26826
810.308	26788
810.45	26849
810.591	26674
810.733	26701
810.875	26712
811.016	26465
811.158	26366
811.299	26446
811.441	26678
811.582	26682
811.724	26495
811.865	26545
812.007	26495
812.148	26476
812.29	26499
812.431	26773
812.573	26807
812.714	26902
812.855	26967
812.997	27218
813.138	27283
813.279	27173
813.421	27039
813.562	27051
813.703	26899
813.845	26743
813.986	26385
814.127	26229
814.268	26256
814.41	26278
814.551	26142
814.692	26202
814.833	26077
814.974	26267
815.115	26138
815.256	26092
815.397	26050
815.539	26115
815.68	25845
815.821	25841
815.962	25982
816.103	25951
816.244	25757
816.385	25723
816.526	25689
816.666	25620
816.807	25426
816.948	25483
817.089	25601
817.23	25491
817.371	25479
817.512	25415
817.653	25430
817.793	25331
817.934	25369
818.075	25434
818.216	25430
818.356	25266
818.497	25388
818.638	25103
818.778	25152
818.919	25183
819.06	25312
819.2	25285
819.341	25232
819.481	25324
819.622	25445
819.762	25772
819.903	25704
820.043	25468
820.184	25521
820.324	25521
820.465	25460
820.605	25483
820.746	25499
820.886	25343
821.026	25354
821.167	25324
821.307	25457
821.447	25381
821.588	25343
821.728	25156
821.868	25031
822.008	24852
822.149	24890
822.289	25000
822.429	24585
822.569	24502
822.709	24620
822.849	24380
822.99	24357
823.13	24273
823.27	24292
823.41	24239
823.55	24034
823.69	24102
823.83	24232
823.97	24136
824.11	24125
824.25	23954
824.389	23996
824.529	23958
824.669	24034
824.809	24136
824.949	24053
825.089	23984
825.228	24041
825.368	23859
825.508	23885
825.648	23748
825.787	23859
825.927	23939
826.067	23779
826.206	23832
826.346	23824
826.485	23836
826.625	23824
826.765	24022
826.904	23878
827.044	23657
827.183	23512
827.323	23455
827.462	23531
827.601	23573
827.741	23463
827.88	23520
828.02	23440
828.159	23490
828.298	23623
828.437	23661
828.577	23391
828.716	23722
828.855	23444
828.994	23181
829.134	23337
829.273	23239
829.412	23250
829.551	23296
829.69	23174
829.829	23311
829.968	23349
830.107	23341
830.246	23193
830.385	23235
830.524	23121
830.663	23151
830.802	22862
830.941	22885
831.08	22869
831.219	23006
831.357	22999
831.496	23189
831.635	22938
831.774	22649
831.913	22752
832.051	22664
832.19	22596
832.329	22759
832.467	22527
832.606	22573
832.744	22538
832.883	22554
833.022	22455
833.16	22519
833.299	22592
833.437	22637
833.576	22596
833.714	22599
833.852	22653
833.991	22535
834.129	22668
834.267	22634
834.406	22702
834.544	22641
834.682	22649
834.821	22580
834.959	22733
835.097	22550
835.235	22603
835.373	22557
835.511	22607
835.65	22424
835.788	22405
835.926	22257
836.064	22306
836.202	22276
836.34	22382
836.478	22519
836.615	22424
836.753	22542
836.891	22470
837.029	22421
837.167	22337
837.305	22360
837.443	22295
837.58	22322
837.718	22303
837.856	22265
837.993	22265
838.131	22382
838.269	22143
838.406	22299
838.544	22207
838.681	21960
838.819	21907
838.956	21682
839.094	21789
839.231	21846
839.369	21941
839.506	22181
839.643	22078
839.781	21953
839.918	21747
840.055	21899
840.193	21755
840.33	21728
840.467	21759
840.604	21774
840.742	22006
840.879	21622
841.016	21713
841.153	21724
841.29	21892
841.427	21724
841.564	21671
841.701	21800
841.838	21720
841.975	21583
842.112	21603
842.249	21667
842.385	21515
842.522	21720
842.659	21500
842.796	21473
842.933	21534
843.069	21454
843.206	21359
843.343	21477
843.479	21435
843.616	21500
843.752	21397
843.889	21291
844.025	21344
844.162	21233
844.298	21393
844.435	21218
844.571	21294
844.708	21272
844.844	21420
844.98	21348
845.117	21332
845.253	21275
845.389	21142
845.525	21112
845.661	21245
845.798	20975
845.934	21039
846.07	20941
846.206	21066
846.342	21131
846.478	20960
846.614	20853
846.75	20697
846.886	20743
847.022	20819
847.158	20857
847.294	20800
847.429	20918
847.565	20705
847.701	21043
847.837	20568
847.972	20480
848.108	20549
848.244	20659
848.379	20362
848.515	20366
848.65	20313
848.786	20248
848.921	20339
849.057	20427
849.192	20419
849.328	20347
849.463	20355
849.598	20275
849.734	20332
849.869	20256
850.004	20149
850.14	20305
850.275	20069
850.41	20073
850.545	20180
850.68	20084
850.815	20157
850.95	20092
851.085	20267
851.22	20252
851.355	20153
851.49	20107
851.625	20031
851.76	20149
851.895	20065
852.03	20142
852.165	20081
852.299	20202
852.434	20126
852.569	20237
852.703	20187
852.838	20062
852.973	20210
853.107	20298
853.242	20103
853.376	19898
853.511	19868
853.645	19879
853.78	20024
853.914	19967
854.048	19894
854.183	19822
854.317	20005
854.451	20183
854.585	19955
854.72	19963
854.854	19993
854.988	19864
855.122	19940
855.256	19837
855.39	19963
855.524	20035
855.658	19898
855.792	19989
855.926	19837
856.06	19944
856.194	20043
856.327	19902
856.461	19849
856.595	19928
856.729	19837
856.862	20062
856.996	20039
857.13	20005
857.263	20122
857.397	20046
857.53	19944
857.664	20062
857.797	20016
857.931	20031
858.064	19864
858.197	20058
858.331	19947
858.464	19883
858.597	19909
858.731	20008
858.864	19970
858.997	19811
859.13	19993
859.263	19928
859.396	20005
859.529	19982
859.662	19940
859.795	19959
859.928	20024
860.061	20115
860.194	20092
860.327	20020
860.46	20027
860.592	20134
860.725	20058
860.858	20039
860.99	19974
861.123	19879
861.256	20016
861.388	19864
861.521	20446
861.653	19841
861.786	19635
861.918	19780
862.05	19833
862.183	19788
862.315	19997
862.447	19925
862.58	20012
862.712	19731
862.844	19674
862.976	19738
863.108	19681
863.24	20046
863.372	19594
863.504	19769
863.636	19658
863.768	19681
863.9	19674
864.032	19693
864.164	19750
864.296	19746
864.428	19731
864.559	19795
864.691	19788
864.823	19685
864.954	19632
865.086	19639
865.217	19635
865.349	19476
865.48	19559
865.612	19594
865.743	19833
865.875	19552
866.006	19582
866.137	19647
866.269	19601
866.4	19567
866.531	19460
866.662	19548
866.793	19529
866.924	19487
867.055	19544
867.186	19556
867.317	19453
867.448	19506
867.579	19578
867.71	19415
867.841	19518
867.972	19605
868.103	19495
868.233	19586
868.364	19533
868.495	19651
868.625	19723
868.756	19860
868.886	19696
869.017	19712
869.147	19986
869.278	19887
869.408	19871
869.539	19814
869.669	19860
869.799	19826
869.929	19963
870.06	19890
870.19	20206
870.32	20172
870.45	20210
870.58	20210
870.71	20282
870.84	20301
870.97	20172
871.1	20092
871.23	20324
871.36	20317
871.489	20256
871.619	20320
871.749	20442
871.879	20358
872.008	20465
872.138	20324
872.267	20370
872.397	20221
872.526	20172
872.656	20271
872.785	20221
872.915	20507
873.044	20511
873.173	20355
873.303	20545
873.432	20457
873.561	20507
873.69	20431
873.819	20393
873.948	20545
874.077	20385
874.206	20355
874.335	20374
874.464	20587
874.593	20682
874.722	20602
874.851	20644
874.979	20629
875.108	20545
875.237	20659
875.365	20731
875.494	20625
875.623	20743
875.751	20594
875.88	20739
876.008	20804
876.136	20914
876.265	21127
876.393	21241
876.521	21009
876.65	21211
876.778	20937
876.906	21017
877.034	21024
877.162	21055
877.29	21058
877.418	21165
877.546	21058
877.674	21009
877.802	20937
877.93	21093
878.058	21116
878.185	21062
878.313	21058
878.441	20906
878.568	20914
878.696	21039
878.824	21123
878.951	21176
879.079	21283
879.206	21355
879.333	21157
879.461	21154
879.588	21055
879.715	21287
879.842	21287
879.97	21165
880.097	20857
880.224	20918
880.351	20933
880.478	20883
880.605	20895
880.732	20815
880.859	21123
880.986	20834
881.112	20891
881.239	20785
881.366	20533
881.493	20495
881.619	20332
881.746	20495
881.872	20457
881.999	20351
882.125	20328
882.252	20518
882.378	20412
882.505	20461
882.631	20298
882.757	20210
882.883	20252
883.01	20142
883.136	20134
883.262	20043
883.388	20096
883.514	20069
883.64	20157
883.766	20046
883.892	19967
884.018	19986
884.143	20115
884.269	20218
884.395	19887
884.52	19769
884.646	19769
884.772	19750
884.897	19681
885.023	19898
885.148	19875
885.274	19925
885.399	19890
885.524	19879
885.65	19727
885.775	19856
885.9	19871
886.025	19890
886.15	19955
886.275	19799
886.4	19643
886.525	19803
886.65	19731
886.775	19658
886.9	19879
887.025	20024
887.149	19807
887.274	19643
887.399	19510
887.523	19582
887.648	19514
887.773	19468
887.897	19685
888.021	19613
888.146	19502
888.27	19700
888.395	19635
888.519	19613
888.643	19651
888.767	19628
888.891	19453
889.015	19422
889.139	19457
889.263	19464
889.387	19468
889.511	19632
889.635	19567
889.759	19346
889.883	19282
890.006	19285
890.13	19449
890.254	19308
890.377	19316
890.501	19228
890.624	19019
890.748	19217
890.871	19129
890.995	19050
891.118	18863
891.241	19004
891.364	18943
891.488	19095
891.611	19034
891.734	18962
891.857	19114
891.98	18989
892.103	19110
892.226	18894
892.349	18993
892.471	18886
892.594	18890
892.717	18932
892.839	18920
892.962	18962
893.085	18939
893.207	18856
893.33	18947
893.452	18764
893.575	18970
893.697	19012
893.819	19034
893.941	19072
894.064	19103
894.186	18871
894.308	18825
894.43	18913
894.552	19091
894.674	19038
894.796	18939
894.918	18962
895.04	18996
895.161	19004
895.283	18924
895.405	18920
895.526	18970
895.648	18939
895.769	18954
895.891	19015
896.012	18947
896.134	18886
896.255	18943
896.376	18894
896.498	18932
896.619	18924
896.74	18924
896.861	19000
896.982	19244
897.103	19381
897.224	19301
897.345	19247
897.466	19080
897.587	19175
897.708	19225
897.828	19270
897.949	19065
898.07	19027
898.19	19110
898.311	19346
898.431	19183
898.552	19133
898.672	19240
898.792	19365
898.913	19282
899.033	19084
899.153	19061
899.273	18958
899.393	18958
899.513	18973
899.633	19080
899.753	19057
899.873	18776
899.993	19012
900.113	18878
900.232	19031
900.352	18905
900.472	18871
900.591	18719
900.711	18844
900.83	18753
900.95	18825
901.069	18814
901.189	18650
901.308	18464
901.427	18372
901.546	18372
901.665	18342
901.784	18346
901.904	18239
902.023	18087
902.141	17942
902.26	17920
902.379	17942
902.498	17851
902.617	17882
902.735	17927
902.854	17809
902.973	17722
903.091	17649
903.21	17577
903.328	17676
903.446	17448
903.565	17497
903.683	17410
903.801	17178
903.919	17277
904.038	17383
904.156	17136
904.274	17204
904.392	17166
904.51	17155
904.627	17094
904.745	17277
904.863	17197
904.981	17006
905.098	16858
905.216	16805
905.334	16759
905.451	16843
905.569	16706
905.686	16934
905.803	16839
905.921	16611
906.038	16653
906.155	16653
906.272	16649
906.389	16558
906.506	16371
906.623	16363
906.74	16375
906.857	16242
906.974	16318
907.091	16405
907.208	16550
907.324	16382
907.441	16261
907.557	16097
907.674	16090
907.79	16109
907.907	16135
908.023	15991
908.139	16116
908.256	16036
908.372	16090
908.488	15949
908.604	15876
908.72	15800
908.836	15888
908.952	15751
909.068	15781
909.184	15972
909.3	15869
909.415	15869
909.531	15831
909.647	15614
909.762	15648
909.878	15519
909.993	15515
910.108	15496
910.224	15530
910.339	15553
910.454	15500
910.57	15397
910.685	15195
910.8	15488
910.915	15466
911.03	15389
911.145	15165
911.259	15233
911.374	15230
911.489	15055
911.604	14975
911.718	14944
911.833	14948
911.947	14876
912.062	14781
912.176	14990
912.291	15013
912.405	14937
912.519	15077
912.633	15150
912.748	14948
912.862	14902
912.976	14773
913.09	14697
913.204	14765
913.318	14720
913.431	14864
913.545	14785
913.659	14845
913.772	14720
913.886	14610
914	14560
914.113	14629
914.226	14636
914.34	14682
914.453	14343
914.566	14636
914.68	14530
914.793	14419
914.906	14218
915.019	14202
915.132	14130
915.245	14103
915.358	14240
915.47	14168
915.583	14157
915.696	14267
915.809	14362
915.921	14290
916.034	14058
916.146	14031
916.259	14062
916.371	14168
916.483	14138
916.595	14012
916.708	14142
916.82	13974
916.932	13955
917.044	14005
917.156	13894
917.268	13879
917.38	13887
917.491	13769
917.603	13852
917.715	13951
917.826	13909
917.938	13708
918.049	13799
918.161	13791
918.272	14008
918.384	13909
918.495	13811
918.606	13685
918.717	13620
918.828	13632
918.939	13674
919.05	13582
919.161	13700
919.272	13445
919.383	13491
919.494	13803
919.604	13852
919.715	13681
919.826	13552
919.936	13529
920.047	13715
920.157	13643
920.267	13795
920.378	13666
920.488	13563
920.598	13845
920.708	13978
920.818	13700
920.928	13750
921.038	13986
921.148	13856
921.258	13601
921.368	13434
921.477	13468
921.587	13358
921.697	13244
921.806	13324
921.916	13362
922.025	13038
922.134	13019
922.244	12989
922.353	13122
922.462	12909
922.571	12875
922.68	12642
922.789	12563
922.898	12738
923.007	12677
923.116	12722
923.224	12719
923.333	12688
923.442	12517
923.55	12631
923.659	12559
923.767	12604
923.876	12521
923.984	12601
924.092	12319
924.201	12464
924.309	12464
924.417	12502
924.525	12441
924.633	12357
924.741	13320
924.849	12140
924.956	12334
925.064	12251
925.172	12117
925.279	12175
925.387	12155
925.494	12186
925.602	12319
925.709	12201
925.816	12144
925.924	12057
926.031	12262
926.138	12148
926.245	12182
926.352	12076
926.459	12247
926.566	12155
926.673	12072
926.779	11931
926.886	12007
926.993	11821
927.099	11786
927.206	11779
927.312	11676
927.419	11840
927.525	11741
927.631	11733
927.737	11684
927.843	11611
927.95	11547
928.056	11596
928.162	11627
928.267	11699
928.373	12292
928.479	11680
928.585	11474
928.69	11596
928.796	11558
928.901	11383
929.007	11296
929.112	11490
929.218	11402
929.323	11322
929.428	11353
929.533	11486
929.638	11273
929.743	11307
929.848	11391
929.953	11288
930.058	11174
930.163	11045
930.267	11022
930.372	11121
930.477	11029
930.581	11280
930.685	11052
930.79	10934
930.894	10953
930.998	10930
931.103	11022
931.207	10740
931.311	10653
931.415	10645
931.519	10382
931.623	10348
