Data from test_V78500241_2737.txt Node
Date: Fri Mar 25 15:28:55 CST 2022
User: usil
Spectrometer: V785-0024
Trigger mode: 0
Integration Time (sec): 4.000000E-1
Scans to average: 1
Nonlinearity correction enabled: false
Boxcar width: 0
Storing dark spectrum: false
XAxis mode: Wavelengths
Number of Pixels in Spectrum: 1024
>>>>>Begin Spectral Data<<<<<
801.071	27070
801.214	27066
801.356	26773
801.499	26940
801.641	26727
801.783	26800
801.926	26636
802.068	26514
802.211	26731
802.353	26537
802.496	26294
802.638	26320
802.78	26290
802.923	26214
803.065	26221
803.208	26256
803.35	26271
803.492	26328
803.635	26492
803.777	26370
803.919	26492
804.061	26872
804.204	26518
804.346	26423
804.488	26476
804.63	26214
804.773	26305
804.915	26488
805.057	26511
805.199	26385
805.341	26400
805.483	26495
805.626	26602
805.768	26389
805.91	26488
806.052	26564
806.194	26404
806.336	26807
806.478	26556
806.62	26533
806.762	26655
806.904	26849
807.046	27119
807.188	27058
807.33	27001
807.472	27020
807.614	26963
807.756	26849
807.898	26781
808.04	26830
808.182	26735
808.324	26762
808.465	26823
808.607	27146
808.749	27119
808.891	27256
809.033	27359
809.174	27184
809.316	27169
809.458	27211
809.6	27051
809.741	27180
809.883	27233
810.025	27393
810.166	27321
810.308	27378
810.45	27313
810.591	27222
810.733	27104
810.875	27188
811.016	27108
811.158	27195
811.299	27218
811.441	27412
811.582	27283
811.724	27096
811.865	27192
812.007	27211
812.148	27062
812.29	27135
812.431	27344
812.573	27306
812.714	27545
812.855	27717
812.997	27663
813.138	27873
813.279	27854
813.421	27587
813.562	27622
813.703	27302
813.845	27355
813.986	27062
814.127	26861
814.268	26716
814.41	26899
814.551	26708
814.692	26861
814.833	26758
814.974	26701
815.115	26773
815.256	26689
815.397	26629
815.539	26670
815.68	26541
815.821	26621
815.962	26613
816.103	26629
816.244	26370
816.385	26286
816.526	26431
816.666	26164
816.807	25974
816.948	26050
817.089	26172
817.23	26161
817.371	26065
817.512	25963
817.653	25940
817.793	25989
817.934	26027
818.075	26039
818.216	25978
818.356	26020
818.497	25841
818.638	25708
818.778	25700
818.919	25864
819.06	25765
819.2	25913
819.341	26054
819.481	25947
819.622	26100
819.762	26442
819.903	26343
820.043	26275
820.184	26084
820.324	26039
820.465	26126
820.605	26115
820.746	26096
820.886	26130
821.026	26153
821.167	26096
821.307	26214
821.447	25936
821.588	25871
821.728	25890
821.868	25655
822.008	25563
822.149	25575
822.289	25567
822.429	25381
822.569	25110
822.709	25228
822.849	25145
822.99	25110
823.13	24958
823.27	24962
823.41	24856
823.55	24783
823.69	24867
823.83	24806
823.97	24684
824.11	24726
824.25	24700
824.389	24677
824.529	24692
824.669	24639
824.809	24810
824.949	24779
825.089	24654
825.228	24707
825.368	24574
825.508	24395
825.648	24490
825.787	24502
825.927	24589
826.067	24505
826.206	24513
826.346	24669
826.485	24665
826.625	24384
826.765	24551
826.904	24650
827.044	24277
827.183	24350
827.323	23961
827.462	24350
827.601	24224
827.741	24224
827.88	24167
828.02	24125
828.159	24159
828.298	24243
828.437	24315
828.577	24224
828.716	24228
828.855	24095
828.994	24049
829.134	23950
829.273	24041
829.412	23832
829.551	23878
829.69	23802
829.829	23927
829.968	24110
830.107	24068
830.246	23999
830.385	23805
830.524	23840
830.663	23783
830.802	23684
830.941	23539
831.08	23535
831.219	23585
831.357	23554
831.496	23707
831.635	23493
831.774	23376
831.913	23478
832.051	23414
832.19	23231
832.329	23337
832.467	23235
832.606	23128
832.744	23170
832.883	23166
833.022	23151
833.16	23216
833.299	23334
833.437	23299
833.576	23265
833.714	23258
833.852	23250
833.991	23303
834.129	23414
834.267	23383
834.406	23261
834.544	23311
834.682	23185
834.821	23349
834.959	23391
835.097	23132
835.235	23318
835.373	23398
835.511	23277
835.65	23124
835.788	23200
835.926	22919
836.064	22957
836.202	22869
836.34	23170
836.478	23143
836.615	23132
836.753	23159
836.891	23136
837.029	23174
837.167	23037
837.305	23094
837.443	23018
837.58	22942
837.718	22999
837.856	23014
837.993	22953
838.131	22999
838.269	22740
838.406	22934
838.544	22767
838.681	22584
838.819	22611
838.956	22538
839.094	22500
839.231	22538
839.369	22641
839.506	22858
839.643	22554
839.781	22519
839.918	22413
840.055	22466
840.193	22512
840.33	22409
840.467	22356
840.604	22432
840.742	22653
840.879	22284
841.016	22382
841.153	22272
841.29	22462
841.427	22432
841.564	22394
841.701	22287
841.838	22280
841.975	22207
842.112	22325
842.249	22223
842.385	22219
842.522	22356
842.659	22215
842.796	22063
842.933	22124
843.069	22090
843.206	22101
843.343	22211
843.479	22188
843.616	22215
843.752	21949
843.889	21953
844.025	22082
844.162	21831
844.298	21979
844.435	21899
844.571	21945
844.708	21972
844.844	22055
844.98	21994
845.117	22040
845.253	21667
845.389	21793
845.525	21880
845.661	21823
845.798	21732
845.934	21679
846.07	21587
846.206	21762
846.342	21793
846.478	21652
846.614	21450
846.75	21428
846.886	21382
847.022	21435
847.158	21481
847.294	21443
847.429	21469
847.565	21363
847.701	21591
847.837	21058
847.972	20998
848.108	21176
848.244	21116
848.379	21093
848.515	21005
848.65	20990
848.786	20910
848.921	21036
849.057	21146
849.192	21028
849.328	20952
849.463	21036
849.598	20960
849.734	20864
849.869	20834
850.004	20686
850.14	20830
850.275	20720
850.41	20663
850.545	20705
850.68	20815
850.815	20727
850.95	20689
851.085	20906
851.22	20861
851.355	20758
851.49	20693
851.625	20655
851.76	20788
851.895	20579
852.03	20705
852.165	20667
852.299	20712
852.434	20800
852.569	20800
852.703	20777
852.838	20769
852.973	20849
853.107	20842
853.242	20811
853.376	20495
853.511	20442
853.645	20625
853.78	20705
853.914	20720
854.048	20457
854.183	20602
854.317	20495
854.451	20735
854.585	20495
854.72	20545
854.854	20648
854.988	20507
855.122	20514
855.256	20450
855.39	20507
855.524	20762
855.658	20579
855.792	20648
855.926	20708
856.06	20640
856.194	20537
856.327	20663
856.461	20446
856.595	20606
856.729	20522
856.862	20571
856.996	20644
857.13	20621
857.263	20625
857.397	20560
857.53	20583
857.664	20587
857.797	20651
857.931	20689
858.064	20727
858.197	20617
858.331	20606
858.464	20412
858.597	20431
858.731	20693
858.864	20579
858.997	20568
859.13	20587
859.263	20648
859.396	20629
859.529	20587
859.662	20465
859.795	20541
859.928	20636
860.061	20792
860.194	20708
860.327	20663
860.46	20583
860.592	20754
860.725	20602
860.858	20708
860.99	20629
861.123	20507
861.256	20476
861.388	20526
861.521	21112
861.653	20541
861.786	20366
861.918	20332
862.05	20526
862.183	20374
862.315	20579
862.447	20423
862.58	20419
862.712	20305
862.844	20221
862.976	20328
863.108	20442
863.24	20739
863.372	20218
863.504	20301
863.636	20370
863.768	20309
863.9	20305
864.032	20278
864.164	20351
864.296	20355
864.428	20381
864.559	20511
864.691	20290
864.823	20256
864.954	20298
865.086	20415
865.217	20119
865.349	20199
865.48	20149
865.612	20191
865.743	20332
865.875	20309
866.006	20259
866.137	20256
866.269	20244
866.4	20130
866.531	20134
866.662	20225
866.793	20168
866.924	20096
867.055	20145
867.186	20065
867.317	20107
867.448	19944
867.579	20180
867.71	20092
867.841	20035
867.972	20115
868.103	20096
868.233	20111
868.364	20050
868.495	20240
868.625	20419
868.756	20488
868.886	20313
869.017	20412
869.147	20522
869.278	20488
869.408	20476
869.539	20343
869.669	20362
869.799	20389
869.929	20560
870.06	20503
870.19	20594
870.32	20659
870.45	20549
870.58	20739
870.71	20842
870.84	20861
870.97	20826
871.1	20826
871.23	20994
871.36	20910
871.489	20933
871.619	20956
871.749	20921
871.879	20952
872.008	21116
872.138	20998
872.267	20990
872.397	20804
872.526	20842
872.656	20727
872.785	20785
872.915	20971
873.044	21039
873.173	20982
873.303	21024
873.432	21104
873.561	21077
873.69	20998
873.819	20986
873.948	21070
874.077	21009
874.206	20994
874.335	20895
874.464	21104
874.593	21214
874.722	21150
874.851	21218
874.979	21199
875.108	21291
875.237	21146
875.365	21233
875.494	21161
875.623	21222
875.751	21207
875.88	21157
876.008	21408
876.136	21435
876.265	21629
876.393	21774
876.521	21774
876.65	21709
876.778	21682
876.906	21526
877.034	21511
877.162	21652
877.29	21576
877.418	21488
877.546	21561
877.674	21671
877.802	21724
877.93	21504
878.058	21530
878.185	21447
878.313	21485
878.441	21542
878.568	21412
878.696	21526
878.824	21686
878.951	21606
879.079	21743
879.206	21838
879.333	21774
879.461	21637
879.588	21755
879.715	21812
879.842	21823
879.97	21644
880.097	21447
880.224	21416
880.351	21519
880.478	21405
880.605	21443
880.732	21363
880.859	21743
880.986	21458
881.112	21420
881.239	21268
881.366	21161
881.493	21096
881.619	21009
881.746	21036
881.872	20929
881.999	20914
882.125	21013
882.252	21024
882.378	20933
882.505	21070
882.631	20895
882.757	20819
882.883	20724
883.01	20769
883.136	20560
883.262	20632
883.388	20594
883.514	20712
883.64	20606
883.766	20575
883.892	20598
884.018	20598
884.143	20602
884.269	20727
884.395	20507
884.52	20476
884.646	20488
884.772	20332
884.897	20225
885.023	20370
885.148	20469
885.274	20484
885.399	20469
885.524	20362
885.65	20305
885.775	20294
885.9	20328
886.025	20473
886.15	20389
886.275	20298
886.4	20309
886.525	20358
886.65	20282
886.775	20324
886.9	20450
887.025	20583
887.149	20271
887.274	20172
887.399	20092
887.523	20206
887.648	20077
887.773	19989
887.897	20229
888.021	20092
888.146	20031
888.27	20259
888.395	20317
888.519	20122
888.643	20218
888.767	20130
888.891	20111
889.015	19974
889.139	20016
889.263	19932
889.387	19986
889.511	20012
889.635	20069
889.759	19940
889.883	19909
890.006	19837
890.13	20031
890.254	19909
890.377	19936
890.501	19769
890.624	19655
890.748	19727
890.871	19582
890.995	19441
891.118	19468
891.241	19487
891.364	19438
891.488	19674
891.611	19464
891.734	19518
891.857	19666
891.98	19460
892.103	19704
892.226	19537
892.349	19457
892.471	19289
892.594	19350
892.717	19445
892.839	19422
892.962	19434
893.085	19480
893.207	19411
893.33	19209
893.452	19445
893.575	19445
893.697	19449
893.819	19548
893.941	19597
894.064	19601
894.186	19392
894.308	19468
894.43	19483
894.552	19586
894.674	19609
894.796	19263
894.918	19373
895.04	19381
895.161	19453
895.283	19365
895.405	19396
895.526	19480
895.648	19384
895.769	19438
895.891	19373
896.012	19449
896.134	19426
896.255	19529
896.376	19464
896.498	19468
896.619	19582
896.74	19468
896.861	19563
896.982	19780
897.103	19864
897.224	19624
897.345	19605
897.466	19597
897.587	19700
897.708	19784
897.828	19738
897.949	19605
898.07	19518
898.19	19559
898.311	19746
898.431	19582
898.552	19681
898.672	19696
898.792	19731
898.913	19723
899.033	19696
899.153	19460
899.273	19392
899.393	19483
899.513	19476
899.633	19350
899.753	19396
899.873	19384
899.993	19544
900.113	19369
900.232	19392
900.352	19354
900.472	19324
900.591	19194
900.711	19308
900.83	19160
900.95	19244
901.069	19202
901.189	19110
901.308	18890
901.427	18905
901.546	18993
901.665	18894
901.784	18806
901.904	18707
902.023	18585
902.141	18460
902.26	18350
902.379	18388
902.498	18384
902.617	18262
902.735	18353
902.854	18330
902.973	18258
903.091	18030
903.21	18076
903.328	18079
903.446	17912
903.565	17863
903.683	17828
903.801	17790
903.919	17824
904.038	17805
904.156	17710
904.274	17733
904.392	17490
904.51	17630
904.627	17532
904.745	17703
904.863	17718
904.981	17421
905.098	17208
905.216	17250
905.334	17326
905.451	17242
905.569	17216
905.686	17246
905.803	17246
905.921	17025
906.038	17170
906.155	17094
906.272	17025
906.389	16965
906.506	16862
906.623	16843
906.74	16702
906.857	16752
906.974	16763
907.091	16831
907.208	17014
907.324	16801
907.441	16717
907.557	16550
907.674	16584
907.79	16497
907.907	16592
908.023	16554
908.139	16523
908.256	16462
908.372	16485
908.488	16375
908.604	16344
908.72	16234
908.836	16253
908.952	16200
909.068	16188
909.184	16348
909.3	16219
909.415	16276
909.531	16200
909.647	16006
909.762	15964
909.878	15937
909.993	16032
910.108	15960
910.224	15968
910.339	16044
910.454	15766
910.57	15842
910.685	15614
910.8	16071
910.915	16025
911.03	15709
911.145	15534
911.259	15534
911.374	15504
911.489	15469
911.604	15481
911.718	15416
911.833	15363
911.947	15233
912.062	15230
912.176	15367
912.291	15428
912.405	15367
912.519	15599
912.633	15542
912.748	15401
912.862	15344
912.976	15036
913.09	15024
913.204	15233
913.318	15161
913.431	15241
913.545	15241
913.659	15199
913.772	15104
913.886	15047
914	14960
914.113	15116
914.226	15032
914.34	14990
914.453	14872
914.566	14982
914.68	14921
914.793	14773
914.906	14594
915.019	14530
915.132	14473
915.245	14492
915.358	14541
915.47	14560
915.583	14613
915.696	14640
915.809	14697
915.921	14731
916.034	14518
916.146	14431
916.259	14404
916.371	14522
916.483	14617
916.595	14442
916.708	14469
916.82	14480
916.932	14374
917.044	14381
917.156	14313
917.268	14161
917.38	14271
917.491	14214
917.603	14225
917.715	14290
917.826	14385
917.938	14336
918.049	14046
918.161	14149
918.272	14282
918.384	14278
918.495	14256
918.606	13986
918.717	13978
918.828	14092
918.939	14058
919.05	14012
919.161	14035
919.272	13799
919.383	13925
919.494	14039
919.604	14248
919.715	13986
919.826	14012
919.936	13947
920.047	14096
920.157	13997
920.267	14214
920.378	13967
920.488	13986
920.598	14123
920.708	14320
920.818	14031
920.928	14100
921.038	14233
921.148	14218
921.258	13970
921.368	13913
921.477	13795
921.587	13757
921.697	13693
921.806	13708
921.916	13655
922.025	13457
922.134	13320
922.244	13422
922.353	13365
922.462	13316
922.571	13217
922.68	13088
922.789	13015
922.898	13084
923.007	12913
923.116	13091
923.224	13038
923.333	13015
923.442	12867
923.55	12932
923.659	12859
923.767	12993
923.876	12753
923.984	12924
924.092	12787
924.201	12802
924.309	12844
924.417	12867
924.525	12768
924.633	12730
924.741	13670
924.849	12483
924.956	12684
925.064	12460
925.172	12365
925.279	12513
925.387	12532
925.494	12506
925.602	12566
925.709	12547
925.816	12403
925.924	12467
926.031	12547
926.138	12399
926.245	12460
926.352	12361
926.459	12467
926.566	12506
926.673	12372
926.779	12213
926.886	12182
926.993	12171
927.099	12144
927.206	11988
927.312	11992
927.419	12091
927.525	12026
927.631	12129
927.737	11969
927.843	11878
927.95	11775
928.056	11950
928.162	11916
928.267	11904
928.373	12365
928.479	12041
928.585	11748
928.69	11824
928.796	11885
928.901	11741
929.007	11653
929.112	11847
929.218	11726
929.323	11642
929.428	11646
929.533	11676
929.638	11615
929.743	11585
929.848	11615
929.953	11581
930.058	11554
930.163	11364
930.267	11326
930.372	11482
930.477	11326
930.581	11528
930.685	11402
930.79	11235
930.894	11265
930.998	11197
931.103	11299
931.207	10949
931.311	10881
931.415	10759
931.519	10664
931.623	10546
