Data from test_V78500241_3283.txt Node
Date: Fri Mar 25 15:32:43 CST 2022
User: usil
Spectrometer: V785-0024
Trigger mode: 0
Integration Time (sec): 4.000000E-1
Scans to average: 1
Nonlinearity correction enabled: false
Boxcar width: 0
Storing dark spectrum: false
XAxis mode: Wavelengths
Number of Pixels in Spectrum: 1024
>>>>>Begin Spectral Data<<<<<
801.071	27157
801.214	27199
801.356	26940
801.499	26864
801.641	26640
801.783	26708
801.926	26826
802.068	26796
802.211	26526
802.353	26701
802.496	26408
802.638	26427
802.78	26396
802.923	26259
803.065	26290
803.208	26237
803.35	26244
803.492	26507
803.635	26522
803.777	26461
803.919	26522
804.061	26765
804.204	26701
804.346	26427
804.488	26320
804.63	26613
804.773	26408
804.915	26530
805.057	26560
805.199	26476
805.341	26541
805.483	26667
805.626	26514
805.768	26473
805.91	26724
806.052	26697
806.194	26526
806.336	26754
806.478	26568
806.62	26590
806.762	26648
806.904	26940
807.046	27207
807.188	27058
807.33	27180
807.472	27150
807.614	27009
807.756	26960
807.898	26845
808.04	26872
808.182	26933
808.324	26891
808.465	26918
808.607	27024
808.749	27188
808.891	27211
809.033	27583
809.174	27367
809.316	27363
809.458	27112
809.6	27233
809.741	27336
809.883	27367
810.025	27279
810.166	27622
810.308	27553
810.45	27351
810.591	27435
810.733	27241
810.875	27245
811.016	27150
811.158	27089
811.299	27272
811.441	27408
811.582	27424
811.724	27283
811.865	27123
812.007	27195
812.148	27131
812.29	27241
812.431	27389
812.573	27580
812.714	27618
812.855	27823
812.997	27755
813.138	27895
813.279	27827
813.421	27694
813.562	27705
813.703	27599
813.845	27424
813.986	27195
814.127	27036
814.268	26849
814.41	26811
814.551	26872
814.692	27089
814.833	26830
814.974	26880
815.115	26998
815.256	26842
815.397	26861
815.539	26735
815.68	26731
815.821	26602
815.962	26629
816.103	26560
816.244	26560
816.385	26446
816.526	26412
816.666	26199
816.807	26122
816.948	26126
817.089	26294
817.23	26218
817.371	26252
817.512	26012
817.653	26183
817.793	26008
817.934	26176
818.075	26199
818.216	26149
818.356	26077
818.497	26016
818.638	25845
818.778	25909
818.919	25936
819.06	25932
819.2	26073
819.341	26187
819.481	26122
819.622	26339
819.762	26400
819.903	26278
820.043	26164
820.184	26374
820.324	26374
820.465	26434
820.605	26168
820.746	26092
820.886	26107
821.026	26229
821.167	26122
821.307	26237
821.447	26252
821.588	26058
821.728	25932
821.868	25750
822.008	25712
822.149	25700
822.289	25578
822.429	25365
822.569	25209
822.709	25263
822.849	25183
822.99	25133
823.13	25103
823.27	25129
823.41	24985
823.55	24871
823.69	24992
823.83	24920
823.97	24863
824.11	24848
824.25	24715
824.389	24817
824.529	24848
824.669	24848
824.809	24958
824.949	24810
825.089	24833
825.228	24928
825.368	24532
825.508	24471
825.648	24730
825.787	24837
825.927	24726
826.067	24544
826.206	24559
826.346	24711
826.485	24772
826.625	24620
826.765	24715
826.904	24707
827.044	24452
827.183	24494
827.323	24498
827.462	24414
827.601	24422
827.741	24262
827.88	24334
828.02	24243
828.159	24319
828.298	24547
828.437	24399
828.577	24289
828.716	24376
828.855	24186
828.994	24117
829.134	24155
829.273	24174
829.412	24041
829.551	23893
829.69	23984
829.829	24136
829.968	24133
830.107	24186
830.246	24102
830.385	23935
830.524	23904
830.663	23870
830.802	23802
830.941	23760
831.08	23760
831.219	23741
831.357	23824
831.496	23904
831.635	23771
831.774	23619
831.913	23619
832.051	23471
832.19	23524
832.329	23589
832.467	23349
832.606	23261
832.744	23246
832.883	23334
833.022	23254
833.16	23410
833.299	23299
833.437	23414
833.576	23448
833.714	23524
833.852	23482
833.991	23581
834.129	23528
834.267	23433
834.406	23421
834.544	23467
834.682	23459
834.821	23402
834.959	23539
835.097	23372
835.235	23547
835.373	23383
835.511	23459
835.65	23193
835.788	23220
835.926	23075
836.064	23003
836.202	23090
836.34	23258
836.478	23395
836.615	23242
836.753	23379
836.891	23315
837.029	23368
837.167	23231
837.305	23140
837.443	23280
837.58	23140
837.718	23220
837.856	23143
837.993	23083
838.131	23113
838.269	23086
838.406	22930
838.544	22965
838.681	22774
838.819	22824
838.956	22554
839.094	22611
839.231	22752
839.369	22786
839.506	23003
839.643	22862
839.781	22626
839.918	22611
840.055	22542
840.193	22485
840.33	22618
840.467	22538
840.604	22702
840.742	22858
840.879	22341
841.016	22428
841.153	22470
841.29	22550
841.427	22409
841.564	22573
841.701	22523
841.838	22440
841.975	22390
842.112	22603
842.249	22341
842.385	22413
842.522	22599
842.659	22341
842.796	22386
842.933	22310
843.069	22253
843.206	22318
843.343	22363
843.479	22192
843.616	22204
843.752	22181
843.889	22070
844.025	22120
844.162	22131
844.298	22116
844.435	22181
844.571	21930
844.708	22074
844.844	22188
844.98	22204
845.117	22192
845.253	21975
845.389	21941
845.525	21926
845.661	21793
845.798	21793
845.934	21854
846.07	21819
846.206	21835
846.342	21911
846.478	21835
846.614	21610
846.75	21534
846.886	21564
847.022	21625
847.158	21686
847.294	21614
847.429	21709
847.565	21561
847.701	21812
847.837	21329
847.972	21279
848.108	21405
848.244	21256
848.379	21272
848.515	21188
848.65	21104
848.786	21096
848.921	21077
849.057	21218
849.192	21211
849.328	21241
849.463	21138
849.598	21169
849.734	20998
849.869	20902
850.004	21039
850.14	20929
850.275	20899
850.41	20826
850.545	20853
850.68	20876
850.815	20937
850.95	20910
851.085	21127
851.22	20933
851.355	20941
851.49	20921
851.625	20773
851.76	20864
851.895	20811
852.03	20963
852.165	20906
852.299	20967
852.434	21009
852.569	20944
852.703	21020
852.838	21089
852.973	21009
853.107	21036
853.242	20834
853.376	20773
853.511	20674
853.645	20632
853.78	20853
853.914	20746
854.048	20701
854.183	20746
854.317	20777
854.451	20941
854.585	20788
854.72	20796
854.854	20838
854.988	20632
855.122	20819
855.256	20579
855.39	20811
855.524	20796
855.658	20754
855.792	20724
855.926	20777
856.06	20842
856.194	20902
856.327	20689
856.461	20678
856.595	20613
856.729	20720
856.862	20842
856.996	20777
857.13	20830
857.263	20963
857.397	20792
857.53	20739
857.664	20800
857.797	20838
857.931	20994
858.064	20788
858.197	20834
858.331	20651
858.464	20701
858.597	20667
858.731	20648
858.864	20663
858.997	20678
859.13	20762
859.263	20701
859.396	20788
859.529	20686
859.662	20834
859.795	20769
859.928	20697
860.061	20838
860.194	20842
860.327	20758
860.46	20724
860.592	20788
860.725	20944
860.858	20773
860.99	20705
861.123	20670
861.256	20762
861.388	20682
861.521	21302
861.653	20663
861.786	20423
861.918	20594
862.05	20594
862.183	20781
862.315	20632
862.447	20659
862.58	20655
862.712	20320
862.844	20530
862.976	20419
863.108	20644
863.24	20796
863.372	20351
863.504	20473
863.636	20530
863.768	20564
863.9	20442
864.032	20374
864.164	20450
864.296	20560
864.428	20492
864.559	20503
864.691	20625
864.823	20533
864.954	20317
865.086	20404
865.217	20465
865.349	20248
865.48	20343
865.612	20343
865.743	20518
865.875	20442
866.006	20286
866.137	20374
866.269	20366
866.4	20294
866.531	20427
866.662	20385
866.793	20313
866.924	20305
867.055	20347
867.186	20294
867.317	20415
867.448	20237
867.579	20267
867.71	20161
867.841	20237
867.972	20305
868.103	20218
868.233	20298
868.364	20278
868.495	20408
868.625	20526
868.756	20640
868.886	20488
869.017	20495
869.147	20632
869.278	20598
869.408	20530
869.539	20564
869.669	20545
869.799	20522
869.929	20541
870.06	20697
870.19	20735
870.32	20762
870.45	20811
870.58	20941
870.71	21009
870.84	21024
870.97	20998
871.1	20925
871.23	21161
871.36	21119
871.489	20971
871.619	21135
871.749	21146
871.879	21131
872.008	21340
872.138	21180
872.267	21085
872.397	21039
872.526	20979
872.656	20948
872.785	20891
872.915	21154
873.044	21374
873.173	21100
873.303	21367
873.432	21245
873.561	21245
873.69	21256
873.819	21233
873.948	21245
874.077	21116
874.206	21108
874.335	21096
874.464	21321
874.593	21412
874.722	21264
874.851	21378
874.979	21454
875.108	21393
875.237	21393
875.365	21351
875.494	21332
875.623	21439
875.751	21382
875.88	21469
876.008	21469
876.136	21686
876.265	21812
876.393	21873
876.521	21846
876.65	21968
876.778	21823
876.906	21732
877.034	21736
877.162	21789
877.29	21648
877.418	21743
877.546	21827
877.674	21865
877.802	21789
877.93	21850
878.058	21724
878.185	21606
878.313	21701
878.441	21778
878.568	21542
878.696	21827
878.824	21675
878.951	21823
879.079	21915
879.206	22051
879.333	21888
879.461	21778
879.588	21781
879.715	21926
879.842	22112
879.97	21831
880.097	21622
880.224	21603
880.351	21534
880.478	21572
880.605	21477
880.732	21603
880.859	21873
880.986	21610
881.112	21667
881.239	21374
881.366	21260
881.493	21184
881.619	21161
881.746	21165
881.872	21161
881.999	21096
882.125	21127
882.252	21211
882.378	21138
882.505	21230
882.631	21100
882.757	20845
882.883	20921
883.01	20880
883.136	20754
883.262	20678
883.388	20724
883.514	20815
883.64	20944
883.766	20769
883.892	20712
884.018	20674
884.143	20826
884.269	20925
884.395	20648
884.52	20476
884.646	20545
884.772	20545
884.897	20465
885.023	20476
885.148	20617
885.274	20731
885.399	20564
885.524	20545
885.65	20499
885.775	20522
885.9	20625
886.025	20705
886.15	20518
886.275	20450
886.4	20317
886.525	20560
886.65	20446
886.775	20358
886.9	20526
887.025	20689
887.149	20556
887.274	20313
887.399	20358
887.523	20339
887.648	20195
887.773	20248
887.897	20336
888.021	20385
888.146	20248
888.27	20374
888.395	20457
888.519	20320
888.643	20320
888.767	20404
888.891	20103
889.015	20225
889.139	20176
889.263	20130
889.387	20218
889.511	20332
889.635	20267
889.759	20206
889.883	20119
890.006	20161
890.13	20210
890.254	20035
890.377	20024
890.501	19997
890.624	19791
890.748	19989
890.871	19689
890.995	19750
891.118	19590
891.241	19761
891.364	19628
891.488	19765
891.611	19674
891.734	19765
891.857	19727
891.98	19685
892.103	19788
892.226	19750
892.349	19616
892.471	19537
892.594	19643
892.717	19605
892.839	19582
892.962	19704
893.085	19677
893.207	19597
893.33	19419
893.452	19502
893.575	19651
893.697	19571
893.819	19689
893.941	19750
894.064	19784
894.186	19605
894.308	19483
894.43	19704
894.552	19639
894.674	19799
894.796	19445
894.918	19624
895.04	19518
895.161	19655
895.283	19601
895.405	19525
895.526	19567
895.648	19529
895.769	19483
895.891	19616
896.012	19757
896.134	19742
896.255	19556
896.376	19495
896.498	19643
896.619	19575
896.74	19491
896.861	19696
896.982	19982
897.103	20073
897.224	19902
897.345	19814
897.466	19738
897.587	19845
897.708	19925
897.828	19921
897.949	19826
898.07	19738
898.19	19746
898.311	19940
898.431	19761
898.552	19890
898.672	19871
898.792	19925
898.913	19879
899.033	19700
899.153	19601
899.273	19476
899.393	19487
899.513	19616
899.633	19601
899.753	19616
899.873	19590
899.993	19575
900.113	19480
900.232	19403
900.352	19510
900.472	19445
900.591	19346
900.711	19255
900.83	19255
900.95	19468
901.069	19422
901.189	19266
901.308	19072
901.427	18859
901.546	19046
901.665	18924
901.784	19008
901.904	18814
902.023	18673
902.141	18574
902.26	18536
902.379	18627
902.498	18566
902.617	18513
902.735	18506
902.854	18437
902.973	18429
903.091	18182
903.21	18083
903.328	18133
903.446	17992
903.565	17885
903.683	17901
903.801	17870
903.919	17950
904.038	17798
904.156	17729
904.274	17836
904.392	17646
904.51	17642
904.627	17779
904.745	17843
904.863	17783
904.981	17566
905.098	17482
905.216	17372
905.334	17391
905.451	17524
905.569	17425
905.686	17398
905.803	17368
905.921	17143
906.038	17235
906.155	17280
906.272	17086
906.389	17041
906.506	16881
906.623	17045
906.74	16999
906.857	16873
906.974	16911
907.091	16991
907.208	17105
907.324	17018
907.441	16782
907.557	16710
907.674	16687
907.79	16580
907.907	16615
908.023	16653
908.139	16691
908.256	16592
908.372	16546
908.488	16459
908.604	16485
908.72	16371
908.836	16455
908.952	16341
909.068	16421
909.184	16504
909.3	16440
909.415	16428
909.531	16382
909.647	16211
909.762	16131
909.878	16097
909.993	16185
910.108	16021
910.224	16017
910.339	16105
910.454	15922
910.57	15903
910.685	15895
910.8	16101
910.915	16063
911.03	15945
911.145	15800
911.259	15759
911.374	15629
911.489	15736
911.604	15568
911.718	15473
911.833	15511
911.947	15397
912.062	15321
912.176	15549
912.291	15496
912.405	15511
912.519	15736
912.633	15629
912.748	15526
912.862	15519
912.976	15310
913.09	15154
913.204	15233
913.318	15359
913.431	15310
913.545	15340
913.659	15416
913.772	15252
913.886	15119
914	15020
914.113	15146
914.226	15173
914.34	15077
914.453	14906
914.566	15104
914.68	15055
914.793	14956
914.906	14788
915.019	14663
915.132	14724
915.245	14636
915.358	14727
915.47	14659
915.583	14674
915.696	14678
915.809	14777
915.921	14804
916.034	14663
916.146	14571
916.259	14598
916.371	14743
916.483	14693
916.595	14533
916.708	14568
916.82	14511
916.932	14507
917.044	14560
917.156	14450
917.268	14431
917.38	14434
917.491	14385
917.603	14419
917.715	14434
917.826	14514
917.938	14282
918.049	14278
918.161	14343
918.272	14412
918.384	14545
918.495	14271
918.606	14183
918.717	14092
918.828	14153
918.939	14218
919.05	14008
919.161	14058
919.272	13944
919.383	13955
919.494	14161
919.604	14225
919.715	14191
919.826	14050
919.936	14115
920.047	14225
920.157	14134
920.267	14244
920.378	14161
920.488	14195
920.598	14313
920.708	14415
920.818	14282
920.928	14248
921.038	14385
921.148	14278
921.258	14176
921.368	13936
921.477	13986
921.587	13902
921.697	13833
921.806	13909
921.916	13788
922.025	13597
922.134	13491
922.244	13445
922.353	13533
922.462	13453
922.571	13339
922.68	13194
922.789	13099
922.898	13118
923.007	13187
923.116	13202
923.224	13114
923.333	13099
923.442	13050
923.55	13019
923.659	13072
923.767	13008
923.876	12962
923.984	13015
924.092	12814
924.201	12954
924.309	13004
924.417	12837
924.525	12875
924.633	12734
924.741	13799
924.849	12646
924.956	12753
925.064	12601
925.172	12517
925.279	12483
925.387	12650
925.494	12673
925.602	12757
925.709	12646
925.816	12486
925.924	12578
926.031	12627
926.138	12506
926.245	12563
926.352	12452
926.459	12384
926.566	12536
926.673	12513
926.779	12437
926.886	12365
926.993	12194
927.099	12163
927.206	12076
927.312	12216
927.419	12232
927.525	12213
927.631	12178
927.737	12064
927.843	12041
927.95	11885
928.056	12038
928.162	11958
928.267	12064
928.373	12677
928.479	12049
928.585	11855
928.69	11954
928.796	12053
928.901	11901
929.007	11741
929.112	11809
929.218	11874
929.323	11771
929.428	11786
929.533	11855
929.638	11676
929.743	11726
929.848	11767
929.953	11741
930.058	11596
930.163	11406
930.267	11448
930.372	11665
930.477	11368
930.581	11524
930.685	11463
930.79	11242
930.894	11376
930.998	11322
931.103	11349
931.207	11151
931.311	11006
931.415	10896
931.519	10622
931.623	10710
