Data from test_V78500241_104.txt Node
Date: Fri Mar 25 15:10:35 CST 2022
User: usil
Spectrometer: V785-0024
Trigger mode: 0
Integration Time (sec): 4.000000E-1
Scans to average: 1
Nonlinearity correction enabled: false
Boxcar width: 0
Storing dark spectrum: false
XAxis mode: Wavelengths
Number of Pixels in Spectrum: 1024
>>>>>Begin Spectral Data<<<<<
801.071	28230
801.214	28268
801.356	28006
801.499	27869
801.641	27888
801.783	27698
801.926	27701
802.068	27884
802.211	27629
802.353	27603
802.496	27511
802.638	27492
802.78	27230
802.923	27241
803.065	27173
803.208	27340
803.35	27332
803.492	27374
803.635	27382
803.777	27382
803.919	27431
804.061	27690
804.204	27386
804.346	27306
804.488	27500
804.63	27389
804.773	27283
804.915	27374
805.057	27427
805.199	27336
805.341	27538
805.483	27534
805.626	27447
805.768	27359
805.91	27279
806.052	27564
806.194	27431
806.336	27705
806.478	27561
806.62	27443
806.762	27652
806.904	27614
807.046	27964
807.188	27926
807.33	27850
807.472	27907
807.614	27720
807.756	27823
807.898	27759
808.04	27603
808.182	27675
808.324	27736
808.465	27618
808.607	27914
808.749	27953
808.891	28097
809.033	28173
809.174	28006
809.316	28078
809.458	28070
809.6	27914
809.741	27991
809.883	28051
810.025	28314
810.166	28166
810.308	28242
810.45	28261
810.591	28025
810.733	28048
810.875	27903
811.016	27823
811.158	27759
811.299	27869
811.441	28051
811.582	28036
811.724	27922
811.865	27789
812.007	27835
812.148	27888
812.29	27918
812.431	28051
812.573	28158
812.714	28280
812.855	28306
812.997	28516
813.138	28512
813.279	28470
813.421	28443
813.562	28329
813.703	28185
813.845	28131
813.986	27797
814.127	27720
814.268	27568
814.41	27530
814.551	27431
814.692	27656
814.833	27431
814.974	27408
815.115	27447
815.256	27313
815.397	27321
815.539	27268
815.68	27249
815.821	27180
815.962	27317
816.103	27310
816.244	27039
816.385	26960
816.526	26979
816.666	26849
816.807	26720
816.948	26842
817.089	26796
817.23	26739
817.371	26705
817.512	26804
817.653	26609
817.793	26629
817.934	26632
818.075	26686
818.216	26807
818.356	26579
818.497	26404
818.638	26343
818.778	26396
818.919	26427
819.06	26434
819.2	26541
819.341	26609
819.481	26636
819.622	26686
819.762	26994
819.903	26857
820.043	26796
820.184	26781
820.324	26590
820.465	26842
820.605	26659
820.746	26602
820.886	26644
821.026	26533
821.167	26682
821.307	26651
821.447	26602
821.588	26419
821.728	26309
821.868	26168
822.008	26016
822.149	26134
822.289	26043
822.429	25841
822.569	25708
822.709	25674
822.849	25487
822.99	25514
823.13	25460
823.27	25411
823.41	25255
823.55	25285
823.69	25331
823.83	25400
823.97	25194
824.11	25114
824.25	25069
824.389	25023
824.529	25160
824.669	25209
824.809	25236
824.949	25225
825.089	25171
825.228	25031
825.368	24878
825.508	24886
825.648	24935
825.787	25091
825.927	24977
826.067	24817
826.206	24928
826.346	24924
826.485	24878
826.625	24882
826.765	25065
826.904	24905
827.044	24658
827.183	24502
827.323	24513
827.462	24593
827.601	24490
827.741	24582
827.88	24597
828.02	24437
828.159	24547
828.298	24517
828.437	24456
828.577	24513
828.716	24544
828.855	24536
828.994	24224
829.134	24357
829.273	24273
829.412	24281
829.551	24171
829.69	24216
829.829	24323
829.968	24133
830.107	24346
830.246	24216
830.385	24171
830.524	23999
830.663	24034
830.802	23912
830.941	23866
831.08	23847
831.219	23863
831.357	23722
831.496	24011
831.635	23764
831.774	23695
831.913	23600
832.051	23520
832.19	23417
832.329	23535
832.467	23376
832.606	23467
832.744	23330
832.883	23379
833.022	23265
833.16	23448
833.299	23368
833.437	23478
833.576	23577
833.714	23459
833.852	23501
833.991	23440
834.129	23562
834.267	23551
834.406	23501
834.544	23497
834.682	23421
834.821	23395
834.959	23558
835.097	23330
835.235	23467
835.373	23391
835.511	23364
835.65	23284
835.788	23246
835.926	23151
836.064	22976
836.202	22915
836.34	23212
836.478	23265
836.615	23292
836.753	23178
836.891	23376
837.029	23341
837.167	23086
837.305	23151
837.443	23204
837.58	23102
837.718	23242
837.856	23185
837.993	23079
838.131	23117
838.269	23067
838.406	23010
838.544	22862
838.681	22736
838.819	22763
838.956	22653
839.094	22485
839.231	22557
839.369	22782
839.506	22995
839.643	22729
839.781	22497
839.918	22516
840.055	22512
840.193	22573
840.33	22440
840.467	22443
840.604	22337
840.742	22748
840.879	22192
841.016	22440
841.153	22379
841.29	22542
841.427	22413
841.564	22405
841.701	22367
841.838	22360
841.975	22375
842.112	22143
842.249	22177
842.385	22120
842.522	22287
842.659	22112
842.796	22101
842.933	22067
843.069	22074
843.206	22093
843.343	22268
843.479	22086
843.616	22211
843.752	21842
843.889	21861
844.025	21960
844.162	21873
844.298	21983
844.435	21892
844.571	21789
844.708	21876
844.844	22036
844.98	21991
845.117	21915
845.253	21770
845.389	21778
845.525	21800
845.661	21743
845.798	21667
845.934	21610
846.07	21511
846.206	21526
846.342	21774
846.478	21679
846.614	21458
846.75	21275
846.886	21340
847.022	21370
847.158	21252
847.294	21310
847.429	21302
847.565	21218
847.701	21526
847.837	21055
847.972	21066
848.108	21077
848.244	21116
848.379	20933
848.515	20857
848.65	20849
848.786	20918
848.921	20853
849.057	20918
849.192	20941
849.328	20842
849.463	20910
849.598	20842
849.734	20807
849.869	20750
850.004	20575
850.14	20644
850.275	20594
850.41	20522
850.545	20708
850.68	20522
850.815	20621
850.95	20522
851.085	20967
851.22	20716
851.355	20522
851.49	20689
851.625	20488
851.76	20560
851.895	20526
852.03	20461
852.165	20587
852.299	20545
852.434	20701
852.569	20590
852.703	20533
852.838	20552
852.973	20708
853.107	20602
853.242	20533
853.376	20514
853.511	20275
853.645	20294
853.78	20537
853.914	20492
854.048	20370
854.183	20370
854.317	20511
854.451	20602
854.585	20370
854.72	20328
854.854	20362
854.988	20275
855.122	20377
855.256	20278
855.39	20423
855.524	20499
855.658	20488
855.792	20476
855.926	20415
856.06	20385
856.194	20514
856.327	20415
856.461	20362
856.595	20271
856.729	20408
856.862	20484
856.996	20434
857.13	20370
857.263	20469
857.397	20438
857.53	20434
857.664	20427
857.797	20385
857.931	20526
858.064	20438
858.197	20419
858.331	20415
858.464	20336
858.597	20259
858.731	20355
858.864	20305
858.997	20336
859.13	20332
859.263	20362
859.396	20366
859.529	20358
859.662	20301
859.795	20225
859.928	20309
860.061	20457
860.194	20564
860.327	20446
860.46	20320
860.592	20415
860.725	20442
860.858	20442
860.99	20202
861.123	20161
861.256	20225
861.388	20298
861.521	21074
861.653	20237
861.786	20214
861.918	20187
862.05	20240
862.183	20362
862.315	20324
862.447	20362
862.58	20267
862.712	20134
862.844	20039
862.976	20202
863.108	20077
863.24	20476
863.372	20058
863.504	20035
863.636	19993
863.768	20084
863.9	20054
864.032	19932
864.164	20024
864.296	19940
864.428	20111
864.559	20149
864.691	20081
864.823	20092
864.954	20100
865.086	20073
865.217	19978
865.349	19868
865.48	20024
865.612	20046
865.743	20107
865.875	20024
866.006	19902
866.137	19894
866.269	19902
866.4	19913
866.531	19944
866.662	19845
866.793	19890
866.924	19742
867.055	19898
867.186	19913
867.317	19837
867.448	19776
867.579	19868
867.71	19696
867.841	19795
867.972	19974
868.103	19947
868.233	19879
868.364	19890
868.495	19928
868.625	20081
868.756	20149
868.886	20012
869.017	20008
869.147	20164
869.278	20191
869.408	20065
869.539	20008
869.669	20218
869.799	20164
869.929	20267
870.06	20290
870.19	20507
870.32	20286
870.45	20366
870.58	20450
870.71	20492
870.84	20663
870.97	20514
871.1	20473
871.23	20705
871.36	20648
871.489	20594
871.619	20781
871.749	20655
871.879	20682
872.008	20754
872.138	20667
872.267	20739
872.397	20598
872.526	20594
872.656	20587
872.785	20526
872.915	20693
873.044	20796
873.173	20708
873.303	20769
873.432	20807
873.561	20845
873.69	20773
873.819	20716
873.948	20739
874.077	20773
874.206	20644
874.335	20754
874.464	20902
874.593	20872
874.722	21005
874.851	21051
874.979	21020
875.108	21138
875.237	20910
875.365	20982
875.494	20902
875.623	21020
875.751	20937
875.88	20956
876.008	21081
876.136	21089
876.265	21294
876.393	21515
876.521	21591
876.65	21481
876.778	21230
876.906	21245
877.034	21336
877.162	21306
877.29	21294
877.418	21344
877.546	21279
877.674	21233
877.802	21256
877.93	21340
878.058	21173
878.185	21176
878.313	21336
878.441	21363
878.568	21070
878.696	21287
878.824	21340
878.951	21431
879.079	21492
879.206	21614
879.333	21530
879.461	21306
879.588	21439
879.715	21568
879.842	21595
879.97	21382
880.097	21081
880.224	21112
880.351	21203
880.478	21218
880.605	21104
880.732	21203
880.859	21355
880.986	21089
881.112	21195
881.239	21020
881.366	20902
881.493	20754
881.619	20739
881.746	20731
881.872	20762
881.999	20663
882.125	20678
882.252	20800
882.378	20731
882.505	20731
882.631	20629
882.757	20499
882.883	20488
883.01	20495
883.136	20415
883.262	20393
883.388	20320
883.514	20415
883.64	20465
883.766	20381
883.892	20244
884.018	20332
884.143	20552
884.269	20511
884.395	20161
884.52	19986
884.646	20187
884.772	20138
884.897	19940
885.023	20176
885.148	20259
885.274	20309
885.399	20244
885.524	20153
885.65	20134
885.775	20081
885.9	20164
886.025	20233
886.15	20202
886.275	20035
886.4	19993
886.525	20069
886.65	20069
886.775	20031
886.9	20206
887.025	20377
887.149	20134
887.274	20008
887.399	19818
887.523	19814
887.648	19883
887.773	19784
887.897	19909
888.021	19970
888.146	19947
888.27	19906
888.395	19955
888.519	19833
888.643	19906
888.767	19936
888.891	19852
889.015	19647
889.139	19624
889.263	19738
889.387	19791
889.511	19864
889.635	19750
889.759	19632
889.883	19594
890.006	19685
890.13	19818
890.254	19510
890.377	19567
890.501	19426
890.624	19331
890.748	19499
890.871	19476
890.995	19289
891.118	19236
891.241	19362
891.364	19255
891.488	19354
891.611	19202
891.734	19293
891.857	19369
891.98	19259
892.103	19339
892.226	19270
892.349	19209
892.471	19118
892.594	19217
892.717	19297
892.839	19236
892.962	19175
893.085	19255
893.207	19160
893.33	18985
893.452	19133
893.575	19244
893.697	19129
893.819	19308
893.941	19396
894.064	19411
894.186	19168
894.308	19137
894.43	19236
894.552	19388
894.674	19358
894.796	19156
894.918	19126
895.04	19118
895.161	19285
895.283	19362
895.405	19164
895.526	19168
895.648	19251
895.769	19190
895.891	19206
896.012	19266
896.134	19198
896.255	19308
896.376	19194
896.498	19278
896.619	19331
896.74	19274
896.861	19297
896.982	19468
897.103	19693
897.224	19495
897.345	19441
897.466	19388
897.587	19483
897.708	19575
897.828	19464
897.949	19388
898.07	19266
898.19	19464
898.311	19407
898.431	19343
898.552	19476
898.672	19449
898.792	19476
898.913	19449
899.033	19369
899.153	19148
899.273	19137
899.393	19202
899.513	19114
899.633	19118
899.753	19114
899.873	19031
899.993	19103
900.113	19103
900.232	19129
900.352	19156
900.472	18993
900.591	18951
900.711	18901
900.83	18875
900.95	19061
901.069	19084
901.189	18859
901.308	18692
901.427	18483
901.546	18566
901.665	18616
901.784	18570
901.904	18418
902.023	18369
902.141	18091
902.26	18087
902.379	18152
902.498	18110
902.617	18011
902.735	18129
902.854	18083
902.973	18022
903.091	17722
903.21	17722
903.328	17771
903.446	17596
903.565	17501
903.683	17672
903.801	17429
903.919	17376
904.038	17566
904.156	17467
904.274	17486
904.392	17337
904.51	17296
904.627	17410
904.745	17303
904.863	17326
904.981	17140
905.098	16972
905.216	16927
905.334	17102
905.451	17033
905.569	16949
905.686	17014
905.803	16999
905.921	16869
906.038	16820
906.155	16771
906.272	16664
906.389	16782
906.506	16546
906.623	16554
906.74	16592
906.857	16462
906.974	16386
907.091	16611
907.208	16698
907.324	16523
907.441	16436
907.557	16421
907.674	16173
907.79	16154
907.907	16173
908.023	16253
908.139	16226
908.256	16116
908.372	16177
908.488	16124
908.604	15915
908.72	15960
908.836	15979
908.952	15827
909.068	16002
909.184	15964
909.3	15812
909.415	15994
909.531	15876
909.647	15675
909.762	15606
909.878	15663
909.993	15682
910.108	15667
910.224	15526
910.339	15637
910.454	15507
910.57	15450
910.685	15405
910.8	15656
910.915	15595
911.03	15397
911.145	15264
911.259	15184
911.374	15272
911.489	15135
911.604	15074
911.718	15005
911.833	14986
911.947	14872
912.062	14804
912.176	14929
912.291	14914
912.405	14883
912.519	15032
912.633	14982
912.748	14998
912.862	14933
912.976	14727
913.09	14659
913.204	14651
913.318	14842
913.431	14823
913.545	14788
913.659	14880
913.772	14731
913.886	14533
914	14617
914.113	14640
914.226	14720
914.34	14602
914.453	14412
914.566	14632
914.68	14488
914.793	14606
914.906	14298
915.019	14225
915.132	14210
915.245	14290
915.358	14271
915.47	14271
915.583	14347
915.696	14218
915.809	14370
915.921	14488
916.034	14199
916.146	14153
916.259	14103
916.371	14138
916.483	14252
916.595	14130
916.708	14073
916.82	14069
916.932	14043
917.044	14062
917.156	14100
917.268	13879
917.38	13997
917.491	13833
917.603	13936
917.715	13936
917.826	13959
917.938	13871
918.049	13868
918.161	13780
918.272	14012
918.384	13913
918.495	13791
918.606	13624
918.717	13624
918.828	13757
918.939	13651
919.05	13696
919.161	13784
919.272	13438
919.383	13502
919.494	13700
919.604	13860
919.715	13696
919.826	13552
919.936	13628
920.047	13677
920.157	13632
920.267	13742
920.378	13662
920.488	13666
920.598	13791
920.708	14012
920.818	13727
920.928	13708
921.038	13879
921.148	13791
921.258	13586
921.368	13480
921.477	13343
921.587	13350
921.697	13221
921.806	13384
921.916	13202
922.025	13110
922.134	12996
922.244	12973
922.353	12958
922.462	12916
922.571	12791
922.68	12623
922.789	12692
922.898	12696
923.007	12608
923.116	12665
923.224	12658
923.333	12681
923.442	12452
923.55	12445
923.659	12509
923.767	12620
923.876	12464
923.984	12604
924.092	12418
924.201	12479
924.309	12437
924.417	12490
924.525	12380
924.633	12361
924.741	13209
924.849	12197
924.956	12315
925.064	12136
925.172	12114
925.279	12045
925.387	12155
925.494	12171
925.602	12308
925.709	12201
925.816	12034
925.924	12178
926.031	12243
926.138	12041
926.245	12110
926.352	11999
926.459	12235
926.566	12216
926.673	12030
926.779	11935
926.886	11992
926.993	11726
927.099	11783
927.206	11764
927.312	11688
927.419	11775
927.525	11760
927.631	11680
927.737	11714
927.843	11608
927.95	11512
928.056	11646
928.162	11558
928.267	11600
928.373	12159
928.479	11680
928.585	11474
928.69	11554
928.796	11543
928.901	11501
929.007	11292
929.112	11482
929.218	11395
929.323	11395
929.428	11303
929.533	11509
929.638	11265
929.743	11307
929.848	11376
929.953	11383
930.058	11208
930.163	11113
930.267	11098
930.372	11242
930.477	11018
930.581	11288
930.685	11181
930.79	10968
930.894	11014
930.998	10904
931.103	11006
931.207	10714
931.311	10618
931.415	10535
931.519	10341
931.623	10280
