Data from test_V78500241_3185.txt Node
Date: Fri Mar 25 15:32:02 CST 2022
User: usil
Spectrometer: V785-0024
Trigger mode: 0
Integration Time (sec): 4.000000E-1
Scans to average: 1
Nonlinearity correction enabled: false
Boxcar width: 0
Storing dark spectrum: false
XAxis mode: Wavelengths
Number of Pixels in Spectrum: 1024
>>>>>Begin Spectral Data<<<<<
801.071	27207
801.214	27150
801.356	26918
801.499	26876
801.641	26537
801.783	26712
801.926	26826
802.068	26773
802.211	26648
802.353	26583
802.496	26457
802.638	26377
802.78	26286
802.923	26366
803.065	26252
803.208	26347
803.35	26301
803.492	26453
803.635	26385
803.777	26446
803.919	26434
804.061	26746
804.204	26446
804.346	26412
804.488	26233
804.63	26469
804.773	26431
804.915	26609
805.057	26423
805.199	26290
805.341	26522
805.483	26629
805.626	26492
805.768	26431
805.91	26556
806.052	26667
806.194	26560
806.336	26701
806.478	26473
806.62	26568
806.762	26697
806.904	26815
807.046	27131
807.188	27081
807.33	26994
807.472	27058
807.614	26940
807.756	26979
807.898	26872
808.04	26663
808.182	26655
808.324	26899
808.465	26910
808.607	26940
808.749	27108
808.891	27329
809.033	27431
809.174	27249
809.316	27188
809.458	27165
809.6	27085
809.741	27180
809.883	27329
810.025	27523
810.166	27412
810.308	27397
810.45	27306
810.591	27504
810.733	27203
810.875	27112
811.016	27199
811.158	27218
811.299	27260
811.441	27264
811.582	27481
811.724	27195
811.865	27005
812.007	27104
812.148	27222
812.29	27104
812.431	27279
812.573	27462
812.714	27545
812.855	27656
812.997	27713
813.138	27808
813.279	27762
813.421	27705
813.562	27644
813.703	27397
813.845	27367
813.986	27131
814.127	26963
814.268	26819
814.41	26823
814.551	26644
814.692	26933
814.833	26674
814.974	26697
815.115	26979
815.256	26636
815.397	26701
815.539	26758
815.68	26617
815.821	26427
815.962	26636
816.103	26469
816.244	26393
816.385	26294
816.526	26278
816.666	26164
816.807	26103
816.948	26043
817.089	26153
817.23	26138
817.371	26054
817.512	25989
817.653	26035
817.793	25955
817.934	25963
818.075	26130
818.216	26054
818.356	26012
818.497	25803
818.638	25742
818.778	25868
818.919	25765
819.06	25932
819.2	25982
819.341	26088
819.481	25947
819.622	26225
819.762	26450
819.903	26286
820.043	26347
820.184	26142
820.324	26317
820.465	26210
820.605	26100
820.746	26126
820.886	25944
821.026	26100
821.167	25997
821.307	26191
821.447	25955
821.588	25940
821.728	25753
821.868	25681
822.008	25457
822.149	25605
822.289	25472
822.429	25304
822.569	25247
822.709	25206
822.849	25038
822.99	25069
823.13	25050
823.27	24992
823.41	24802
823.55	24730
823.69	24897
823.83	24825
823.97	24840
824.11	24658
824.25	24677
824.389	24658
824.529	24715
824.669	24589
824.809	24738
824.949	24745
825.089	24734
825.228	24722
825.368	24521
825.508	24418
825.648	24601
825.787	24471
825.927	24642
826.067	24475
826.206	24502
826.346	24673
826.485	24620
826.625	24551
826.765	24654
826.904	24517
827.044	24308
827.183	24277
827.323	24239
827.462	24372
827.601	24281
827.741	24178
827.88	24209
828.02	24098
828.159	24197
828.298	24300
828.437	24334
828.577	24186
828.716	24129
828.855	24239
828.994	23923
829.134	23992
829.273	24011
829.412	23969
829.551	23912
829.69	23878
829.829	23923
829.968	24011
830.107	24011
830.246	24011
830.385	23935
830.524	23939
830.663	23752
830.802	23676
830.941	23566
831.08	23509
831.219	23634
831.357	23657
831.496	23726
831.635	23684
831.774	23539
831.913	23421
832.051	23337
832.19	23376
832.329	23391
832.467	23303
832.606	23147
832.744	23318
832.883	23174
833.022	23136
833.16	23269
833.299	23155
833.437	23303
833.576	23353
833.714	23288
833.852	23330
833.991	23440
834.129	23417
834.267	23242
834.406	23444
834.544	23471
834.682	23334
834.821	23372
834.959	23505
835.097	23189
835.235	23353
835.373	23299
835.511	23200
835.65	23151
835.788	23204
835.926	23109
836.064	22938
836.202	22957
836.34	23326
836.478	23170
836.615	23185
836.753	22999
836.891	23242
837.029	23094
837.167	23098
837.305	23003
837.443	22976
837.58	22961
837.718	23159
837.856	23086
837.993	23003
838.131	22995
838.269	22976
838.406	22915
838.544	22698
838.681	22809
838.819	22774
838.956	22466
839.094	22550
839.231	22611
839.369	22721
839.506	22934
839.643	22683
839.781	22535
839.918	22386
840.055	22478
840.193	22485
840.33	22352
840.467	22443
840.604	22417
840.742	22778
840.879	22390
841.016	22451
841.153	22386
841.29	22599
841.427	22409
841.564	22413
841.701	22466
841.838	22348
841.975	22318
842.112	22382
842.249	22303
842.385	22105
842.522	22436
842.659	22211
842.796	22196
842.933	22265
843.069	22070
843.206	22150
843.343	22211
843.479	22173
843.616	22188
843.752	21979
843.889	21994
844.025	22116
844.162	22025
844.298	21983
844.435	21915
844.571	21937
844.708	21987
844.844	22025
844.98	22154
845.117	22074
845.253	21903
845.389	21854
845.525	21854
845.661	21705
845.798	21667
845.934	21736
846.07	21625
846.206	21564
846.342	21850
846.478	21781
846.614	21538
846.75	21401
846.886	21439
847.022	21485
847.158	21431
847.294	21473
847.429	21477
847.565	21332
847.701	21667
847.837	21268
847.972	21081
848.108	21222
848.244	21192
848.379	21036
848.515	20956
848.65	21104
848.786	20986
848.921	21169
849.057	21085
849.192	21150
849.328	21043
849.463	21017
849.598	21039
849.734	20967
849.869	20804
850.004	20674
850.14	20811
850.275	20811
850.41	20693
850.545	20762
850.68	20659
850.815	20701
850.95	20853
851.085	21032
851.22	20804
851.355	20891
851.49	20754
851.625	20708
851.76	20842
851.895	20739
852.03	20830
852.165	20804
852.299	20895
852.434	20788
852.569	20807
852.703	20720
852.838	20842
852.973	20857
853.107	20998
853.242	20819
853.376	20560
853.511	20514
853.645	20609
853.78	20682
853.914	20640
854.048	20560
854.183	20571
854.317	20613
854.451	20781
854.585	20689
854.72	20492
854.854	20697
854.988	20537
855.122	20625
855.256	20419
855.39	20530
855.524	20678
855.658	20705
855.792	20648
855.926	20720
856.06	20648
856.194	20640
856.327	20640
856.461	20461
856.595	20541
856.729	20583
856.862	20629
856.996	20644
857.13	20602
857.263	20735
857.397	20705
857.53	20530
857.664	20587
857.797	20571
857.931	20712
858.064	20556
858.197	20621
858.331	20640
858.464	20530
858.597	20484
858.731	20533
858.864	20575
858.997	20617
859.13	20663
859.263	20598
859.396	20712
859.529	20530
859.662	20663
859.795	20583
859.928	20606
860.061	20735
860.194	20849
860.327	20708
860.46	20571
860.592	20880
860.725	20819
860.858	20762
860.99	20670
861.123	20492
861.256	20598
861.388	20667
861.521	21218
861.653	20549
861.786	20400
861.918	20431
862.05	20594
862.183	20545
862.315	20640
862.447	20522
862.58	20598
862.712	20476
862.844	20328
862.976	20461
863.108	20381
863.24	20712
863.372	20355
863.504	20404
863.636	20309
863.768	20393
863.9	20313
864.032	20218
864.164	20305
864.296	20332
864.428	20457
864.559	20457
864.691	20442
864.823	20431
864.954	20263
865.086	20385
865.217	20164
865.349	20271
865.48	20138
865.612	20187
865.743	20275
865.875	20259
866.006	20142
866.137	20259
866.269	20218
866.4	20206
866.531	20191
866.662	20149
866.793	20248
866.924	20157
867.055	20271
867.186	20252
867.317	20149
867.448	20157
867.579	20092
867.71	20073
867.841	20046
867.972	20111
868.103	20084
868.233	20206
868.364	20176
868.495	20320
868.625	20324
868.756	20454
868.886	20381
869.017	20514
869.147	20499
869.278	20533
869.408	20366
869.539	20404
869.669	20454
869.799	20476
869.929	20381
870.06	20552
870.19	20701
870.32	20724
870.45	20815
870.58	20861
870.71	20944
870.84	21036
870.97	20861
871.1	20834
871.23	21058
871.36	21009
871.489	20914
871.619	21043
871.749	20956
871.879	21131
872.008	21176
872.138	21020
872.267	21077
872.397	20826
872.526	20902
872.656	20838
872.785	20861
872.915	21001
873.044	21173
873.173	21017
873.303	20982
873.432	20975
873.561	21237
873.69	21043
873.819	20925
873.948	21043
874.077	21051
874.206	21013
874.335	21081
874.464	21142
874.593	21302
874.722	21211
874.851	21275
874.979	21378
875.108	21317
875.237	21230
875.365	21275
875.494	21348
875.623	21340
875.751	21272
875.88	21310
876.008	21462
876.136	21488
876.265	21743
876.393	21789
876.521	21812
876.65	21800
876.778	21713
876.906	21739
877.034	21701
877.162	21671
877.29	21682
877.418	21625
877.546	21641
877.674	21694
877.802	21644
877.93	21667
878.058	21614
878.185	21408
878.313	21583
878.441	21572
878.568	21492
878.696	21538
878.824	21690
878.951	21751
879.079	21835
879.206	21994
879.333	21842
879.461	21656
879.588	21720
879.715	21781
879.842	21918
879.97	21755
880.097	21496
880.224	21424
880.351	21507
880.478	21488
880.605	21374
880.732	21485
880.859	21770
880.986	21469
881.112	21572
881.239	21336
881.366	21176
881.493	21138
881.619	21005
881.746	21039
881.872	20967
881.999	21020
882.125	21138
882.252	21066
882.378	20967
882.505	21180
882.631	20823
882.757	20754
882.883	20815
883.01	20762
883.136	20830
883.262	20697
883.388	20644
883.514	20613
883.64	20823
883.766	20777
883.892	20366
884.018	20625
884.143	20834
884.269	20872
884.395	20530
884.52	20480
884.646	20415
884.772	20339
884.897	20317
885.023	20393
885.148	20545
885.274	20571
885.399	20651
885.524	20450
885.65	20404
885.775	20450
885.9	20533
886.025	20522
886.15	20651
886.275	20385
886.4	20305
886.525	20370
886.65	20412
886.775	20324
886.9	20507
887.025	20705
887.149	20351
887.274	20256
887.399	20142
887.523	20180
887.648	20168
887.773	20043
887.897	20278
888.021	20263
888.146	20119
888.27	20244
888.395	20313
888.519	20339
888.643	20298
888.767	20263
888.891	20111
889.015	20024
889.139	20065
889.263	19856
889.387	20001
889.511	20244
889.635	20210
889.759	20008
889.883	19871
890.006	19993
890.13	20073
890.254	19947
890.377	19940
890.501	19852
890.624	19791
890.748	19822
890.871	19696
890.995	19670
891.118	19537
891.241	19556
891.364	19586
891.488	19674
891.611	19502
891.734	19529
891.857	19658
891.98	19590
892.103	19674
892.226	19521
892.349	19533
892.471	19381
892.594	19533
892.717	19525
892.839	19559
892.962	19483
893.085	19635
893.207	19586
893.33	19362
893.452	19384
893.575	19544
893.697	19499
893.819	19594
893.941	19670
894.064	19537
894.186	19453
894.308	19422
894.43	19441
894.552	19613
894.674	19514
894.796	19483
894.918	19502
895.04	19358
895.161	19628
895.283	19582
895.405	19460
895.526	19453
895.648	19575
895.769	19578
895.891	19499
896.012	19594
896.134	19453
896.255	19384
896.376	19457
896.498	19457
896.619	19556
896.74	19499
896.861	19529
896.982	19750
897.103	19925
897.224	19719
897.345	19818
897.466	19651
897.587	19727
897.708	19811
897.828	19799
897.949	19681
898.07	19586
898.19	19708
898.311	19799
898.431	19734
898.552	19655
898.672	19788
898.792	19803
898.913	19841
899.033	19731
899.153	19594
899.273	19453
899.393	19502
899.513	19575
899.633	19514
899.753	19491
899.873	19476
899.993	19472
900.113	19403
900.232	19407
900.352	19384
900.472	19263
900.591	19308
900.711	19251
900.83	19175
900.95	19422
901.069	19430
901.189	19190
901.308	18905
901.427	18814
901.546	18878
901.665	18973
901.784	18947
901.904	18806
902.023	18673
902.141	18544
902.26	18517
902.379	18525
902.498	18403
902.617	18330
902.735	18475
902.854	18334
902.973	18330
903.091	18144
903.21	18064
903.328	18003
903.446	17950
903.565	17912
903.683	17969
903.801	17885
903.919	17821
904.038	17843
904.156	17630
904.274	17630
904.392	17615
904.51	17665
904.627	17714
904.745	17672
904.863	17741
904.981	17471
905.098	17280
905.216	17391
905.334	17417
905.451	17315
905.569	17303
905.686	17474
905.803	17341
905.921	17075
906.038	17159
906.155	17159
906.272	17056
906.389	17128
906.506	16850
906.623	16820
906.74	16953
906.857	16668
906.974	16702
907.091	16877
907.208	16946
907.324	16911
907.441	16790
907.557	16607
907.674	16512
907.79	16481
907.907	16523
908.023	16649
908.139	16641
908.256	16527
908.372	16523
908.488	16459
908.604	16257
908.72	16306
908.836	16287
908.952	16318
909.068	16443
909.184	16394
909.3	16234
909.415	16356
909.531	16299
909.647	16154
909.762	15953
909.878	15907
909.993	15968
910.108	15899
910.224	15930
910.339	16048
910.454	15926
910.57	15739
910.685	15709
910.8	16025
910.915	15979
911.03	15816
911.145	15641
911.259	15591
911.374	15580
911.489	15606
911.604	15488
911.718	15344
911.833	15386
911.947	15226
912.062	15252
912.176	15355
912.291	15439
912.405	15431
912.519	15595
912.633	15622
912.748	15389
912.862	15397
912.976	15180
913.09	15154
913.204	15249
913.318	15169
913.431	15211
913.545	15302
913.659	15245
913.772	15161
913.886	15146
914	15024
914.113	15089
914.226	15150
914.34	15070
914.453	14906
914.566	15123
914.68	14906
914.793	14853
914.906	14773
915.019	14610
915.132	14511
915.245	14648
915.358	14693
915.47	14579
915.583	14571
915.696	14667
915.809	14724
915.921	14746
916.034	14522
916.146	14583
916.259	14454
916.371	14602
916.483	14552
916.595	14450
916.708	14476
916.82	14332
916.932	14404
917.044	14492
917.156	14309
917.268	14294
917.38	14336
917.491	14278
917.603	14248
917.715	14256
917.826	14385
917.938	14195
918.049	14206
918.161	14252
918.272	14377
918.384	14309
918.495	14259
918.606	14119
918.717	13982
918.828	14062
918.939	14069
919.05	13989
919.161	14092
919.272	13852
919.383	13963
919.494	14058
919.604	14244
919.715	14043
919.826	13894
919.936	13974
920.047	14046
920.157	14027
920.267	14290
920.378	14187
920.488	14073
920.598	14225
920.708	14351
920.818	14123
920.928	14126
921.038	14336
921.148	14339
921.258	14035
921.368	13928
921.477	13727
921.587	13776
921.697	13590
921.806	13826
921.916	13632
922.025	13460
922.134	13449
922.244	13331
922.353	13506
922.462	13293
922.571	13190
922.68	13179
922.789	13126
922.898	13057
923.007	12962
923.116	13141
923.224	13091
923.333	12981
923.442	12943
923.55	12856
923.659	13038
923.767	13015
923.876	12863
923.984	12890
924.092	12795
924.201	12863
924.309	12932
924.417	12943
924.525	12707
924.633	12719
924.741	13712
924.849	12604
924.956	12719
925.064	12467
925.172	12498
925.279	12525
925.387	12536
925.494	12464
925.602	12669
925.709	12570
925.816	12448
925.924	12494
926.031	12593
926.138	12426
926.245	12578
926.352	12407
926.459	12502
926.566	12604
926.673	12334
926.779	12232
926.886	12270
926.993	12182
927.099	12057
927.206	12155
927.312	12045
927.419	12163
927.525	12083
927.631	12057
927.737	12003
927.843	11897
927.95	11764
928.056	11965
928.162	11931
928.267	11958
928.373	12684
928.479	12030
928.585	11786
928.69	11901
928.796	11897
928.901	11824
929.007	11627
929.112	11748
929.218	11767
929.323	11676
929.428	11680
929.533	11790
929.638	11520
929.743	11642
929.848	11661
929.953	11596
930.058	11520
930.163	11459
930.267	11406
930.372	11497
930.477	11280
930.581	11482
930.685	11417
930.79	11277
930.894	11284
930.998	11185
931.103	11421
931.207	11052
931.311	10923
931.415	10843
931.519	10672
931.623	10611
