Data from test_V78500241_293.txt Node
Date: Fri Mar 25 15:11:54 CST 2022
User: usil
Spectrometer: V785-0024
Trigger mode: 0
Integration Time (sec): 4.000000E-1
Scans to average: 1
Nonlinearity correction enabled: false
Boxcar width: 0
Storing dark spectrum: false
XAxis mode: Wavelengths
Number of Pixels in Spectrum: 1024
>>>>>Begin Spectral Data<<<<<
801.071	27816
801.214	27766
801.356	27530
801.499	27462
801.641	27382
801.783	27374
801.926	27401
802.068	27287
802.211	27230
802.353	27199
802.496	27009
802.638	26998
802.78	27070
802.923	26845
803.065	26971
803.208	26960
803.35	27077
803.492	27127
803.635	27207
803.777	27043
803.919	27055
804.061	27523
804.204	27085
804.346	26979
804.488	26998
804.63	27104
804.773	27020
804.915	27024
805.057	27085
805.199	26933
805.341	27184
805.483	27260
805.626	27218
805.768	27028
805.91	27184
806.052	27161
806.194	27154
806.336	27389
806.478	27173
806.62	27298
806.762	27336
806.904	27534
807.046	27614
807.188	27679
807.33	27447
807.472	27644
807.614	27679
807.756	27534
807.898	27477
808.04	27332
808.182	27340
808.324	27435
808.465	27378
808.607	27583
808.749	27663
808.891	27903
809.033	28055
809.174	27922
809.316	27842
809.458	27831
809.6	27774
809.741	27869
809.883	27831
810.025	28036
810.166	28074
810.308	28040
810.45	28055
810.591	27968
810.733	27797
810.875	27686
811.016	27675
811.158	27648
811.299	27895
811.441	27884
811.582	27846
811.724	27720
811.865	27797
812.007	27675
812.148	27671
812.29	27766
812.431	27975
812.573	28029
812.714	28082
812.855	28337
812.997	28363
813.138	28443
813.279	28413
813.421	28337
813.562	28093
813.703	28097
813.845	27991
813.986	27720
814.127	27481
814.268	27420
814.41	27427
814.551	27370
814.692	27306
814.833	27382
814.974	27427
815.115	27336
815.256	27047
815.397	27237
815.539	27195
815.68	27355
815.821	27176
815.962	27222
816.103	27055
816.244	27135
816.385	26937
816.526	26918
816.666	26762
816.807	26530
816.948	26720
817.089	26853
817.23	26701
817.371	26788
817.512	26636
817.653	26621
817.793	26469
817.934	26720
818.075	26602
818.216	26537
818.356	26522
818.497	26461
818.638	26336
818.778	26305
818.919	26393
819.06	26275
819.2	26514
819.341	26488
819.481	26571
819.622	26674
819.762	26845
819.903	26864
820.043	26655
820.184	26762
820.324	26727
820.465	26724
820.605	26735
820.746	26670
820.886	26533
821.026	26587
821.167	26583
821.307	26621
821.447	26492
821.588	26381
821.728	26438
821.868	26100
822.008	26103
822.149	26183
822.289	26050
822.429	25925
822.569	25746
822.709	25685
822.849	25529
822.99	25567
823.13	25479
823.27	25422
823.41	25293
823.55	25350
823.69	25362
823.83	25373
823.97	25251
824.11	25244
824.25	25129
824.389	25168
824.529	25259
824.669	25118
824.809	25232
824.949	25301
825.089	25247
825.228	25228
825.368	24935
825.508	24935
825.648	25031
825.787	25065
825.927	24962
826.067	24924
826.206	24958
826.346	24890
826.485	24932
826.625	24981
826.765	25012
826.904	24947
827.044	24658
827.183	24707
827.323	24692
827.462	24669
827.601	24726
827.741	24738
827.88	24745
828.02	24627
828.159	24661
828.298	24711
828.437	24741
828.577	24661
828.716	24764
828.855	24597
828.994	24494
829.134	24357
829.273	24353
829.412	24342
829.551	24399
829.69	24479
829.829	24376
829.968	24361
830.107	24365
830.246	24319
830.385	24285
830.524	24361
830.663	24129
830.802	24060
830.941	23999
831.08	23889
831.219	23973
831.357	24117
831.496	24053
831.635	23954
831.774	23920
831.913	23863
832.051	23665
832.19	23813
832.329	23703
832.467	23687
832.606	23630
832.744	23642
832.883	23600
833.022	23566
833.16	23642
833.299	23551
833.437	23630
833.576	23703
833.714	23828
833.852	23729
833.991	23828
834.129	23760
834.267	23794
834.406	23642
834.544	23726
834.682	23646
834.821	23600
834.959	23878
835.097	23535
835.235	23691
835.373	23714
835.511	23726
835.65	23539
835.788	23520
835.926	23307
836.064	23410
836.202	23322
836.34	23440
836.478	23638
836.615	23600
836.753	23448
836.891	23592
837.029	23676
837.167	23570
837.305	23459
837.443	23277
837.58	23356
837.718	23482
837.856	23353
837.993	23246
838.131	23368
838.269	23018
838.406	23254
838.544	23185
838.681	22911
838.819	22949
838.956	22839
839.094	22873
839.231	22892
839.369	22942
839.506	23105
839.643	23254
839.781	22816
839.918	22771
840.055	22801
840.193	22824
840.33	22717
840.467	22672
840.604	22824
840.742	23067
840.879	22561
841.016	22626
841.153	22569
841.29	22809
841.427	22740
841.564	22767
841.701	22748
841.838	22607
841.975	22565
842.112	22702
842.249	22474
842.385	22546
842.522	22717
842.659	22459
842.796	22580
842.933	22538
843.069	22440
843.206	22474
843.343	22455
843.479	22360
843.616	22424
843.752	22185
843.889	22181
844.025	22386
844.162	22280
844.298	22348
844.435	22150
844.571	22166
844.708	22295
844.844	22356
844.98	22352
845.117	22303
845.253	22169
845.389	22154
845.525	22173
845.661	22158
845.798	21823
845.934	21979
846.07	21964
846.206	21937
846.342	22128
846.478	21991
846.614	21781
846.75	21675
846.886	21667
847.022	21819
847.158	21644
847.294	21709
847.429	21766
847.565	21568
847.701	21930
847.837	21462
847.972	21355
848.108	21530
848.244	21485
848.379	21317
848.515	21306
848.65	21260
848.786	21199
848.921	21161
849.057	21515
849.192	21332
849.328	21302
849.463	21294
849.598	21176
849.734	21157
849.869	21154
850.004	21077
850.14	21009
850.275	21142
850.41	20952
850.545	21001
850.68	20960
850.815	21005
850.95	20967
851.085	21085
851.22	21184
851.355	20941
851.49	20994
851.625	20876
851.76	20952
851.895	20800
852.03	20807
852.165	21096
852.299	21017
852.434	21264
852.569	21055
852.703	21024
852.838	21093
852.973	21119
853.107	21233
853.242	20967
853.376	20842
853.511	20670
853.645	20815
853.78	20891
853.914	20895
854.048	20823
854.183	20765
854.317	20804
854.451	21104
854.585	20902
854.72	20739
854.854	20883
854.988	20849
855.122	20906
855.256	20667
855.39	20883
855.524	20921
855.658	20815
855.792	20826
855.926	20868
856.06	20914
856.194	20902
856.327	20891
856.461	20826
856.595	20826
856.729	20731
856.862	20941
856.996	20849
857.13	20921
857.263	20948
857.397	20883
857.53	20849
857.664	20861
857.797	20891
857.931	20883
858.064	20861
858.197	20948
858.331	20785
858.464	20807
858.597	20686
858.731	20872
858.864	20758
858.997	20800
859.13	20868
859.263	20830
859.396	20826
859.529	20891
859.662	20842
859.795	20826
859.928	20754
860.061	20944
860.194	20998
860.327	20826
860.46	20815
860.592	20872
860.725	20906
860.858	20937
860.99	20765
861.123	20651
861.256	20746
861.388	20823
861.521	21355
861.653	20689
861.786	20659
861.918	20682
862.05	20815
862.183	20648
862.315	20785
862.447	20830
862.58	20853
862.712	20564
862.844	20461
862.976	20640
863.108	20678
863.24	21017
863.372	20473
863.504	20469
863.636	20438
863.768	20480
863.9	20492
864.032	20370
864.164	20469
864.296	20560
864.428	20549
864.559	20590
864.691	20560
864.823	20469
864.954	20522
865.086	20511
865.217	20484
865.349	20339
865.48	20469
865.612	20526
865.743	20484
865.875	20393
866.006	20358
866.137	20313
866.269	20503
866.4	20377
866.531	20317
866.662	20385
866.793	20347
866.924	20370
867.055	20374
867.186	20366
867.317	20221
867.448	20240
867.579	20351
867.71	20195
867.841	20301
867.972	20393
868.103	20309
868.233	20339
868.364	20469
868.495	20419
868.625	20602
868.756	20613
868.886	20530
869.017	20511
869.147	20712
869.278	20659
869.408	20712
869.539	20670
869.669	20648
869.799	20640
869.929	20682
870.06	20758
870.19	20952
870.32	20823
870.45	20925
870.58	20857
870.71	20998
870.84	21047
870.97	20975
871.1	20918
871.23	21131
871.36	21089
871.489	21070
871.619	21138
871.749	21226
871.879	21211
872.008	21138
872.138	21237
872.267	20998
872.397	21013
872.526	20979
872.656	21020
872.785	21039
872.915	21100
873.044	21481
873.173	21142
873.303	21211
873.432	21264
873.561	21256
873.69	21207
873.819	21230
873.948	21207
874.077	21142
874.206	21108
874.335	21157
874.464	21306
874.593	21424
874.722	21355
874.851	21447
874.979	21466
875.108	21469
875.237	21302
875.365	21310
875.494	21401
875.623	21405
875.751	21435
875.88	21355
876.008	21629
876.136	21656
876.265	21793
876.393	22025
876.521	21842
876.65	21850
876.778	21842
876.906	21823
877.034	21690
877.162	21835
877.29	21759
877.418	21850
877.546	21827
877.674	21797
877.802	21682
877.93	21823
878.058	21747
878.185	21713
878.313	21686
878.441	21698
878.568	21614
878.696	21701
878.824	21762
878.951	21823
879.079	21972
879.206	22029
879.333	21888
879.461	21842
879.588	21873
879.715	21861
879.842	22044
879.97	21774
880.097	21717
880.224	21504
880.351	21530
880.478	21542
880.605	21564
880.732	21538
880.859	21774
880.986	21542
881.112	21523
881.239	21553
881.366	21408
881.493	21256
881.619	21176
881.746	21169
881.872	21180
881.999	21123
882.125	21142
882.252	21294
882.378	21192
882.505	21336
882.631	21123
882.757	20994
882.883	20944
883.01	21020
883.136	20956
883.262	20857
883.388	20815
883.514	20921
883.64	20902
883.766	20830
883.892	20724
884.018	20765
884.143	20918
884.269	21005
884.395	20648
884.52	20549
884.646	20541
884.772	20480
884.897	20560
885.023	20499
885.148	20636
885.274	20682
885.399	20739
885.524	20526
885.65	20621
885.775	20556
885.9	20693
886.025	20678
886.15	20629
886.275	20564
886.4	20446
886.525	20438
886.65	20533
886.775	20545
886.9	20579
887.025	20758
887.149	20598
887.274	20415
887.399	20385
887.523	20324
887.648	20301
887.773	20301
887.897	20442
888.021	20404
888.146	20298
888.27	20294
888.395	20526
888.519	20332
888.643	20343
888.767	20263
888.891	20320
889.015	20031
889.139	20191
889.263	20218
889.387	20237
889.511	20408
889.635	20343
889.759	20168
889.883	20153
890.006	20119
890.13	20199
890.254	20103
890.377	20008
890.501	19871
890.624	19845
890.748	19951
890.871	19765
890.995	19704
891.118	19674
891.241	19685
891.364	19685
891.488	19769
891.611	19830
891.734	19765
891.857	19803
891.98	19597
892.103	19871
892.226	19704
892.349	19731
892.471	19658
892.594	19628
892.717	19750
892.839	19643
892.962	19742
893.085	19769
893.207	19556
893.33	19472
893.452	19559
893.575	19628
893.697	19635
893.819	19753
893.941	19765
894.064	19837
894.186	19605
894.308	19586
894.43	19738
894.552	19818
894.674	19616
894.796	19571
894.918	19635
895.04	19655
895.161	19708
895.283	19567
895.405	19613
895.526	19639
895.648	19590
895.769	19746
895.891	19712
896.012	19662
896.134	19689
896.255	19693
896.376	19738
896.498	19647
896.619	19715
896.74	19670
896.861	19746
896.982	19925
897.103	20126
897.224	20039
897.345	19822
897.466	19879
897.587	20001
897.708	20016
897.828	19928
897.949	19917
898.07	19655
898.19	19887
898.311	19974
898.431	19742
898.552	19830
898.672	19970
898.792	19871
898.913	19906
899.033	19715
899.153	19689
899.273	19575
899.393	19639
899.513	19624
899.633	19639
899.753	19544
899.873	19582
899.993	19670
900.113	19571
900.232	19563
900.352	19518
900.472	19491
900.591	19377
900.711	19400
900.83	19270
900.95	19487
901.069	19514
901.189	19225
901.308	19118
901.427	18973
901.546	18943
901.665	19061
901.784	18943
901.904	18913
902.023	18791
902.141	18517
902.26	18555
902.379	18593
902.498	18407
902.617	18464
902.735	18566
902.854	18544
902.973	18357
903.091	18152
903.21	18034
903.328	18152
903.446	18140
903.565	17973
903.683	18011
903.801	17893
903.919	17901
904.038	17912
904.156	17741
904.274	17851
904.392	17665
904.51	17779
904.627	17710
904.745	17855
904.863	17790
904.981	17562
905.098	17440
905.216	17334
905.334	17345
905.451	17497
905.569	17482
905.686	17402
905.803	17433
905.921	17288
906.038	17250
906.155	17185
906.272	17098
906.389	17098
906.506	16915
906.623	16953
906.74	17018
906.857	16824
906.974	16843
907.091	16949
907.208	17094
907.324	16972
907.441	16805
907.557	16771
907.674	16713
907.79	16679
907.907	16618
908.023	16664
908.139	16626
908.256	16573
908.372	16478
908.488	16504
908.604	16360
908.72	16443
908.836	16341
908.952	16367
909.068	16337
909.184	16474
909.3	16352
909.415	16421
909.531	16409
909.647	16101
909.762	16188
909.878	16063
909.993	16120
910.108	16097
910.224	16074
910.339	16147
910.454	16017
910.57	15846
910.685	15861
910.8	15926
910.915	15994
911.03	15945
911.145	15739
911.259	15648
911.374	15720
911.489	15694
911.604	15485
911.718	15511
911.833	15370
911.947	15298
912.062	15237
912.176	15283
912.291	15382
912.405	15317
912.519	15625
912.633	15603
912.748	15412
912.862	15416
912.976	15176
913.09	15074
913.204	15154
913.318	15317
913.431	15218
913.545	15241
913.659	15336
913.772	15264
913.886	15066
914	15062
914.113	15138
914.226	15252
914.34	15074
914.453	14891
914.566	15123
914.68	15017
914.793	14921
914.906	14701
915.019	14583
915.132	14674
915.245	14606
915.358	14708
915.47	14716
915.583	14621
915.696	14701
915.809	14834
915.921	14708
916.034	14606
916.146	14594
916.259	14552
916.371	14686
916.483	14621
916.595	14530
916.708	14579
916.82	14514
916.932	14518
917.044	14377
917.156	14434
917.268	14313
917.38	14503
917.491	14370
917.603	14328
917.715	14347
917.826	14404
917.938	14298
918.049	14161
918.161	14351
918.272	14374
918.384	14404
918.495	14336
918.606	14100
918.717	14016
918.828	14199
918.939	14138
919.05	14039
919.161	14027
919.272	13928
919.383	13871
919.494	14115
919.604	14305
919.715	14107
919.826	13974
919.936	13932
920.047	14149
920.157	13993
920.267	14309
920.378	14153
920.488	14065
920.598	14145
920.708	14324
920.818	14206
920.928	14229
921.038	14389
921.148	14294
921.258	14031
921.368	13986
921.477	13830
921.587	13795
921.697	13746
921.806	13833
921.916	13696
922.025	13476
922.134	13491
922.244	13422
922.353	13502
922.462	13251
922.571	13270
922.68	13213
922.789	13114
922.898	13099
923.007	13099
923.116	13099
923.224	13019
923.333	13084
923.442	12973
923.55	12951
923.659	12867
923.767	12966
923.876	12894
923.984	12916
924.092	12764
924.201	12867
924.309	12886
924.417	12875
924.525	12776
924.633	12875
924.741	13537
924.849	12563
924.956	12700
925.064	12582
925.172	12570
925.279	12608
925.387	12521
925.494	12536
925.602	12684
925.709	12593
925.816	12395
925.924	12441
926.031	12555
926.138	12490
926.245	12486
926.352	12384
926.459	12464
926.566	12616
926.673	12456
926.779	12247
926.886	12319
926.993	12243
927.099	12178
927.206	12087
927.312	12095
927.419	12182
927.525	12167
927.631	12194
927.737	11954
927.843	11893
927.95	11863
928.056	11946
928.162	12030
928.267	12026
928.373	12551
928.479	12079
928.585	11794
928.69	11893
928.796	11965
928.901	11863
929.007	11710
929.112	11851
929.218	11752
929.323	11756
929.428	11619
929.533	11805
929.638	11562
929.743	11608
929.848	11672
929.953	11688
930.058	11471
930.163	11356
930.267	11345
930.372	11429
930.477	11311
930.581	11577
930.685	11452
930.79	11261
930.894	11288
930.998	11292
931.103	11433
931.207	10961
931.311	11018
931.415	10885
931.519	10687
931.623	10599
