Data from test_V78500241_3268.txt Node
Date: Fri Mar 25 15:32:36 CST 2022
User: usil
Spectrometer: V785-0024
Trigger mode: 0
Integration Time (sec): 4.000000E-1
Scans to average: 1
Nonlinearity correction enabled: false
Boxcar width: 0
Storing dark spectrum: false
XAxis mode: Wavelengths
Number of Pixels in Spectrum: 1024
>>>>>Begin Spectral Data<<<<<
801.071	27165
801.214	27100
801.356	26902
801.499	26910
801.641	26891
801.783	26758
801.926	26872
802.068	26815
802.211	26746
802.353	26655
802.496	26431
802.638	26473
802.78	26355
802.923	26419
803.065	26343
803.208	26259
803.35	26431
803.492	26606
803.635	26541
803.777	26511
803.919	26697
804.061	26925
804.204	26659
804.346	26549
804.488	26457
804.63	26541
804.773	26568
804.915	26617
805.057	26727
805.199	26629
805.341	26644
805.483	26590
805.626	26731
805.768	26629
805.91	26746
806.052	26712
806.194	26606
806.336	26891
806.478	26739
806.62	26663
806.762	26876
806.904	26910
807.046	27351
807.188	27214
807.33	27119
807.472	27268
807.614	27119
807.756	27058
807.898	26891
808.04	26902
808.182	26842
808.324	27028
808.465	27066
808.607	27112
808.749	27329
808.891	27351
809.033	27656
809.174	27454
809.316	27367
809.458	27332
809.6	27340
809.741	27412
809.883	27469
810.025	27500
810.166	27511
810.308	27542
810.45	27545
810.591	27587
810.733	27447
810.875	27256
811.016	27146
811.158	27264
811.299	27382
811.441	27488
811.582	27462
811.724	27382
811.865	27256
812.007	27264
812.148	27389
812.29	27408
812.431	27557
812.573	27606
812.714	27739
812.855	27812
812.997	27854
813.138	27994
813.279	27972
813.421	27816
813.562	27606
813.703	27652
813.845	27587
813.986	27233
814.127	27100
814.268	27001
814.41	27070
814.551	26887
814.692	26902
814.833	26826
814.974	26830
815.115	27077
815.256	26765
815.397	26785
815.539	26765
815.68	26777
815.821	26674
815.962	26807
816.103	26758
816.244	26594
816.385	26484
816.526	26328
816.666	26305
816.807	26096
816.948	26240
817.089	26237
817.23	26282
817.371	26115
817.512	26199
817.653	26294
817.793	26161
817.934	26271
818.075	26218
818.216	26168
818.356	26157
818.497	26092
818.638	25940
818.778	26012
818.919	26035
819.06	25982
819.2	26187
819.341	26313
819.481	26149
819.622	26275
819.762	26568
819.903	26514
820.043	26305
820.184	26377
820.324	26301
820.465	26530
820.605	26412
820.746	26332
820.886	26183
821.026	26332
821.167	26362
821.307	26355
821.447	26176
821.588	26161
821.728	25993
821.868	25852
822.008	25700
822.149	25666
822.289	25628
822.429	25339
822.569	25365
822.709	25438
822.849	25156
822.99	25141
823.13	25000
823.27	25164
823.41	25019
823.55	24932
823.69	25046
823.83	24985
823.97	24943
824.11	24783
824.25	24753
824.389	24882
824.529	24840
824.669	24825
824.809	24962
824.949	24916
825.089	24981
825.228	24935
825.368	24681
825.508	24741
825.648	24696
825.787	24779
825.927	24867
826.067	24639
826.206	24673
826.346	24779
826.485	24722
826.625	24677
826.765	24791
826.904	24730
827.044	24479
827.183	24566
827.323	24353
827.462	24456
827.601	24414
827.741	24475
827.88	24483
828.02	24251
828.159	24353
828.298	24429
828.437	24426
828.577	24319
828.716	24528
828.855	24315
828.994	24129
829.134	24209
829.273	24083
829.412	24110
829.551	24114
829.69	24167
829.829	24167
829.968	24323
830.107	24136
830.246	24148
830.385	24022
830.524	24110
830.663	23965
830.802	23931
830.941	23866
831.08	23649
831.219	23817
831.357	23775
831.496	23984
831.635	23760
831.774	23665
831.913	23649
832.051	23421
832.19	23459
832.329	23589
832.467	23509
832.606	23421
832.744	23307
832.883	23379
833.022	23471
833.16	23414
833.299	23463
833.437	23535
833.576	23551
833.714	23486
833.852	23596
833.991	23585
834.129	23570
834.267	23547
834.406	23573
834.544	23501
834.682	23497
834.821	23493
834.959	23615
835.097	23490
835.235	23531
835.373	23520
835.511	23638
835.65	23387
835.788	23459
835.926	23170
836.064	23311
836.202	23235
836.34	23391
836.478	23398
836.615	23303
836.753	23349
836.891	23436
837.029	23493
837.167	23239
837.305	23250
837.443	23269
837.58	23124
837.718	23166
837.856	23239
837.993	23109
838.131	23098
838.269	23060
838.406	23041
838.544	23060
838.681	22934
838.819	22877
838.956	22767
839.094	22763
839.231	22733
839.369	22927
839.506	23212
839.643	22946
839.781	22824
839.918	22596
840.055	22584
840.193	22573
840.33	22599
840.467	22588
840.604	22774
840.742	22812
840.879	22588
841.016	22535
841.153	22459
841.29	22759
841.427	22580
841.564	22569
841.701	22668
841.838	22664
841.975	22478
842.112	22500
842.249	22466
842.385	22504
842.522	22702
842.659	22497
842.796	22352
842.933	22363
843.069	22459
843.206	22382
843.343	22284
843.479	22417
843.616	22443
843.752	22139
843.889	22082
844.025	22322
844.162	22219
844.298	22344
844.435	22177
844.571	22211
844.708	22261
844.844	22306
844.98	22204
845.117	22230
845.253	22082
845.389	22032
845.525	22070
845.661	21991
845.798	21888
845.934	21907
846.07	21880
846.206	21918
846.342	22059
846.478	21975
846.614	21580
846.75	21538
846.886	21751
847.022	21797
847.158	21724
847.294	21576
847.429	21637
847.565	21610
847.701	21915
847.837	21313
847.972	21310
848.108	21534
848.244	21435
848.379	21302
848.515	21195
848.65	21180
848.786	21268
848.921	21165
849.057	21378
849.192	21226
849.328	21203
849.463	21291
849.598	21123
849.734	21203
849.869	20998
850.004	20990
850.14	21020
850.275	21005
850.41	20921
850.545	20918
850.68	20921
850.815	20921
850.95	20963
851.085	21233
851.22	21005
851.355	20990
851.49	20994
851.625	20906
851.76	20998
851.895	20941
852.03	21020
852.165	20960
852.299	20986
852.434	21150
852.569	21017
852.703	20975
852.838	20998
852.973	21089
853.107	21127
853.242	20929
853.376	20944
853.511	20659
853.645	20811
853.78	20883
853.914	20819
854.048	20811
854.183	20788
854.317	20876
854.451	21043
854.585	20815
854.72	20910
854.854	20830
854.988	20826
855.122	20921
855.256	20689
855.39	20941
855.524	20880
855.658	20792
855.792	20864
855.926	20895
856.06	20948
856.194	20914
856.327	20792
856.461	20762
856.595	20781
856.729	20686
856.862	20895
856.996	20967
857.13	20868
857.263	20921
857.397	20918
857.53	20792
857.664	20857
857.797	20925
857.931	20826
858.064	20773
858.197	20933
858.331	20876
858.464	20689
858.597	20705
858.731	20788
858.864	20830
858.997	20800
859.13	20891
859.263	20804
859.396	20956
859.529	20697
859.662	20716
859.795	20746
859.928	20853
860.061	20952
860.194	21085
860.327	20880
860.46	20842
860.592	20941
860.725	20994
860.858	20982
860.99	20716
861.123	20674
861.256	20777
861.388	20868
861.521	21359
861.653	20834
861.786	20621
861.918	20602
862.05	20712
862.183	20590
862.315	20792
862.447	20872
862.58	20731
862.712	20575
862.844	20507
862.976	20659
863.108	20613
863.24	20990
863.372	20431
863.504	20503
863.636	20476
863.768	20598
863.9	20545
864.032	20499
864.164	20511
864.296	20537
864.428	20659
864.559	20560
864.691	20659
864.823	20499
864.954	20590
865.086	20640
865.217	20556
865.349	20396
865.48	20385
865.612	20473
865.743	20629
865.875	20419
866.006	20393
866.137	20377
866.269	20431
866.4	20552
866.531	20450
866.662	20256
866.793	20438
866.924	20400
867.055	20469
867.186	20385
867.317	20446
867.448	20240
867.579	20298
867.71	20229
867.841	20317
867.972	20423
868.103	20351
868.233	20400
868.364	20336
868.495	20396
868.625	20609
868.756	20735
868.886	20602
869.017	20530
869.147	20727
869.278	20796
869.408	20663
869.539	20530
869.669	20720
869.799	20674
869.929	20743
870.06	20792
870.19	20872
870.32	20906
870.45	20937
870.58	21055
870.71	21055
870.84	21142
870.97	21024
871.1	21055
871.23	21192
871.36	21264
871.489	21150
871.619	21203
871.749	21192
871.879	21112
872.008	21310
872.138	21256
872.267	21245
872.397	21013
872.526	21013
872.656	21123
872.785	21116
872.915	21363
873.044	21214
873.173	21241
873.303	21397
873.432	21386
873.561	21317
873.69	21256
873.819	21306
873.948	21359
874.077	21150
874.206	21218
874.335	21275
874.464	21302
874.593	21496
874.722	21538
874.851	21572
874.979	21622
875.108	21606
875.237	21500
875.365	21481
875.494	21412
875.623	21542
875.751	21291
875.88	21526
876.008	21553
876.136	21766
876.265	21728
876.393	21991
876.521	22025
876.65	21987
876.778	21880
876.906	21747
877.034	21812
877.162	21831
877.29	21781
877.418	21812
877.546	21823
877.674	21850
877.802	21911
877.93	21991
878.058	21755
878.185	21625
878.313	21789
878.441	21736
878.568	21766
878.696	21751
878.824	22025
878.951	21884
879.079	21991
879.206	22173
879.333	22017
879.461	21915
879.588	21892
879.715	21994
879.842	22029
879.97	21880
880.097	21739
880.224	21690
880.351	21694
880.478	21629
880.605	21633
880.732	21637
880.859	21888
880.986	21679
881.112	21583
881.239	21599
881.366	21435
881.493	21351
881.619	21241
881.746	21294
881.872	21245
881.999	21176
882.125	21302
882.252	21340
882.378	21207
882.505	21420
882.631	21074
882.757	20952
882.883	21017
883.01	20906
883.136	20891
883.262	20906
883.388	20792
883.514	20876
883.64	20971
883.766	20895
883.892	20826
884.018	20781
884.143	20849
884.269	21013
884.395	20670
884.52	20556
884.646	20708
884.772	20526
884.897	20598
885.023	20659
885.148	20670
885.274	20746
885.399	20708
885.524	20545
885.65	20609
885.775	20629
885.9	20564
886.025	20667
886.15	20625
886.275	20476
886.4	20499
886.525	20514
886.65	20495
886.775	20484
886.9	20686
887.025	20686
887.149	20564
887.274	20328
887.399	20320
887.523	20427
887.648	20301
887.773	20328
887.897	20419
888.021	20438
888.146	20271
888.27	20408
888.395	20423
888.519	20381
888.643	20381
888.767	20415
888.891	20324
889.015	20214
889.139	20244
889.263	20339
889.387	20343
889.511	20454
889.635	20294
889.759	20134
889.883	20206
890.006	20172
890.13	20343
890.254	20081
890.377	20153
890.501	19852
890.624	19947
890.748	19986
890.871	19890
890.995	19681
891.118	19772
891.241	19727
891.364	19746
891.488	19890
891.611	19791
891.734	19837
891.857	19795
891.98	19776
892.103	19826
892.226	19826
892.349	19670
892.471	19662
892.594	19742
892.717	19655
892.839	19620
892.962	19704
893.085	19731
893.207	19620
893.33	19594
893.452	19635
893.575	19738
893.697	19563
893.819	19856
893.941	19803
894.064	19814
894.186	19666
894.308	19582
894.43	19845
894.552	19731
894.674	19837
894.796	19563
894.918	19540
895.04	19643
895.161	19772
895.283	19727
895.405	19647
895.526	19601
895.648	19616
895.769	19757
895.891	19655
896.012	19750
896.134	19791
896.255	19643
896.376	19651
896.498	19556
896.619	19746
896.74	19582
896.861	19689
896.982	19989
897.103	20134
897.224	20035
897.345	19883
897.466	19974
897.587	19917
897.708	19963
897.828	19936
897.949	19868
898.07	19822
898.19	19879
898.311	19936
898.431	19906
898.552	19887
898.672	19906
898.792	19921
898.913	19970
899.033	19788
899.153	19753
899.273	19632
899.393	19689
899.513	19685
899.633	19746
899.753	19715
899.873	19571
899.993	19677
900.113	19658
900.232	19601
900.352	19708
900.472	19514
900.591	19384
900.711	19525
900.83	19335
900.95	19514
901.069	19460
901.189	19316
901.308	19145
901.427	18958
901.546	19080
901.665	19034
901.784	18951
901.904	18859
902.023	18871
902.141	18616
902.26	18494
902.379	18658
902.498	18570
902.617	18391
902.735	18547
902.854	18467
902.973	18467
903.091	18205
903.21	18251
903.328	18190
903.446	17984
903.565	17961
903.683	17942
903.801	17893
903.919	18011
904.038	17984
904.156	17878
904.274	17802
904.392	17786
904.51	17596
904.627	17775
904.745	17912
904.863	17832
904.981	17630
905.098	17433
905.216	17512
905.334	17436
905.451	17501
905.569	17482
905.686	17532
905.803	17509
905.921	17273
906.038	17398
906.155	17235
906.272	17170
906.389	17121
906.506	17109
906.623	17037
906.74	17006
906.857	16881
906.974	16866
907.091	17113
907.208	17079
907.324	17014
907.441	16984
907.557	16763
907.674	16767
907.79	16656
907.907	16687
908.023	16752
908.139	16801
908.256	16672
908.372	16618
908.488	16584
908.604	16455
908.72	16493
908.836	16550
908.952	16409
909.068	16459
909.184	16535
909.3	16470
909.415	16455
909.531	16470
909.647	16230
909.762	16284
909.878	16097
909.993	16219
910.108	16128
910.224	16124
910.339	16185
910.454	16006
910.57	15964
910.685	16013
910.8	16109
910.915	16120
911.03	16036
911.145	15899
911.259	15698
911.374	15728
911.489	15679
911.604	15614
911.718	15488
911.833	15481
911.947	15389
912.062	15336
912.176	15595
912.291	15534
912.405	15420
912.519	15793
912.633	15751
912.748	15576
912.862	15485
912.976	15351
913.09	15222
913.204	15294
913.318	15393
913.431	15332
913.545	15367
913.659	15424
913.772	15317
913.886	15138
914	15074
914.113	15207
914.226	15173
914.34	15211
914.453	15077
914.566	15173
914.68	14998
914.793	14982
914.906	14845
915.019	14834
915.132	14705
915.245	14727
915.358	14804
915.47	14819
915.583	14701
915.696	14826
915.809	14883
915.921	14929
916.034	14689
916.146	14727
916.259	14716
916.371	14792
916.483	14613
916.595	14610
916.708	14594
916.82	14552
916.932	14560
917.044	14602
917.156	14511
917.268	14320
917.38	14434
917.491	14282
917.603	14454
917.715	14434
917.826	14530
917.938	14328
918.049	14199
918.161	14415
918.272	14499
918.384	14499
918.495	14442
918.606	14172
918.717	14248
918.828	14263
918.939	14187
919.05	14081
919.161	14191
919.272	14058
919.383	14039
919.494	14278
919.604	14396
919.715	14183
919.826	14168
919.936	14062
920.047	14259
920.157	14240
920.267	14282
920.378	14092
920.488	14172
920.598	14339
920.708	14415
920.818	14286
920.928	14221
921.038	14450
921.148	14423
921.258	14107
921.368	14005
921.477	13917
921.587	13909
921.697	13776
921.806	13864
921.916	13753
922.025	13605
922.134	13662
922.244	13575
922.353	13628
922.462	13480
922.571	13381
922.68	13255
922.789	13156
922.898	13209
923.007	13129
923.116	13141
923.224	13179
923.333	13118
923.442	12970
923.55	13057
923.659	13084
923.767	13050
923.876	13019
923.984	13110
924.092	12897
924.201	13004
924.309	12837
924.417	12985
924.525	12962
924.633	12852
924.741	13818
924.849	12711
924.956	12681
925.064	12700
925.172	12635
925.279	12696
925.387	12688
925.494	12593
925.602	12814
925.709	12684
925.816	12532
925.924	12566
926.031	12631
926.138	12623
926.245	12639
926.352	12464
926.459	12620
926.566	12760
926.673	12601
926.779	12357
926.886	12346
926.993	12311
927.099	12171
927.206	12159
927.312	12163
927.419	12266
927.525	12213
927.631	12178
927.737	12068
927.843	12087
927.95	11950
928.056	12034
928.162	12129
928.267	12049
928.373	12677
928.479	12159
928.585	11863
928.69	12026
928.796	12003
928.901	11920
929.007	11752
929.112	11923
929.218	11897
929.323	11813
929.428	11729
929.533	11863
929.638	11745
929.743	11748
929.848	11817
929.953	11722
930.058	11680
930.163	11455
930.267	11505
930.372	11680
930.477	11474
930.581	11745
930.685	11512
930.79	11322
930.894	11349
930.998	11330
931.103	11512
931.207	11094
931.311	10976
931.415	10976
931.519	10862
931.623	10755
