Data from test_V78500241_2838.txt Node
Date: Fri Mar 25 15:29:37 CST 2022
User: usil
Spectrometer: V785-0024
Trigger mode: 0
Integration Time (sec): 4.000000E-1
Scans to average: 1
Nonlinearity correction enabled: false
Boxcar width: 0
Storing dark spectrum: false
XAxis mode: Wavelengths
Number of Pixels in Spectrum: 1024
>>>>>Begin Spectral Data<<<<<
801.071	27310
801.214	27154
801.356	26956
801.499	27001
801.641	26750
801.783	26750
801.926	26826
802.068	26842
802.211	26750
802.353	26720
802.496	26579
802.638	26518
802.78	26438
802.923	26347
803.065	26278
803.208	26351
803.35	26453
803.492	26625
803.635	26659
803.777	26537
803.919	26545
804.061	27001
804.204	26651
804.346	26636
804.488	26480
804.63	26625
804.773	26434
804.915	26625
805.057	26720
805.199	26556
805.341	26792
805.483	26697
805.626	26815
805.768	26609
805.91	26674
806.052	26769
806.194	26579
806.336	26792
806.478	26697
806.62	26689
806.762	26914
806.904	27074
807.046	27211
807.188	27142
807.33	27150
807.472	27180
807.614	27001
807.756	27119
807.898	27005
808.04	26982
808.182	26994
808.324	26967
808.465	27211
808.607	27161
808.749	27195
808.891	27496
809.033	27686
809.174	27279
809.316	27222
809.458	27249
809.6	27211
809.741	27317
809.883	27466
810.025	27606
810.166	27641
810.308	27679
810.45	27629
810.591	27488
810.733	27237
810.875	27272
811.016	27165
811.158	27306
811.299	27557
811.441	27591
811.582	27431
811.724	27344
811.865	27264
812.007	27192
812.148	27199
812.29	27378
812.431	27553
812.573	27572
812.714	27614
812.855	27827
812.997	27895
813.138	28181
813.279	27983
813.421	27724
813.562	27743
813.703	27610
813.845	27427
813.986	27165
814.127	27176
814.268	27005
814.41	27032
814.551	27024
814.692	27062
814.833	26925
814.974	26963
815.115	27123
815.256	27039
815.397	26785
815.539	26781
815.68	26804
815.821	26594
815.962	26792
816.103	26746
816.244	26609
816.385	26583
816.526	26457
816.666	26476
816.807	26275
816.948	26271
817.089	26476
817.23	26271
817.371	26294
817.512	26339
817.653	26084
817.793	26134
817.934	26324
818.075	26161
818.216	26339
818.356	26134
818.497	26210
818.638	26092
818.778	26065
818.919	25917
819.06	26043
819.2	26145
819.341	26278
819.481	26214
819.622	26320
819.762	26564
819.903	26537
820.043	26396
820.184	26355
820.324	26267
820.465	26415
820.605	26248
820.746	26225
820.886	26240
821.026	26244
821.167	26294
821.307	26355
821.447	26183
821.588	26100
821.728	25997
821.868	25860
822.008	25807
822.149	25681
822.289	25624
822.429	25415
822.569	25335
822.709	25491
822.849	25228
822.99	25194
823.13	25206
823.27	25168
823.41	25080
823.55	24928
823.69	24920
823.83	25053
823.97	24939
824.11	24779
824.25	24753
824.389	24787
824.529	24947
824.669	24833
824.809	24856
824.949	24981
825.089	24882
825.228	24894
825.368	24677
825.508	24654
825.648	24688
825.787	24673
825.927	24810
826.067	24608
826.206	24601
826.346	24817
826.485	24798
826.625	24840
826.765	24882
826.904	24745
827.044	24540
827.183	24422
827.323	24365
827.462	24479
827.601	24551
827.741	24380
827.88	24426
828.02	24319
828.159	24262
828.298	24357
828.437	24479
828.577	24194
828.716	24437
828.855	24258
828.994	24060
829.134	24155
829.273	24224
829.412	24076
829.551	23984
829.69	24228
829.829	24178
829.968	24136
830.107	24136
830.246	24117
830.385	24106
830.524	24045
830.663	23912
830.802	23756
830.941	23638
831.08	23627
831.219	23817
831.357	23824
831.496	23843
831.635	23653
831.774	23687
831.913	23535
832.051	23589
832.19	23455
832.329	23455
832.467	23376
832.606	23128
832.744	23265
832.883	23356
833.022	23288
833.16	23174
833.299	23360
833.437	23360
833.576	23360
833.714	23471
833.852	23417
833.991	23528
834.129	23547
834.267	23452
834.406	23474
834.544	23474
834.682	23429
834.821	23353
834.959	23543
835.097	23360
835.235	23436
835.373	23512
835.511	23383
835.65	23360
835.788	23235
835.926	23098
836.064	23155
836.202	23140
836.34	23360
836.478	23311
836.615	23189
836.753	23269
836.891	23398
837.029	23334
837.167	23273
837.305	23216
837.443	23056
837.58	23193
837.718	23025
837.856	23151
837.993	23041
838.131	23117
838.269	22930
838.406	23029
838.544	22908
838.681	22729
838.819	22721
838.956	22592
839.094	22538
839.231	22706
839.369	22721
839.506	23041
839.643	22801
839.781	22630
839.918	22500
840.055	22607
840.193	22466
840.33	22569
840.467	22622
840.604	22641
840.742	22824
840.879	22443
841.016	22512
841.153	22474
841.29	22573
841.427	22436
841.564	22485
841.701	22580
841.838	22470
841.975	22459
842.112	22379
842.249	22382
842.385	22428
842.522	22592
842.659	22417
842.796	22284
842.933	22276
843.069	22166
843.206	22230
843.343	22261
843.479	22325
843.616	22402
843.752	22029
843.889	22112
844.025	22204
844.162	22063
844.298	22188
844.435	21956
844.571	21960
844.708	22116
844.844	22192
844.98	22207
845.117	22185
845.253	22074
845.389	21911
845.525	22017
845.661	21838
845.798	21739
845.934	21724
846.07	21751
846.206	21895
846.342	21766
846.478	21800
846.614	21496
846.75	21523
846.886	21435
847.022	21675
847.158	21576
847.294	21511
847.429	21526
847.565	21515
847.701	21842
847.837	21287
847.972	21260
848.108	21275
848.244	21378
848.379	21104
848.515	21020
848.65	21089
848.786	21077
848.921	21119
849.057	21207
849.192	21127
849.328	21207
849.463	21161
849.598	21093
849.734	20975
849.869	20967
850.004	20925
850.14	20823
850.275	20967
850.41	20887
850.545	20788
850.68	20830
850.815	20883
850.95	20868
851.085	21020
851.22	20979
851.355	20899
851.49	20849
851.625	20921
851.76	20921
851.895	20781
852.03	20842
852.165	20982
852.299	20910
852.434	20975
852.569	20895
852.703	20796
852.838	20986
852.973	20941
853.107	21009
853.242	20720
853.376	20769
853.511	20686
853.645	20640
853.78	20811
853.914	20754
854.048	20640
854.183	20678
854.317	20724
854.451	20994
854.585	20625
854.72	20697
854.854	20963
854.988	20678
855.122	20731
855.256	20602
855.39	20678
855.524	20765
855.658	20743
855.792	20769
855.926	20746
856.06	20758
856.194	20716
856.327	20632
856.461	20583
856.595	20655
856.729	20769
856.862	20712
856.996	20746
857.13	20792
857.263	20781
857.397	20925
857.53	20712
857.664	20910
857.797	20823
857.931	20735
858.064	20781
858.197	20864
858.331	20663
858.464	20640
858.597	20552
858.731	20689
858.864	20667
858.997	20556
859.13	20678
859.263	20773
859.396	20823
859.529	20594
859.662	20625
859.795	20682
859.928	20644
860.061	20842
860.194	20853
860.327	20743
860.46	20731
860.592	20838
860.725	20944
860.858	20792
860.99	20644
861.123	20724
861.256	20541
861.388	20629
861.521	21378
861.653	20571
861.786	20549
861.918	20575
862.05	20564
862.183	20560
862.315	20632
862.447	20705
862.58	20594
862.712	20423
862.844	20446
862.976	20469
863.108	20469
863.24	20883
863.372	20328
863.504	20484
863.636	20309
863.768	20434
863.9	20473
864.032	20362
864.164	20374
864.296	20419
864.428	20457
864.559	20393
864.691	20495
864.823	20336
864.954	20370
865.086	20396
865.217	20301
865.349	20259
865.48	20370
865.612	20370
865.743	20522
865.875	20461
866.006	20286
866.137	20313
866.269	20218
866.4	20412
866.531	20187
866.662	20210
866.793	20202
866.924	20339
867.055	20362
867.186	20351
867.317	20199
867.448	20176
867.579	20233
867.71	20122
867.841	20168
867.972	20248
868.103	20240
868.233	20259
868.364	20259
868.495	20400
868.625	20503
868.756	20609
868.886	20385
869.017	20499
869.147	20606
869.278	20781
869.408	20594
869.539	20484
869.669	20640
869.799	20579
869.929	20663
870.06	20663
870.19	20838
870.32	20853
870.45	20883
870.58	20906
870.71	20986
870.84	20918
870.97	20887
871.1	20823
871.23	21036
871.36	21085
871.489	20994
871.619	20990
871.749	21135
871.879	21093
872.008	21093
872.138	21146
872.267	21142
872.397	20998
872.526	20929
872.656	20941
872.785	20811
872.915	21077
873.044	21176
873.173	21119
873.303	21184
873.432	21222
873.561	21230
873.69	21108
873.819	21211
873.948	21100
874.077	21157
874.206	20986
874.335	21252
874.464	21222
874.593	21279
874.722	21294
874.851	21367
874.979	21264
875.108	21511
875.237	21291
875.365	21302
875.494	21298
875.623	21401
875.751	21298
875.88	21397
876.008	21534
876.136	21583
876.265	21899
876.393	21880
876.521	21922
876.65	21892
876.778	21808
876.906	21694
877.034	21633
877.162	21720
877.29	21675
877.418	21724
877.546	21713
877.674	21736
877.802	21625
877.93	21606
878.058	21595
878.185	21663
878.313	21629
878.441	21770
878.568	21572
878.696	21724
878.824	21766
878.951	21808
879.079	21987
879.206	21918
879.333	21827
879.461	21797
879.588	21804
879.715	21838
879.842	21941
879.97	21701
880.097	21553
880.224	21542
880.351	21622
880.478	21622
880.605	21469
880.732	21507
880.859	21797
880.986	21583
881.112	21671
881.239	21348
881.366	21317
881.493	21279
881.619	21233
881.746	21199
881.872	21203
881.999	21112
882.125	20998
882.252	21119
882.378	21237
882.505	21161
882.631	20880
882.757	20872
882.883	20823
883.01	20857
883.136	20853
883.262	20659
883.388	20598
883.514	20750
883.64	20758
883.766	20796
883.892	20568
884.018	20530
884.143	20735
884.269	20857
884.395	20590
884.52	20404
884.646	20476
884.772	20339
884.897	20400
885.023	20461
885.148	20503
885.274	20590
885.399	20568
885.524	20374
885.65	20469
885.775	20621
885.9	20469
886.025	20594
886.15	20549
886.275	20305
886.4	20374
886.525	20362
886.65	20366
886.775	20389
886.9	20480
887.025	20678
887.149	20442
887.274	20328
887.399	20225
887.523	20221
887.648	20282
887.773	20130
887.897	20328
888.021	20332
888.146	20122
888.27	20301
888.395	20389
888.519	20221
888.643	20259
888.767	20332
888.891	20199
889.015	20168
889.139	20107
889.263	19925
889.387	20161
889.511	20336
889.635	20172
889.759	19921
889.883	20035
890.006	20092
890.13	20161
890.254	19951
890.377	19887
890.501	19822
890.624	19772
890.748	19837
890.871	19655
890.995	19590
891.118	19460
891.241	19696
891.364	19590
891.488	19753
891.611	19639
891.734	19613
891.857	19712
891.98	19628
892.103	19575
892.226	19700
892.349	19483
892.471	19377
892.594	19544
892.717	19552
892.839	19575
892.962	19563
893.085	19628
893.207	19571
893.33	19487
893.452	19392
893.575	19635
893.697	19544
893.819	19689
893.941	19811
894.064	19605
894.186	19457
894.308	19594
894.43	19628
894.552	19639
894.674	19628
894.796	19449
894.918	19567
895.04	19521
895.161	19601
895.283	19441
895.405	19445
895.526	19681
895.648	19567
895.769	19453
895.891	19655
896.012	19601
896.134	19578
896.255	19510
896.376	19537
896.498	19582
896.619	19495
896.74	19594
896.861	19658
896.982	19852
897.103	20164
897.224	19803
897.345	19769
897.466	19772
897.587	19791
897.708	19852
897.828	19894
897.949	19826
898.07	19677
898.19	19662
898.311	19830
898.431	19761
898.552	19807
898.672	19811
898.792	19849
898.913	19685
899.033	19700
899.153	19597
899.273	19605
899.393	19578
899.513	19609
899.633	19670
899.753	19582
899.873	19578
899.993	19586
900.113	19525
900.232	19559
900.352	19518
900.472	19483
900.591	19327
900.711	19502
900.83	19388
900.95	19377
901.069	19449
901.189	19194
901.308	18958
901.427	18954
901.546	18939
901.665	18916
901.784	18939
901.904	18856
902.023	18711
902.141	18570
902.26	18456
902.379	18570
902.498	18323
902.617	18391
902.735	18506
902.854	18445
902.973	18330
903.091	18064
903.21	18117
903.328	18102
903.446	17977
903.565	17927
903.683	17889
903.801	17882
903.919	17790
904.038	17885
904.156	17710
904.274	17722
904.392	17707
904.51	17596
904.627	17668
904.745	17847
904.863	17756
904.981	17570
905.098	17414
905.216	17353
905.334	17322
905.451	17490
905.569	17292
905.686	17299
905.803	17398
905.921	17140
906.038	17197
906.155	17098
906.272	17113
906.389	17010
906.506	16885
906.623	16866
906.74	16965
906.857	16801
906.974	16782
907.091	16991
907.208	16919
907.324	16995
907.441	16854
907.557	16702
907.674	16698
907.79	16538
907.907	16508
908.023	16637
908.139	16687
908.256	16538
908.372	16531
908.488	16500
908.604	16474
908.72	16295
908.836	16371
908.952	16398
909.068	16402
909.184	16348
909.3	16352
909.415	16413
909.531	16443
909.647	16139
909.762	16093
909.878	16071
909.993	16059
910.108	16090
910.224	16013
910.339	16036
910.454	15972
910.57	15926
910.685	15793
910.8	16097
910.915	16032
911.03	15842
911.145	15785
911.259	15671
911.374	15694
911.489	15629
911.604	15534
911.718	15450
911.833	15462
911.947	15359
912.062	15291
912.176	15401
912.291	15515
912.405	15370
912.519	15709
912.633	15603
912.748	15576
912.862	15374
912.976	15401
913.09	15127
913.204	15252
913.318	15325
913.431	15332
913.545	15348
913.659	15420
913.772	15188
913.886	15097
914	14925
914.113	15135
914.226	15203
914.34	15051
914.453	15028
914.566	15024
914.68	14849
914.793	14842
914.906	14705
915.019	14682
915.132	14625
915.245	14667
915.358	14701
915.47	14758
915.583	14648
915.696	14659
915.809	14823
915.921	14868
916.034	14644
916.146	14564
916.259	14457
916.371	14716
916.483	14583
916.595	14514
916.708	14545
916.82	14484
916.932	14499
917.044	14492
917.156	14446
917.268	14328
917.38	14336
917.491	14313
917.603	14271
917.715	14381
917.826	14473
917.938	14294
918.049	14183
918.161	14301
918.272	14339
918.384	14271
918.495	14259
918.606	14123
918.717	14054
918.828	14115
918.939	14123
919.05	13974
919.161	14100
919.272	13906
919.383	14016
919.494	14123
919.604	14301
919.715	14115
919.826	14035
919.936	14024
920.047	14206
920.157	14119
920.267	14294
920.378	14088
920.488	14043
920.598	14214
920.708	14400
920.818	14237
920.928	14206
921.038	14343
921.148	14237
921.258	14088
921.368	14020
921.477	13776
921.587	13746
921.697	13765
921.806	13791
921.916	13628
922.025	13586
922.134	13453
922.244	13438
922.353	13537
922.462	13415
922.571	13419
922.68	13145
922.789	13149
922.898	13038
923.007	13168
923.116	13225
923.224	13038
923.333	13072
923.442	13012
923.55	12993
923.659	13000
923.767	13160
923.876	12821
923.984	12996
924.092	12791
924.201	12875
924.309	12909
924.417	12878
924.525	12829
924.633	12798
924.741	13761
924.849	12593
924.956	12711
925.064	12642
925.172	12566
925.279	12536
925.387	12612
925.494	12540
925.602	12639
925.709	12646
925.816	12422
925.924	12418
926.031	12494
926.138	12532
926.245	12551
926.352	12540
926.459	12532
926.566	12578
926.673	12418
926.779	12334
926.886	12334
926.993	12239
927.099	12254
927.206	12064
927.312	12224
927.419	12205
927.525	12129
927.631	12106
927.737	12133
927.843	12007
927.95	11828
928.056	11961
928.162	11977
928.267	12015
928.373	12589
928.479	12015
928.585	11809
928.69	11912
928.796	12007
928.901	11836
929.007	11737
929.112	11843
929.218	11783
929.323	11745
929.428	11634
929.533	11851
929.638	11699
929.743	11676
929.848	11600
929.953	11600
930.058	11493
930.163	11383
930.267	11414
930.372	11543
930.477	11364
930.581	11638
930.685	11467
930.79	11235
930.894	11322
930.998	11258
931.103	11452
931.207	11098
931.311	10942
931.415	10995
931.519	10736
931.623	10675
