Data from test_V78500241_3332.txt Node
Date: Fri Mar 25 15:33:03 CST 2022
User: usil
Spectrometer: V785-0024
Trigger mode: 0
Integration Time (sec): 4.000000E-1
Scans to average: 1
Nonlinearity correction enabled: false
Boxcar width: 0
Storing dark spectrum: false
XAxis mode: Wavelengths
Number of Pixels in Spectrum: 1024
>>>>>Begin Spectral Data<<<<<
801.071	27351
801.214	27161
801.356	26956
801.499	27005
801.641	26906
801.783	26876
801.926	26937
802.068	26758
802.211	26826
802.353	26697
802.496	26640
802.638	26560
802.78	26476
802.923	26457
803.065	26328
803.208	26412
803.35	26526
803.492	26469
803.635	26640
803.777	26514
803.919	26651
804.061	26872
804.204	26708
804.346	26537
804.488	26370
804.63	26571
804.773	26377
804.915	26613
805.057	26712
805.199	26594
805.341	26644
805.483	26693
805.626	26720
805.768	26636
805.91	26743
806.052	26735
806.194	26583
806.336	26921
806.478	26868
806.62	26716
806.762	26804
806.904	26933
807.046	27329
807.188	27230
807.33	27119
807.472	27268
807.614	27070
807.756	27146
807.898	26918
808.04	26872
808.182	26921
808.324	26815
808.465	26967
808.607	27184
808.749	27302
808.891	27427
809.033	27564
809.174	27405
809.316	27336
809.458	27336
809.6	27313
809.741	27313
809.883	27462
810.025	27660
810.166	27561
810.308	27622
810.45	27523
810.591	27492
810.733	27382
810.875	27203
811.016	27329
811.158	27214
811.299	27515
811.441	27405
811.582	27435
811.724	27287
811.865	27218
812.007	27283
812.148	27427
812.29	27283
812.431	27439
812.573	27587
812.714	27679
812.855	27888
812.997	27968
813.138	27911
813.279	27968
813.421	27705
813.562	27766
813.703	27447
813.845	27557
813.986	27146
814.127	27230
814.268	26956
814.41	26940
814.551	26857
814.692	26960
814.833	26868
814.974	27051
815.115	26933
815.256	26788
815.397	26895
815.539	26788
815.68	26731
815.821	26686
815.962	26788
816.103	26625
816.244	26636
816.385	26560
816.526	26423
816.666	26275
816.807	26282
816.948	26252
817.089	26351
817.23	26263
817.371	26176
817.512	26111
817.653	26237
817.793	26149
817.934	26263
818.075	26202
818.216	26218
818.356	26214
818.497	26062
818.638	25997
818.778	25871
818.919	26088
819.06	25879
819.2	26084
819.341	26317
819.481	26286
819.622	26298
819.762	26488
819.903	26583
820.043	26355
820.184	26225
820.324	26374
820.465	26385
820.605	26267
820.746	26278
820.886	26164
821.026	26332
821.167	26256
821.307	26278
821.447	26191
821.588	26107
821.728	26001
821.868	25917
822.008	25757
822.149	25753
822.289	25613
822.429	25495
822.569	25422
822.709	25525
822.849	25198
822.99	25308
823.13	25072
823.27	25236
823.41	24992
823.55	24886
823.69	25046
823.83	25053
823.97	24913
824.11	24840
824.25	24776
824.389	24776
824.529	24954
824.669	24738
824.809	24928
824.949	24837
825.089	24943
825.228	24966
825.368	24521
825.508	24623
825.648	24719
825.787	24741
825.927	24882
826.067	24627
826.206	24669
826.346	24757
826.485	24719
826.625	24753
826.765	24749
826.904	24753
827.044	24559
827.183	24593
827.323	24460
827.462	24467
827.601	24395
827.741	24410
827.88	24502
828.02	24262
828.159	24399
828.298	24467
828.437	24448
828.577	24426
828.716	24380
828.855	24304
828.994	24148
829.134	24136
829.273	24262
829.412	24209
829.551	24026
829.69	24117
829.829	24129
829.968	24228
830.107	24224
830.246	24167
830.385	24053
830.524	24201
830.663	23939
830.802	23836
830.941	23813
831.08	23741
831.219	23874
831.357	23767
831.496	23935
831.635	23824
831.774	23661
831.913	23687
832.051	23691
832.19	23497
832.329	23501
832.467	23307
832.606	23376
832.744	23368
832.883	23364
833.022	23337
833.16	23345
833.299	23562
833.437	23433
833.576	23509
833.714	23619
833.852	23490
833.991	23600
834.129	23573
834.267	23482
834.406	23551
834.544	23452
834.682	23592
834.821	23543
834.959	23691
835.097	23497
835.235	23524
835.373	23562
835.511	23417
835.65	23288
835.788	23395
835.926	23349
836.064	23292
836.202	23181
836.34	23318
836.478	23524
836.615	23273
836.753	23368
836.891	23383
837.029	23467
837.167	23368
837.305	23356
837.443	23254
837.58	23181
837.718	23280
837.856	23212
837.993	23231
838.131	23197
838.269	23025
838.406	23147
838.544	23079
838.681	22908
838.819	22854
838.956	22782
839.094	22672
839.231	22721
839.369	22839
839.506	23121
839.643	22930
839.781	22683
839.918	22538
840.055	22615
840.193	22618
840.33	22603
840.467	22584
840.604	22683
840.742	22881
840.879	22470
841.016	22531
841.153	22432
841.29	22793
841.427	22664
841.564	22580
841.701	22637
841.838	22599
841.975	22508
842.112	22603
842.249	22535
842.385	22390
842.522	22588
842.659	22436
842.796	22268
842.933	22356
843.069	22257
843.206	22363
843.343	22440
843.479	22478
843.616	22363
843.752	22188
843.889	22226
844.025	22405
844.162	22207
844.298	22276
844.435	22070
844.571	22226
844.708	22128
844.844	22363
844.98	22325
845.117	22185
845.253	22017
845.389	22032
845.525	21983
845.661	21960
845.798	21949
845.934	22029
846.07	21907
846.206	21964
846.342	21937
846.478	21869
846.614	21762
846.75	21515
846.886	21538
847.022	21675
847.158	21637
847.294	21728
847.429	21576
847.565	21633
847.701	21846
847.837	21454
847.972	21283
848.108	21519
848.244	21447
848.379	21329
848.515	21340
848.65	21230
848.786	21211
848.921	21230
849.057	21336
849.192	21294
849.328	21268
849.463	21195
849.598	21089
849.734	21127
849.869	21104
850.004	21070
850.14	21089
850.275	21009
850.41	20796
850.545	21005
850.68	20861
850.815	21024
850.95	20941
851.085	21154
851.22	21051
851.355	21055
851.49	21051
851.625	20971
851.76	21020
851.895	20979
852.03	20910
852.165	20975
852.299	20941
852.434	21089
852.569	20979
852.703	21051
852.838	21047
852.973	21096
853.107	21173
853.242	20929
853.376	20769
853.511	20705
853.645	20785
853.78	21032
853.914	20750
854.048	20629
854.183	20811
854.317	20853
854.451	20990
854.585	20826
854.72	20815
854.854	20921
854.988	20727
855.122	20849
855.256	20636
855.39	20880
855.524	20811
855.658	20792
855.792	20845
855.926	20902
856.06	20777
856.194	20785
856.327	20712
856.461	20750
856.595	20811
856.729	20868
856.862	20899
856.996	20830
857.13	20796
857.263	20887
857.397	20864
857.53	20750
857.664	20826
857.797	20944
857.931	20777
858.064	20914
858.197	20979
858.331	20845
858.464	20697
858.597	20750
858.731	20807
858.864	20807
858.997	20765
859.13	20735
859.263	20762
859.396	20918
859.529	20845
859.662	20811
859.795	20746
859.928	20777
860.061	21062
860.194	20979
860.327	20906
860.46	20746
860.592	20941
860.725	21047
860.858	20891
860.99	20716
861.123	20750
861.256	20648
861.388	20899
861.521	21435
861.653	20716
861.786	20682
861.918	20765
862.05	20735
862.183	20807
862.315	20823
862.447	20727
862.58	20678
862.712	20579
862.844	20545
862.976	20507
863.108	20552
863.24	20967
863.372	20385
863.504	20526
863.636	20571
863.768	20613
863.9	20533
864.032	20526
864.164	20419
864.296	20507
864.428	20651
864.559	20644
864.691	20743
864.823	20579
864.954	20621
865.086	20629
865.217	20476
865.349	20298
865.48	20381
865.612	20457
865.743	20625
865.875	20419
866.006	20385
866.137	20370
866.269	20446
866.4	20415
866.531	20263
866.662	20377
866.793	20244
866.924	20355
867.055	20427
867.186	20423
867.317	20358
867.448	20183
867.579	20389
867.71	20347
867.841	20332
867.972	20336
868.103	20339
868.233	20313
868.364	20473
868.495	20355
868.625	20594
868.756	20712
868.886	20564
869.017	20712
869.147	20674
869.278	20712
869.408	20625
869.539	20705
869.669	20758
869.799	20697
869.929	20678
870.06	20636
870.19	20887
870.32	20956
870.45	20982
870.58	20975
870.71	21089
870.84	21184
870.97	20929
871.1	21039
871.23	21275
871.36	21188
871.489	21089
871.619	21100
871.749	21173
871.879	21252
872.008	21382
872.138	21218
872.267	21233
872.397	21077
872.526	21093
872.656	21135
872.785	21089
872.915	21363
873.044	21344
873.173	21230
873.303	21348
873.432	21351
873.561	21325
873.69	21237
873.819	21142
873.948	21283
874.077	21233
874.206	21214
874.335	21237
874.464	21367
874.593	21473
874.722	21428
874.851	21466
874.979	21534
875.108	21515
875.237	21500
875.365	21298
875.494	21469
875.623	21606
875.751	21458
875.88	21576
876.008	21564
876.136	21629
876.265	21945
876.393	22040
876.521	21975
876.65	22002
876.778	21865
876.906	21888
877.034	21842
877.162	21892
877.29	21785
877.418	21793
877.546	22013
877.674	21953
877.802	21842
877.93	21819
878.058	21857
878.185	21835
878.313	21766
878.441	21732
878.568	21667
878.696	21812
878.824	21873
878.951	21819
879.079	21972
879.206	22139
879.333	21918
879.461	21873
879.588	21926
879.715	22090
879.842	22059
879.97	21861
880.097	21694
880.224	21709
880.351	21682
880.478	21694
880.605	21633
880.732	21713
880.859	21755
880.986	21690
881.112	21580
881.239	21511
881.366	21454
881.493	21332
881.619	21214
881.746	21249
881.872	21188
881.999	21207
882.125	21291
882.252	21287
882.378	21260
882.505	21329
882.631	21199
882.757	20925
882.883	20975
883.01	20948
883.136	20971
883.262	20849
883.388	20838
883.514	21081
883.64	20876
883.766	20781
883.892	20800
884.018	20796
884.143	20845
884.269	21028
884.395	20769
884.52	20602
884.646	20541
884.772	20609
884.897	20492
885.023	20579
885.148	20651
885.274	20754
885.399	20693
885.524	20686
885.65	20594
885.775	20670
885.9	20686
886.025	20682
886.15	20674
886.275	20621
886.4	20457
886.525	20545
886.65	20530
886.775	20549
886.9	20743
887.025	20731
887.149	20571
887.274	20492
887.399	20358
887.523	20355
887.648	20374
887.773	20431
887.897	20545
888.021	20385
888.146	20393
888.27	20495
888.395	20393
888.519	20389
888.643	20446
888.767	20408
888.891	20309
889.015	20218
889.139	20214
889.263	20180
889.387	20332
889.511	20476
889.635	20301
889.759	20145
889.883	20180
890.006	20244
890.13	20294
890.254	20161
890.377	20164
890.501	20130
890.624	19944
890.748	20016
890.871	19807
890.995	19727
891.118	19818
891.241	19784
891.364	19788
891.488	19868
891.611	19830
891.734	19811
891.857	19830
891.98	19818
892.103	19845
892.226	19795
892.349	19757
892.471	19597
892.594	19689
892.717	19746
892.839	19734
892.962	19757
893.085	19734
893.207	19674
893.33	19670
893.452	19639
893.575	19632
893.697	19715
893.819	19772
893.941	19883
894.064	19883
894.186	19666
894.308	19677
894.43	19791
894.552	19883
894.674	19765
894.796	19590
894.918	19613
895.04	19685
895.161	19868
895.283	19651
895.405	19605
895.526	19753
895.648	19750
895.769	19746
895.891	19693
896.012	19822
896.134	19807
896.255	19719
896.376	19594
896.498	19620
896.619	19727
896.74	19601
896.861	19731
896.982	19944
897.103	20176
897.224	20073
897.345	19788
897.466	19879
897.587	19955
897.708	20062
897.828	20058
897.949	19925
898.07	19727
898.19	19776
898.311	19970
898.431	19959
898.552	19849
898.672	20027
898.792	20008
898.913	19993
899.033	19860
899.153	19750
899.273	19624
899.393	19704
899.513	19681
899.633	19655
899.753	19605
899.873	19712
899.993	19677
900.113	19639
900.232	19662
900.352	19537
900.472	19601
900.591	19411
900.711	19540
900.83	19369
900.95	19495
901.069	19590
901.189	19339
901.308	19114
901.427	18928
901.546	19031
901.665	19061
901.784	19133
901.904	18954
902.023	18894
902.141	18620
902.26	18582
902.379	18578
902.498	18551
902.617	18532
902.735	18642
902.854	18509
902.973	18441
903.091	18243
903.21	18174
903.328	18308
903.446	18205
903.565	18049
903.683	18079
903.801	17923
903.919	17965
904.038	17893
904.156	17843
904.274	17889
904.392	17866
904.51	17752
904.627	17794
904.745	17889
904.863	17859
904.981	17627
905.098	17474
905.216	17512
905.334	17554
905.451	17486
905.569	17455
905.686	17512
905.803	17532
905.921	17254
906.038	17395
906.155	17334
906.272	17265
906.389	17250
906.506	17010
906.623	17045
906.74	17052
906.857	16904
906.974	17010
907.091	17102
907.208	17143
907.324	17060
907.441	16938
907.557	16858
907.674	16740
907.79	16721
907.907	16691
908.023	16793
908.139	16771
908.256	16664
908.372	16630
908.488	16649
908.604	16622
908.72	16459
908.836	16424
908.952	16436
909.068	16512
909.184	16645
909.3	16538
909.415	16474
909.531	16485
909.647	16207
909.762	16276
909.878	16150
909.993	16230
910.108	16109
910.224	16131
910.339	16086
910.454	15975
910.57	16040
910.685	16071
910.8	16223
910.915	16162
911.03	16032
911.145	15759
911.259	15804
911.374	15812
911.489	15751
911.604	15751
911.718	15496
911.833	15576
911.947	15435
912.062	15439
912.176	15610
912.291	15595
912.405	15553
912.519	15728
912.633	15732
912.748	15561
912.862	15561
912.976	15431
913.09	15211
913.204	15279
913.318	15351
913.431	15386
913.545	15348
913.659	15382
913.772	15294
913.886	15203
914	15188
914.113	15222
914.226	15329
914.34	15222
914.453	15074
914.566	15146
914.68	15017
914.793	15097
914.906	14842
915.019	14762
915.132	14712
915.245	14781
915.358	14746
915.47	14731
915.583	14720
915.696	14819
915.809	14887
915.921	14872
916.034	14659
916.146	14678
916.259	14720
916.371	14769
916.483	14697
916.595	14674
916.708	14640
916.82	14560
916.932	14602
917.044	14514
917.156	14522
917.268	14427
917.38	14484
917.491	14461
917.603	14492
917.715	14488
917.826	14556
917.938	14442
918.049	14324
918.161	14393
918.272	14518
918.384	14522
918.495	14518
918.606	14294
918.717	14195
918.828	14248
918.939	14286
919.05	14065
919.161	14138
919.272	14096
919.383	14077
919.494	14191
919.604	14355
919.715	14218
919.826	14115
919.936	14161
920.047	14240
920.157	14237
920.267	14358
920.378	14240
920.488	14195
920.598	14389
920.708	14545
920.818	14298
920.928	14263
921.038	14434
921.148	14469
921.258	14187
921.368	14043
921.477	13974
921.587	13989
921.697	13780
921.806	13936
921.916	13769
922.025	13708
922.134	13723
922.244	13544
922.353	13616
922.462	13400
922.571	13460
922.68	13278
922.789	13263
922.898	13217
923.007	13289
923.116	13202
923.224	13149
923.333	13251
923.442	13137
923.55	13031
923.659	13065
923.767	13118
923.876	12947
923.984	13053
924.092	12871
924.201	12989
924.309	13042
924.417	13008
924.525	12935
924.633	12977
924.741	13875
924.849	12779
924.956	12901
925.064	12639
925.172	12711
925.279	12642
925.387	12665
925.494	12662
925.602	12802
925.709	12646
925.816	12551
925.924	12532
926.031	12734
926.138	12642
926.245	12601
926.352	12574
926.459	12757
926.566	12642
926.673	12532
926.779	12475
926.886	12471
926.993	12262
927.099	12273
927.206	12254
927.312	12216
927.419	12254
927.525	12239
927.631	12258
927.737	12121
927.843	12117
927.95	11969
928.056	12041
928.162	12072
928.267	12049
928.373	12623
928.479	12175
928.585	11988
928.69	11977
928.796	12003
928.901	11904
929.007	11809
929.112	11889
929.218	11889
929.323	11885
929.428	11798
929.533	11950
929.638	11737
929.743	11756
929.848	11733
929.953	11703
930.058	11707
930.163	11524
930.267	11459
930.372	11676
930.477	11440
930.581	11668
930.685	11562
930.79	11395
930.894	11516
930.998	11364
931.103	11478
931.207	11136
931.311	10995
931.415	10965
931.519	10790
931.623	10782
