Data from test_V78500241_2230.txt Node
Date: Fri Mar 25 15:25:23 CST 2022
User: usil
Spectrometer: V785-0024
Trigger mode: 0
Integration Time (sec): 4.000000E-1
Scans to average: 1
Nonlinearity correction enabled: false
Boxcar width: 0
Storing dark spectrum: false
XAxis mode: Wavelengths
Number of Pixels in Spectrum: 1024
>>>>>Begin Spectral Data<<<<<
801.071	27842
801.214	27614
801.356	27526
801.499	27458
801.641	27214
801.783	27298
801.926	27363
802.068	27294
802.211	27207
802.353	27157
802.496	27001
802.638	26940
802.78	26895
802.923	26883
803.065	26788
803.208	26834
803.35	26883
803.492	27047
803.635	27161
803.777	26937
803.919	27036
804.061	27424
804.204	27119
804.346	27123
804.488	27081
804.63	27051
804.773	26933
804.915	27093
805.057	27256
805.199	26994
805.341	27070
805.483	27287
805.626	27169
805.768	27188
805.91	27218
806.052	27249
806.194	27211
806.336	27397
806.478	27279
806.62	27138
806.762	27317
806.904	27485
807.046	27770
807.188	27496
807.33	27675
807.472	27587
807.614	27656
807.756	27462
807.898	27591
808.04	27439
808.182	27450
808.324	27412
808.465	27614
808.607	27789
808.749	27694
808.891	27892
809.033	27987
809.174	27838
809.316	27914
809.458	27842
809.6	27895
809.741	27914
809.883	27914
810.025	28162
810.166	28139
810.308	28185
810.45	28063
810.591	28097
810.733	27865
810.875	27785
811.016	27713
811.158	27755
811.299	27869
811.441	28048
811.582	27888
811.724	27869
811.865	27724
812.007	27648
812.148	27781
812.29	27804
812.431	28032
812.573	28204
812.714	28215
812.855	28333
812.997	28367
813.138	28535
813.279	28493
813.421	28276
813.562	28333
813.703	28185
813.845	27914
813.986	27679
814.127	27671
814.268	27564
814.41	27663
814.551	27561
814.692	27523
814.833	27545
814.974	27557
815.115	27652
815.256	27435
815.397	27340
815.539	27313
815.68	27408
815.821	27306
815.962	27272
816.103	27256
816.244	27146
816.385	27176
816.526	27150
816.666	26956
816.807	26705
816.948	26804
817.089	26788
817.23	26838
817.371	26503
817.512	26918
817.653	26785
817.793	26674
817.934	26899
818.075	26735
818.216	26739
818.356	26834
818.497	26571
818.638	26583
818.778	26488
818.919	26495
819.06	26674
819.2	26556
819.341	26765
819.481	26807
819.622	26910
819.762	27173
819.903	27207
820.043	26956
820.184	26929
820.324	26906
820.465	27036
820.605	26902
820.746	26887
820.886	26769
821.026	26937
821.167	26788
821.307	26823
821.447	26705
821.588	26678
821.728	26461
821.868	26313
822.008	26282
822.149	26282
822.289	26157
822.429	25955
822.569	25917
822.709	25879
822.849	25845
822.99	25795
823.13	25791
823.27	25696
823.41	25556
823.55	25483
823.69	25597
823.83	25434
823.97	25487
824.11	25487
824.25	25232
824.389	25331
824.529	25479
824.669	25343
824.809	25559
824.949	25403
825.089	25430
825.228	25476
825.368	25301
825.508	25251
825.648	25160
825.787	25190
825.927	25407
826.067	25088
826.206	25164
826.346	25145
826.485	25206
826.625	25168
826.765	25259
826.904	25293
827.044	25255
827.183	24935
827.323	24977
827.462	25076
827.601	24951
827.741	24875
827.88	24977
828.02	24806
828.159	24829
828.298	25050
828.437	24924
828.577	24897
828.716	25110
828.855	24859
828.994	24635
829.134	24582
829.273	24650
829.412	24578
829.551	24578
829.69	24540
829.829	24639
829.968	24639
830.107	24768
830.246	24673
830.385	24505
830.524	24525
830.663	24475
830.802	24414
830.941	24296
831.08	24216
831.219	24369
831.357	24350
831.496	24418
831.635	24194
831.774	24049
831.913	24095
832.051	24106
832.19	24064
832.329	24117
832.467	23984
832.606	23889
832.744	23866
832.883	23851
833.022	23802
833.16	23923
833.299	23893
833.437	23882
833.576	23923
833.714	24022
833.852	24079
833.991	23992
834.129	24129
834.267	24045
834.406	24026
834.544	24057
834.682	24011
834.821	23946
834.959	24129
835.097	23942
835.235	23992
835.373	23942
835.511	23908
835.65	23809
835.788	23710
835.926	23680
836.064	23680
836.202	23665
836.34	23775
836.478	23767
836.615	23805
836.753	23836
836.891	23790
837.029	23893
837.167	23764
837.305	23790
837.443	23676
837.58	23676
837.718	23737
837.856	23699
837.993	23558
838.131	23649
838.269	23543
838.406	23657
838.544	23398
838.681	23368
838.819	23189
838.956	23079
839.094	23075
839.231	23204
839.369	23273
839.506	23440
839.643	23436
839.781	23143
839.918	23136
840.055	23223
840.193	23105
840.33	23018
840.467	23056
840.604	23083
840.742	23239
840.879	22961
841.016	22984
841.153	22923
841.29	23113
841.427	23136
841.564	23010
841.701	23006
841.838	22946
841.975	22949
842.112	22911
842.249	22904
842.385	22835
842.522	23086
842.659	22938
842.796	22653
842.933	22831
843.069	22820
843.206	22748
843.343	22797
843.479	22748
843.616	22752
843.752	22634
843.889	22508
844.025	22687
844.162	22550
844.298	22645
844.435	22504
844.571	22531
844.708	22577
844.844	22748
844.98	22706
845.117	22645
845.253	22512
845.389	22436
845.525	22379
845.661	22413
845.798	22371
845.934	22360
846.07	22333
846.206	22344
846.342	22500
846.478	22200
846.614	22101
846.75	21968
846.886	22048
847.022	22059
847.158	21979
847.294	21979
847.429	22090
847.565	22070
847.701	22265
847.837	21698
847.972	21656
848.108	21895
848.244	21766
848.379	21644
848.515	21774
848.65	21637
848.786	21739
848.921	21622
849.057	21732
849.192	21698
849.328	21629
849.463	21724
849.598	21606
849.734	21622
849.869	21466
850.004	21306
850.14	21416
850.275	21378
850.41	21252
850.545	21218
850.68	21374
850.815	21481
850.95	21386
851.085	21511
851.22	21507
851.355	21454
851.49	21496
851.625	21336
851.76	21344
851.895	21313
852.03	21317
852.165	21359
852.299	21496
852.434	21576
852.569	21511
852.703	21466
852.838	21401
852.973	21599
853.107	21412
853.242	21363
853.376	21245
853.511	21089
853.645	21184
853.78	21431
853.914	21272
854.048	21173
854.183	21218
854.317	21310
854.451	21443
854.585	21260
854.72	21351
854.854	21313
854.988	21108
855.122	21214
855.256	21211
855.39	21199
855.524	21218
855.658	21207
855.792	21252
855.926	21237
856.06	21260
856.194	21344
856.327	21260
856.461	21161
856.595	21279
856.729	21256
856.862	21351
856.996	21207
857.13	21226
857.263	21226
857.397	21428
857.53	21142
857.664	21321
857.797	21279
857.931	21416
858.064	21241
858.197	21382
858.331	21184
858.464	21119
858.597	21146
858.731	21226
858.864	21081
858.997	21131
859.13	21184
859.263	21207
859.396	21260
859.529	21283
859.662	21154
859.795	21230
859.928	21108
860.061	21393
860.194	21370
860.327	21226
860.46	21195
860.592	21367
860.725	21458
860.858	21321
860.99	21310
861.123	21123
861.256	21192
861.388	21226
861.521	21983
861.653	21218
861.786	20960
861.918	21039
862.05	21081
862.183	21218
862.315	21188
862.447	21214
862.58	21093
862.712	20956
862.844	20937
862.976	20994
863.108	20967
863.24	21367
863.372	20963
863.504	20891
863.636	20872
863.768	20925
863.9	20921
864.032	20872
864.164	20956
864.296	20944
864.428	20929
864.559	20975
864.691	20921
864.823	20941
864.954	20883
865.086	20967
865.217	20876
865.349	20857
865.48	20830
865.612	20887
865.743	20853
865.875	20800
866.006	20807
866.137	20872
866.269	20845
866.4	20800
866.531	20796
866.662	20697
866.793	20750
866.924	20739
867.055	20659
867.186	20686
867.317	20777
867.448	20640
867.579	20857
867.71	20579
867.841	20629
867.972	20773
868.103	20750
868.233	20788
868.364	20746
868.495	20830
868.625	20910
868.756	21062
868.886	21043
869.017	20982
869.147	21112
869.278	21039
869.408	21058
869.539	21020
869.669	21199
869.799	20857
869.929	21081
870.06	21146
870.19	21363
870.32	21294
870.45	21222
870.58	21367
870.71	21458
870.84	21450
870.97	21332
871.1	21351
871.23	21526
871.36	21534
871.489	21447
871.619	21519
871.749	21492
871.879	21557
872.008	21713
872.138	21591
872.267	21538
872.397	21469
872.526	21405
872.656	21302
872.785	21420
872.915	21663
873.044	21618
873.173	21675
873.303	21705
873.432	21759
873.561	21751
873.69	21622
873.819	21610
873.948	21747
874.077	21705
874.206	21500
874.335	21667
874.464	21770
874.593	21869
874.722	21789
874.851	21835
874.979	21797
875.108	21956
875.237	21804
875.365	21717
875.494	21709
875.623	21880
875.751	21774
875.88	21808
876.008	21926
876.136	22002
876.265	22246
876.393	22360
876.521	22238
876.65	22341
876.778	22325
876.906	22249
877.034	22238
877.162	22185
877.29	22143
877.418	22284
877.546	22188
877.674	22128
877.802	22101
877.93	22246
878.058	22059
878.185	22074
878.313	22063
878.441	22158
878.568	22078
878.696	22059
878.824	22234
878.951	22306
879.079	22284
879.206	22424
879.333	22421
879.461	22215
879.588	22226
879.715	22219
879.842	22390
879.97	22265
880.097	21968
880.224	21983
880.351	22185
880.478	22059
880.605	21979
880.732	22029
880.859	22223
880.986	22002
881.112	21983
881.239	21922
881.366	21804
881.493	21663
881.619	21587
881.746	21622
881.872	21679
881.999	21599
882.125	21572
882.252	21698
882.378	21622
882.505	21709
882.631	21603
882.757	21279
882.883	21397
883.01	21279
883.136	21256
883.262	21184
883.388	21211
883.514	21298
883.64	21408
883.766	21154
883.892	20982
884.018	21047
884.143	21370
884.269	21291
884.395	21077
884.52	20925
884.646	21001
884.772	20891
884.897	20868
885.023	20948
885.148	20921
885.274	21176
885.399	20975
885.524	20948
885.65	20937
885.775	21039
885.9	20792
886.025	21070
886.15	21081
886.275	20876
886.4	20906
886.525	20925
886.65	20819
886.775	20777
886.9	21135
887.025	21127
887.149	20845
887.274	20720
887.399	20762
887.523	20716
887.648	20659
887.773	20670
887.897	20785
888.021	20754
888.146	20701
888.27	20792
888.395	20815
888.519	20579
888.643	20804
888.767	20708
888.891	20609
889.015	20537
889.139	20602
889.263	20488
889.387	20629
889.511	20621
889.635	20632
889.759	20537
889.883	20560
890.006	20480
890.13	20678
890.254	20454
890.377	20332
890.501	20191
890.624	20263
890.748	20317
890.871	20180
890.995	20115
891.118	20122
891.241	20092
891.364	20008
891.488	20168
891.611	20191
891.734	20126
891.857	20138
891.98	20008
892.103	20130
892.226	20077
892.349	20065
892.471	19807
892.594	20077
892.717	19974
892.839	20016
892.962	20039
893.085	20020
893.207	20035
893.33	19871
893.452	19860
893.575	20008
893.697	20046
893.819	20134
893.941	20149
894.064	20130
894.186	19928
894.308	19917
894.43	20100
894.552	20103
894.674	20016
894.796	19947
894.918	19959
895.04	19986
895.161	20069
895.283	19951
895.405	20016
895.526	19993
895.648	19936
895.769	20054
895.891	19978
896.012	20119
896.134	20088
896.255	20069
896.376	20077
896.498	19887
896.619	19890
896.74	20012
896.861	19879
896.982	20355
897.103	20492
897.224	20218
897.345	20202
897.466	20100
897.587	20237
897.708	20298
897.828	20275
897.949	20210
898.07	20012
898.19	20081
898.311	20218
898.431	20107
898.552	20229
898.672	20263
898.792	20275
898.913	20157
899.033	20157
899.153	20069
899.273	19928
899.393	20050
899.513	20062
899.633	19909
899.753	19993
899.873	19925
899.993	19970
900.113	19921
900.232	19925
900.352	19856
900.472	19738
900.591	19791
900.711	19776
900.83	19658
900.95	19830
901.069	19803
901.189	19632
901.308	19384
901.427	19293
901.546	19339
901.665	19396
901.784	19411
901.904	19251
902.023	19050
902.141	19031
902.26	18852
902.379	18951
902.498	18848
902.617	18844
902.735	18909
902.854	18840
902.973	18783
903.091	18532
903.21	18456
903.328	18559
903.446	18445
903.565	18384
903.683	18315
903.801	18205
903.919	18365
904.038	18262
904.156	18114
904.274	18163
904.392	18045
904.51	18003
904.627	17965
904.745	18019
904.863	18182
904.981	17843
905.098	17813
905.216	17737
905.334	17790
905.451	17775
905.569	17752
905.686	17786
905.803	17646
905.921	17516
906.038	17592
906.155	17551
906.272	17459
906.389	17455
906.506	17315
906.623	17379
906.74	17178
906.857	17105
906.974	17143
907.091	17353
907.208	17467
907.324	17273
907.441	17151
907.557	16957
907.674	17014
907.79	16881
907.907	17006
908.023	17052
908.139	16892
908.256	16915
908.372	16923
908.488	16793
908.604	16740
908.72	16649
908.836	16740
908.952	16687
909.068	16729
909.184	16854
909.3	16668
909.415	16717
909.531	16508
909.647	16390
909.762	16466
909.878	16455
909.993	16466
910.108	16493
910.224	16394
910.339	16413
910.454	16276
910.57	16211
910.685	16139
910.8	16405
910.915	16344
911.03	16207
911.145	16040
911.259	16074
911.374	16071
911.489	15975
911.604	15804
911.718	15751
911.833	15819
911.947	15724
912.062	15675
912.176	15736
912.291	15732
912.405	15663
912.519	15819
912.633	15934
912.748	15854
912.862	15629
912.976	15663
913.09	15576
913.204	15591
913.318	15622
913.431	15622
913.545	15614
913.659	15766
913.772	15496
913.886	15469
914	15302
914.113	15477
914.226	15481
914.34	15424
914.453	15157
914.566	15447
914.68	15291
914.793	15249
914.906	15039
915.019	14986
915.132	14941
915.245	14941
915.358	14960
915.47	14982
915.583	14979
915.696	15070
915.809	15089
915.921	15165
916.034	14906
916.146	14899
916.259	14895
916.371	14979
916.483	14944
916.595	14769
916.708	14872
916.82	14849
916.932	14773
917.044	14769
917.156	14743
917.268	14678
917.38	14670
917.491	14545
917.603	14636
917.715	14758
917.826	14613
917.938	14610
918.049	14514
918.161	14564
918.272	14724
918.384	14716
918.495	14583
918.606	14434
918.717	14396
918.828	14484
918.939	14461
919.05	14305
919.161	14427
919.272	14119
919.383	14339
919.494	14412
919.604	14610
919.715	14393
919.826	14336
919.936	14358
920.047	14393
920.157	14408
920.267	14552
920.378	14343
920.488	14339
920.598	14549
920.708	14746
920.818	14480
920.928	14511
921.038	14648
921.148	14659
921.258	14267
921.368	14248
921.477	14119
921.587	14119
921.697	13997
921.806	14084
921.916	13940
922.025	13742
922.134	13776
922.244	13677
922.353	13826
922.462	13628
922.571	13533
922.68	13491
922.789	13392
922.898	13445
923.007	13304
923.116	13400
923.224	13407
923.333	13270
923.442	13236
923.55	13164
923.659	13304
923.767	13308
923.876	13168
923.984	13202
924.092	13091
924.201	13259
924.309	13141
924.417	13171
924.525	13095
924.633	13114
924.741	13894
924.849	12958
924.956	12977
925.064	12856
925.172	12802
925.279	12787
925.387	12829
925.494	12829
925.602	12932
925.709	12894
925.816	12806
925.924	12692
926.031	12977
926.138	12764
926.245	12802
926.352	12722
926.459	12837
926.566	12871
926.673	12730
926.779	12608
926.886	12578
926.993	12452
927.099	12414
927.206	12327
927.312	12327
927.419	12445
927.525	12372
927.631	12357
927.737	12308
927.843	12308
927.95	12091
928.056	12186
928.162	12194
928.267	12289
928.373	12810
928.479	12224
928.585	12003
928.69	12216
928.796	12175
928.901	12076
929.007	11912
929.112	12114
929.218	11973
929.323	11939
929.428	11958
929.533	12049
929.638	11836
929.743	11882
929.848	11923
929.953	11946
930.058	11771
930.163	11657
930.267	11619
930.372	11741
930.477	11608
930.581	11817
930.685	11703
930.79	11512
930.894	11512
930.998	11474
931.103	11630
931.207	11280
931.311	11223
931.415	11166
931.519	10980
931.623	10877
