Data from test_V78500241_309.txt Node
Date: Fri Mar 25 15:12:00 CST 2022
User: usil
Spectrometer: V785-0024
Trigger mode: 0
Integration Time (sec): 4.000000E-1
Scans to average: 1
Nonlinearity correction enabled: false
Boxcar width: 0
Storing dark spectrum: false
XAxis mode: Wavelengths
Number of Pixels in Spectrum: 1024
>>>>>Begin Spectral Data<<<<<
801.071	27492
801.214	27469
801.356	27058
801.499	27150
801.641	27047
801.783	27024
801.926	27135
802.068	27055
802.211	26940
802.353	26937
802.496	26686
802.638	26800
802.78	26777
802.923	26590
803.065	26625
803.208	26617
803.35	26655
803.492	26693
803.635	26929
803.777	26754
803.919	26769
804.061	27077
804.204	26883
804.346	26716
804.488	26613
804.63	26769
804.773	26545
804.915	26735
805.057	26781
805.199	26659
805.341	26864
805.483	26853
805.626	26785
805.768	26716
805.91	26731
806.052	26861
806.194	26777
806.336	27009
806.478	26781
806.62	27017
806.762	26960
806.904	27135
807.046	27291
807.188	27256
807.33	27233
807.472	27252
807.614	27184
807.756	27218
807.898	27169
808.04	27104
808.182	26982
808.324	27077
808.465	27260
808.607	27192
808.749	27412
808.891	27405
809.033	27648
809.174	27454
809.316	27424
809.458	27427
809.6	27332
809.741	27420
809.883	27545
810.025	27553
810.166	27660
810.308	27717
810.45	27675
810.591	27523
810.733	27477
810.875	27329
811.016	27237
811.158	27351
811.299	27477
811.441	27515
811.582	27526
811.724	27473
811.865	27332
812.007	27401
812.148	27359
812.29	27389
812.431	27515
812.573	27682
812.714	27701
812.855	27869
812.997	27979
813.138	28021
813.279	27987
813.421	27941
813.562	27751
813.703	27690
813.845	27641
813.986	27351
814.127	27138
814.268	26975
814.41	27077
814.551	26895
814.692	26967
814.833	26979
814.974	26975
815.115	26948
815.256	26891
815.397	26918
815.539	26823
815.68	26834
815.821	26815
815.962	26895
816.103	26925
816.244	26678
816.385	26560
816.526	26632
816.666	26244
816.807	26180
816.948	26263
817.089	26450
817.23	26332
817.371	26275
817.512	26294
817.653	26191
817.793	26149
817.934	26278
818.075	26320
818.216	26240
818.356	26153
818.497	26031
818.638	26020
818.778	25955
818.919	25940
819.06	26142
819.2	26027
819.341	26024
819.481	26240
819.622	26317
819.762	26526
819.903	26446
820.043	26389
820.184	26336
820.324	26404
820.465	26450
820.605	26313
820.746	26202
820.886	26168
821.026	26400
821.167	26320
821.307	26374
821.447	26244
821.588	26027
821.728	25951
821.868	25769
822.008	25746
822.149	25632
822.289	25556
822.429	25392
822.569	25331
822.709	25449
822.849	25198
822.99	25175
823.13	25065
823.27	25187
823.41	24951
823.55	24894
823.69	24856
823.83	24913
823.97	24859
824.11	24764
824.25	24623
824.389	24700
824.529	24920
824.669	24791
824.809	24928
824.949	24726
825.089	24886
825.228	24791
825.368	24650
825.508	24696
825.648	24631
825.787	24665
825.927	24601
826.067	24483
826.206	24521
826.346	24566
826.485	24490
826.625	24627
826.765	24681
826.904	24673
827.044	24357
827.183	24342
827.323	24262
827.462	24365
827.601	24182
827.741	24391
827.88	24235
828.02	24327
828.159	24205
828.298	24277
828.437	24285
828.577	24232
828.716	24330
828.855	24254
828.994	24030
829.134	23939
829.273	23931
829.412	23984
829.551	23992
829.69	23866
829.829	24079
829.968	24007
830.107	24030
830.246	23965
830.385	23954
830.524	23847
830.663	23893
830.802	23577
830.941	23497
831.08	23497
831.219	23642
831.357	23554
831.496	23809
831.635	23459
831.774	23653
831.913	23528
832.051	23421
832.19	23459
832.329	23528
832.467	23364
832.606	23216
832.744	23147
832.883	23459
833.022	23299
833.16	23280
833.299	23246
833.437	23334
833.576	23414
833.714	23318
833.852	23444
833.991	23391
834.129	23471
834.267	23360
834.406	23185
834.544	23406
834.682	23315
834.821	23318
834.959	23376
835.097	23242
835.235	23376
835.373	23265
835.511	23246
835.65	23162
835.788	23166
835.926	23113
836.064	22965
836.202	22949
836.34	23143
836.478	23220
836.615	23204
836.753	23064
836.891	23261
837.029	23121
837.167	23105
837.305	23162
837.443	22938
837.58	23006
837.718	23041
837.856	23060
837.993	23071
838.131	22900
838.269	22816
838.406	22942
838.544	22710
838.681	22615
838.819	22603
838.956	22470
839.094	22592
839.231	22462
839.369	22645
839.506	22942
839.643	22752
839.781	22421
839.918	22440
840.055	22360
840.193	22413
840.33	22382
840.467	22242
840.604	22363
840.742	22660
840.879	22207
841.016	22367
841.153	22322
841.29	22424
841.427	22363
841.564	22443
841.701	22352
841.838	22318
841.975	22268
842.112	22299
842.249	22204
842.385	22044
842.522	22310
842.659	22181
842.796	22017
842.933	22109
843.069	22010
843.206	22078
843.343	22242
843.479	22074
843.616	22017
843.752	21846
843.889	21778
844.025	22025
844.162	21876
844.298	22036
844.435	21831
844.571	21835
844.708	21899
844.844	22048
844.98	21884
845.117	21930
845.253	21755
845.389	21816
845.525	21747
845.661	21747
845.798	21564
845.934	21591
846.07	21530
846.206	21686
846.342	21656
846.478	21538
846.614	21511
846.75	21313
846.886	21336
847.022	21477
847.158	21321
847.294	21359
847.429	21332
847.565	21382
847.701	21599
847.837	21081
847.972	21043
848.108	21157
848.244	21188
848.379	21036
848.515	20994
848.65	20948
848.786	20979
848.921	21066
849.057	21017
849.192	20921
849.328	21039
849.463	20929
849.598	20929
849.734	20868
849.869	20743
850.004	20735
850.14	20861
850.275	20788
850.41	20606
850.545	20674
850.68	20648
850.815	20655
850.95	20716
851.085	20868
851.22	20735
851.355	20765
851.49	20716
851.625	20571
851.76	20640
851.895	20552
852.03	20575
852.165	20701
852.299	20743
852.434	20712
852.569	20682
852.703	20705
852.838	20678
852.973	20807
853.107	20701
853.242	20621
853.376	20606
853.511	20488
853.645	20476
853.78	20564
853.914	20537
854.048	20469
854.183	20370
854.317	20415
854.451	20708
854.585	20587
854.72	20476
854.854	20480
854.988	20434
855.122	20518
855.256	20465
855.39	20423
855.524	20560
855.658	20511
855.792	20511
855.926	20381
856.06	20568
856.194	20438
856.327	20476
856.461	20526
856.595	20511
856.729	20495
856.862	20571
856.996	20575
857.13	20556
857.263	20644
857.397	20617
857.53	20499
857.664	20556
857.797	20514
857.931	20621
858.064	20476
858.197	20609
858.331	20385
858.464	20461
858.597	20400
858.731	20423
858.864	20552
858.997	20370
859.13	20522
859.263	20457
859.396	20613
859.529	20374
859.662	20442
859.795	20393
859.928	20461
860.061	20705
860.194	20640
860.327	20526
860.46	20480
860.592	20579
860.725	20499
860.858	20693
860.99	20385
861.123	20423
861.256	20377
861.388	20530
861.521	20979
861.653	20381
861.786	20309
861.918	20343
862.05	20446
862.183	20355
862.315	20503
862.447	20537
862.58	20396
862.712	20202
862.844	20153
862.976	20240
863.108	20256
863.24	20636
863.372	20081
863.504	20103
863.636	20115
863.768	20248
863.9	20172
864.032	20050
864.164	20134
864.296	20161
864.428	20218
864.559	20237
864.691	20225
864.823	20088
864.954	20153
865.086	20115
865.217	20119
865.349	19909
865.48	20065
865.612	20050
865.743	20214
865.875	20145
866.006	20035
866.137	20050
866.269	20100
866.4	20077
866.531	20065
866.662	19970
866.793	20001
866.924	20077
867.055	19997
867.186	20092
867.317	19947
867.448	19871
867.579	19932
867.71	19997
867.841	19955
867.972	20016
868.103	19982
868.233	20016
868.364	20240
868.495	20096
868.625	20199
868.756	20339
868.886	20081
869.017	20267
869.147	20305
869.278	20259
869.408	20248
869.539	20240
869.669	20286
869.799	20275
869.929	20389
870.06	20434
870.19	20533
870.32	20560
870.45	20648
870.58	20640
870.71	20781
870.84	20644
870.97	20670
871.1	20705
871.23	20792
871.36	20910
871.489	20621
871.619	20902
871.749	20880
871.879	20834
872.008	20868
872.138	20887
872.267	20880
872.397	20765
872.526	20667
872.656	20686
872.785	20575
872.915	20906
873.044	20864
873.173	20792
873.303	20941
873.432	20921
873.561	20986
873.69	21005
873.819	20842
873.948	21039
874.077	20914
874.206	20796
874.335	20902
874.464	20929
874.593	21142
874.722	21104
874.851	21093
874.979	21188
875.108	21252
875.237	21089
875.365	21047
875.494	21070
875.623	21176
875.751	21131
875.88	21127
876.008	21256
876.136	21302
876.265	21485
876.393	21747
876.521	21549
876.65	21511
876.778	21488
876.906	21580
877.034	21504
877.162	21618
877.29	21431
877.418	21481
877.546	21412
877.674	21545
877.802	21500
877.93	21428
878.058	21435
878.185	21340
878.313	21454
878.441	21458
878.568	21313
878.696	21447
878.824	21549
878.951	21660
879.079	21698
879.206	21694
879.333	21618
879.461	21526
879.588	21660
879.715	21728
879.842	21701
879.97	21603
880.097	21203
880.224	21374
880.351	21416
880.478	21302
880.605	21264
880.732	21363
880.859	21561
880.986	21294
881.112	21340
881.239	21169
881.366	21127
881.493	20944
881.619	20887
881.746	20952
881.872	20864
881.999	20868
882.125	20975
882.252	20895
882.378	20842
882.505	21123
882.631	20724
882.757	20594
882.883	20587
883.01	20609
883.136	20480
883.262	20533
883.388	20522
883.514	20693
883.64	20503
883.766	20518
883.892	20454
884.018	20476
884.143	20549
884.269	20598
884.395	20343
884.52	20237
884.646	20278
884.772	20115
884.897	20180
885.023	20301
885.148	20317
885.274	20339
885.399	20377
885.524	20278
885.65	20389
885.775	20366
885.9	20252
886.025	20286
886.15	20267
886.275	20263
886.4	20229
886.525	20233
886.65	20115
886.775	20214
886.9	20229
887.025	20419
887.149	20271
887.274	20069
887.399	20202
887.523	20073
887.648	19944
887.773	19951
887.897	20096
888.021	19989
888.146	19993
888.27	20157
888.395	20024
888.519	20031
888.643	20187
888.767	20122
888.891	19955
889.015	19841
889.139	19811
889.263	19871
889.387	19887
889.511	20088
889.635	19837
889.759	19776
889.883	19696
890.006	19894
890.13	19936
890.254	19689
890.377	19753
890.501	19628
890.624	19594
890.748	19753
890.871	19487
890.995	19350
891.118	19411
891.241	19464
891.364	19415
891.488	19571
891.611	19464
891.734	19396
891.857	19449
891.98	19388
892.103	19468
892.226	19491
892.349	19312
892.471	19247
892.594	19206
892.717	19312
892.839	19308
892.962	19293
893.085	19365
893.207	19293
893.33	19316
893.452	19266
893.575	19388
893.697	19308
893.819	19464
893.941	19559
894.064	19472
894.186	19183
894.308	19251
894.43	19514
894.552	19343
894.674	19430
894.796	19285
894.918	19259
895.04	19320
895.161	19396
895.283	19407
895.405	19266
895.526	19327
895.648	19449
895.769	19415
895.891	19388
896.012	19582
896.134	19457
896.255	19377
896.376	19251
896.498	19346
896.619	19331
896.74	19480
896.861	19358
896.982	19689
897.103	19795
897.224	19616
897.345	19658
897.466	19605
897.587	19544
897.708	19864
897.828	19677
897.949	19472
898.07	19354
898.19	19575
898.311	19548
898.431	19537
898.552	19681
898.672	19658
898.792	19613
898.913	19632
899.033	19483
899.153	19388
899.273	19384
899.393	19274
899.513	19365
899.633	19304
899.753	19274
899.873	19160
899.993	19346
900.113	19278
900.232	19304
900.352	19236
900.472	19282
900.591	19095
900.711	19221
900.83	19053
900.95	19145
901.069	19209
901.189	18989
901.308	18890
901.427	18684
901.546	18703
901.665	18821
901.784	18620
901.904	18509
902.023	18479
902.141	18308
902.26	18228
902.379	18262
902.498	18239
902.617	18110
902.735	18304
902.854	18144
902.973	18270
903.091	17954
903.21	17809
903.328	17863
903.446	17805
903.565	17676
903.683	17676
903.801	17619
903.919	17676
904.038	17604
904.156	17543
904.274	17501
904.392	17448
904.51	17535
904.627	17501
904.745	17566
904.863	17558
904.981	17292
905.098	17105
905.216	17200
905.334	17189
905.451	17223
905.569	17193
905.686	17223
905.803	17109
905.921	17056
906.038	17147
906.155	16946
906.272	16850
906.389	16759
906.506	16679
906.623	16702
906.74	16668
906.857	16512
906.974	16607
907.091	16721
907.208	16850
907.324	16668
907.441	16580
907.557	16363
907.674	16440
907.79	16318
907.907	16390
908.023	16542
908.139	16413
908.256	16337
908.372	16417
908.488	16257
908.604	16086
908.72	16147
908.836	16112
908.952	16051
909.068	16135
909.184	16109
909.3	16013
909.415	16162
909.531	16078
909.647	15888
909.762	15888
909.878	15827
909.993	15846
910.108	15857
910.224	15778
910.339	15800
910.454	15652
910.57	15675
910.685	15625
910.8	15812
910.915	15732
911.03	15724
911.145	15485
911.259	15447
911.374	15351
911.489	15367
911.604	15275
911.718	15165
911.833	15207
911.947	15077
912.062	14994
912.176	15142
912.291	15184
912.405	15180
912.519	15408
912.633	15332
912.748	15264
912.862	15123
912.976	15028
913.09	14956
913.204	14975
913.318	14994
913.431	15043
913.545	15104
913.659	15157
913.772	14933
913.886	14902
914	14811
914.113	14895
914.226	14948
914.34	14868
914.453	14640
914.566	14941
914.68	14602
914.793	14651
914.906	14556
915.019	14476
915.132	14434
915.245	14469
915.358	14503
915.47	14355
915.583	14408
915.696	14434
915.809	14583
915.921	14473
916.034	14343
916.146	14362
916.259	14415
916.371	14488
916.483	14377
916.595	14317
916.708	14309
916.82	14282
916.932	14191
917.044	14298
917.156	14202
917.268	14062
917.38	14115
917.491	14050
917.603	14199
917.715	14180
917.826	14130
917.938	14077
918.049	13845
918.161	14088
918.272	14218
918.384	14317
918.495	14058
918.606	13925
918.717	13856
918.828	13955
918.939	13940
919.05	13833
919.161	13784
919.272	13704
919.383	13803
919.494	13925
919.604	14096
919.715	13837
919.826	13845
919.936	13913
920.047	13879
920.157	13757
920.267	14027
920.378	13917
920.488	13799
920.598	14092
920.708	14244
920.818	13982
920.928	13959
921.038	14096
921.148	14103
921.258	13738
921.368	13700
921.477	13719
921.587	13620
921.697	13430
921.806	13563
921.916	13453
922.025	13297
922.134	13285
922.244	13175
922.353	13282
922.462	13084
922.571	13088
922.68	12947
922.789	12905
922.898	12943
923.007	12825
923.116	12958
923.224	12875
923.333	12863
923.442	12791
923.55	12707
923.659	12734
923.767	12772
923.876	12772
923.984	12684
924.092	12677
924.201	12692
924.309	12608
924.417	12593
924.525	12525
924.633	12604
924.741	13407
924.849	12292
924.956	12563
925.064	12372
925.172	12308
925.279	12334
925.387	12292
925.494	12330
925.602	12456
925.709	12407
925.816	12258
925.924	12247
926.031	12471
926.138	12319
926.245	12311
926.352	12152
926.459	12365
926.566	12323
926.673	12254
926.779	12175
926.886	12114
926.993	11901
927.099	11988
927.206	11935
927.312	11866
927.419	11912
927.525	11889
927.631	12007
927.737	11893
927.843	11828
927.95	11699
928.056	11809
928.162	11790
928.267	11885
928.373	12422
928.479	11832
928.585	11581
928.69	11783
928.796	11798
928.901	11741
929.007	11532
929.112	11714
929.218	11547
929.323	11512
929.428	11505
929.533	11604
929.638	11509
929.743	11471
929.848	11535
929.953	11535
930.058	11349
930.163	11185
930.267	11277
930.372	11341
930.477	11166
930.581	11376
930.685	11235
930.79	11037
930.894	11056
930.998	11045
931.103	11223
931.207	10972
931.311	10828
931.415	10687
931.519	10504
931.623	10474
