Data from test_V78500241_2022.txt Node
Date: Fri Mar 25 15:23:56 CST 2022
User: usil
Spectrometer: V785-0024
Trigger mode: 0
Integration Time (sec): 4.000000E-1
Scans to average: 1
Nonlinearity correction enabled: false
Boxcar width: 0
Storing dark spectrum: false
XAxis mode: Wavelengths
Number of Pixels in Spectrum: 1024
>>>>>Begin Spectral Data<<<<<
801.071	27838
801.214	27895
801.356	27557
801.499	27408
801.641	27329
801.783	27447
801.926	27443
802.068	27389
802.211	27424
802.353	27336
802.496	27032
802.638	27047
802.78	26982
802.923	27005
803.065	26819
803.208	27028
803.35	26963
803.492	27112
803.635	27180
803.777	27252
803.919	27291
804.061	27713
804.204	27249
804.346	27237
804.488	26967
804.63	27405
804.773	27150
804.915	27188
805.057	27332
805.199	27169
805.341	27325
805.483	27420
805.626	27355
805.768	27275
805.91	27355
806.052	27203
806.194	27287
806.336	27492
806.478	27367
806.62	27424
806.762	27420
806.904	27633
807.046	27789
807.188	27751
807.33	27873
807.472	27781
807.614	27797
807.756	27785
807.898	27603
808.04	27587
808.182	27618
808.324	27660
808.465	27568
808.607	27789
808.749	27991
808.891	27975
809.033	28143
809.174	28017
809.316	27895
809.458	27941
809.6	28006
809.741	28135
809.883	28082
810.025	28234
810.166	28219
810.308	28299
810.45	28086
810.591	28078
810.733	28090
810.875	28082
811.016	27850
811.158	27816
811.299	28051
811.441	28192
811.582	28128
811.724	28051
811.865	27926
812.007	27922
812.148	27991
812.29	28051
812.431	28223
812.573	28333
812.714	28390
812.855	28554
812.997	28588
813.138	28687
813.279	28717
813.421	28493
813.562	28344
813.703	28360
813.845	28211
813.986	27960
814.127	27766
814.268	27751
814.41	27701
814.551	27724
814.692	27816
814.833	27675
814.974	27568
815.115	27690
815.256	27564
815.397	27622
815.539	27557
815.68	27500
815.821	27431
815.962	27473
816.103	27382
816.244	27332
816.385	27195
816.526	27294
816.666	27173
816.807	27066
816.948	27051
817.089	27165
817.23	26990
817.371	26891
817.512	26800
817.653	26979
817.793	26804
817.934	26895
818.075	27047
818.216	26921
818.356	26773
818.497	26880
818.638	26792
818.778	26663
818.919	26724
819.06	26777
819.2	26883
819.341	26804
819.481	26887
819.622	27089
819.762	27416
819.903	27264
820.043	27009
820.184	27169
820.324	26998
820.465	27260
820.605	27058
820.746	26998
820.886	26910
821.026	27055
821.167	26986
821.307	26979
821.447	26891
821.588	26891
821.728	26826
821.868	26552
822.008	26400
822.149	26404
822.289	26374
822.429	26221
822.569	26130
822.709	26164
822.849	25997
822.99	25890
823.13	25814
823.27	25860
823.41	25700
823.55	25704
823.69	25849
823.83	25719
823.97	25693
824.11	25495
824.25	25476
824.389	25567
824.529	25613
824.669	25556
824.809	25643
824.949	25719
825.089	25666
825.228	25552
825.368	25403
825.508	25346
825.648	25457
825.787	25346
825.927	25586
826.067	25297
826.206	25373
826.346	25518
826.485	25479
826.625	25453
826.765	25350
826.904	25521
827.044	25209
827.183	25209
827.323	25122
827.462	25400
827.601	25190
827.741	25053
827.88	25099
828.02	25076
828.159	25076
828.298	25129
828.437	25156
828.577	25103
828.716	25137
828.855	25084
828.994	24863
829.134	24848
829.273	24970
829.412	24882
829.551	24837
829.69	24795
829.829	24848
829.968	25050
830.107	24897
830.246	24886
830.385	24852
830.524	24688
830.663	24585
830.802	24639
830.941	24604
831.08	24448
831.219	24460
831.357	24604
831.496	24696
831.635	24426
831.774	24422
831.913	24296
832.051	24266
832.19	24361
832.329	24228
832.467	24224
832.606	24140
832.744	24011
832.883	24072
833.022	24155
833.16	24148
833.299	24194
833.437	24152
833.576	24285
833.714	24224
833.852	24216
833.991	24152
834.129	24270
834.267	24273
834.406	24216
834.544	24220
834.682	24311
834.821	24224
834.959	24254
835.097	24144
835.235	24163
835.373	24148
835.511	24190
835.65	24041
835.788	23996
835.926	23996
836.064	23920
836.202	23828
836.34	24110
836.478	24106
836.615	23927
836.753	23973
836.891	24186
837.029	24106
837.167	23980
837.305	23939
837.443	23942
837.58	23809
837.718	23992
837.856	23977
837.993	23802
838.131	23783
838.269	23775
838.406	23927
838.544	23653
838.681	23615
838.819	23505
838.956	23200
839.094	23318
839.231	23452
839.369	23417
839.506	23661
839.643	23539
839.781	23288
839.918	23178
840.055	23360
840.193	23246
840.33	23242
840.467	23311
840.604	23216
840.742	23558
840.879	23265
841.016	23258
841.153	23227
841.29	23288
841.427	23159
841.564	23292
841.701	23239
841.838	23102
841.975	23174
842.112	23090
842.249	23067
842.385	23128
842.522	23345
842.659	23056
842.796	23044
842.933	23033
843.069	22873
843.206	23014
843.343	23064
843.479	23064
843.616	23041
843.752	22774
843.889	22873
844.025	22961
844.162	22782
844.298	22961
844.435	22839
844.571	22862
844.708	22828
844.844	22942
844.98	22889
845.117	22919
845.253	22584
845.389	22656
845.525	22710
845.661	22740
845.798	22497
845.934	22516
846.07	22504
846.206	22565
846.342	22554
846.478	22561
846.614	22276
846.75	22284
846.886	22261
847.022	22299
847.158	22299
847.294	22238
847.429	22303
847.565	22246
847.701	22508
847.837	21941
847.972	21998
848.108	21991
848.244	22044
848.379	21846
848.515	21903
848.65	21819
848.786	21797
848.921	21930
849.057	21964
849.192	21880
849.328	21861
849.463	21797
849.598	21720
849.734	21694
849.869	21686
850.004	21564
850.14	21728
850.275	21622
850.41	21511
850.545	21542
850.68	21633
850.815	21713
850.95	21701
851.085	21778
851.22	21728
851.355	21614
851.49	21583
851.625	21595
851.76	21534
851.895	21466
852.03	21447
852.165	21530
852.299	21580
852.434	21701
852.569	21679
852.703	21622
852.838	21751
852.973	21618
853.107	21720
853.242	21572
853.376	21458
853.511	21370
853.645	21416
853.78	21660
853.914	21374
854.048	21393
854.183	21370
854.317	21401
854.451	21641
854.585	21431
854.72	21321
854.854	21496
854.988	21329
855.122	21454
855.256	21184
855.39	21428
855.524	21374
855.658	21534
855.792	21344
855.926	21534
856.06	21439
856.194	21504
856.327	21473
856.461	21374
856.595	21363
856.729	21439
856.862	21477
856.996	21473
857.13	21557
857.263	21603
857.397	21420
857.53	21458
857.664	21526
857.797	21447
857.931	21576
858.064	21401
858.197	21534
858.331	21462
858.464	21401
858.597	21439
858.731	21416
858.864	21291
858.997	21230
859.13	21424
859.263	21416
859.396	21462
859.529	21439
859.662	21382
859.795	21298
859.928	21397
860.061	21641
860.194	21583
860.327	21477
860.46	21416
860.592	21732
860.725	21572
860.858	21580
860.99	21523
861.123	21481
861.256	21382
861.388	21313
861.521	22048
861.653	21287
861.786	21230
861.918	21245
862.05	21462
862.183	21370
862.315	21291
862.447	21466
862.58	21348
862.712	21146
862.844	21066
862.976	21264
863.108	21260
863.24	21424
863.372	21169
863.504	21077
863.636	21154
863.768	21195
863.9	21165
864.032	21043
864.164	21135
864.296	21135
864.428	21070
864.559	21188
864.691	21157
864.823	21119
864.954	21062
865.086	21272
865.217	21047
865.349	20925
865.48	21036
865.612	20960
865.743	21055
865.875	21047
866.006	21051
866.137	20933
866.269	21116
866.4	21009
866.531	20933
866.662	20906
866.793	20952
866.924	21017
867.055	21047
867.186	20990
867.317	21009
867.448	20857
867.579	20826
867.71	20811
867.841	20830
867.972	20944
868.103	20975
868.233	20948
868.364	20887
868.495	20998
868.625	21123
868.756	21256
868.886	21127
869.017	21214
869.147	21169
869.278	21279
869.408	21203
869.539	21241
869.669	21283
869.799	21336
869.929	21283
870.06	21336
870.19	21443
870.32	21519
870.45	21591
870.58	21545
870.71	21633
870.84	21599
870.97	21519
871.1	21625
871.23	21709
871.36	21793
871.489	21739
871.619	21762
871.749	21865
871.879	21827
872.008	21918
872.138	21827
872.267	21698
872.397	21717
872.526	21576
872.656	21690
872.785	21629
872.915	21884
873.044	21918
873.173	21812
873.303	21804
873.432	21800
873.561	22093
873.69	21842
873.819	21739
873.948	21808
874.077	21846
874.206	21854
874.335	21724
874.464	21930
874.593	21994
874.722	21861
874.851	22166
874.979	22025
875.108	22143
875.237	22063
875.365	21907
875.494	22051
875.623	22109
875.751	21956
875.88	22051
876.008	22147
876.136	22276
876.265	22432
876.393	22542
876.521	22493
876.65	22508
876.778	22379
876.906	22379
877.034	22451
877.162	22348
877.29	22344
877.418	22413
877.546	22443
877.674	22470
877.802	22325
877.93	22402
878.058	22322
878.185	22234
878.313	22261
878.441	22443
878.568	22223
878.696	22379
878.824	22478
878.951	22542
879.079	22443
879.206	22687
879.333	22428
879.461	22375
879.588	22573
879.715	22535
879.842	22557
879.97	22500
880.097	22261
880.224	22112
880.351	22188
880.478	22223
880.605	22120
880.732	22051
880.859	22466
880.986	22280
881.112	22238
881.239	22051
881.366	22010
881.493	21869
881.619	21766
881.746	21854
881.872	21880
881.999	21793
882.125	21671
882.252	21804
882.378	21603
882.505	21960
882.631	21644
882.757	21454
882.883	21561
883.01	21583
883.136	21439
883.262	21367
883.388	21298
883.514	21454
883.64	21538
883.766	21454
883.892	21260
884.018	21199
884.143	21321
884.269	21530
884.395	21260
884.52	21161
884.646	21116
884.772	21062
884.897	21055
885.023	21154
885.148	21180
885.274	21287
885.399	21237
885.524	21195
885.65	21108
885.775	21104
885.9	21077
886.025	21252
886.15	21279
886.275	21119
886.4	21039
886.525	20975
886.65	21077
886.775	21077
886.9	21340
887.025	21355
887.149	21032
887.274	20937
887.399	20952
887.523	20804
887.648	20781
887.773	20804
887.897	21009
888.021	20868
888.146	20762
888.27	20891
888.395	20982
888.519	20883
888.643	20902
888.767	20963
888.891	20785
889.015	20720
889.139	20727
889.263	20716
889.387	20743
889.511	20845
889.635	20804
889.759	20735
889.883	20617
890.006	20640
890.13	20796
890.254	20651
890.377	20568
890.501	20488
890.624	20488
890.748	20507
890.871	20294
890.995	20225
891.118	20244
891.241	20191
891.364	20301
891.488	20332
891.611	20195
891.734	20252
891.857	20240
891.98	20294
892.103	20305
892.226	20317
892.349	20130
892.471	20103
892.594	20218
892.717	20130
892.839	20142
892.962	20263
893.085	20183
893.207	20237
893.33	20073
893.452	20012
893.575	20195
893.697	20138
893.819	20195
893.941	20294
894.064	20275
894.186	20092
894.308	20119
894.43	20317
894.552	20301
894.674	20237
894.796	20008
894.918	20168
895.04	20145
895.161	20263
895.283	20183
895.405	20130
895.526	20115
895.648	20153
895.769	20164
895.891	20119
896.012	20221
896.134	20161
896.255	20187
896.376	20107
896.498	20187
896.619	20168
896.74	20161
896.861	20172
896.982	20492
897.103	20590
897.224	20465
897.345	20351
897.466	20336
897.587	20347
897.708	20442
897.828	20412
897.949	20286
898.07	20138
898.19	20301
898.311	20446
898.431	20275
898.552	20461
898.672	20343
898.792	20374
898.913	20438
899.033	20252
899.153	20149
899.273	20084
899.393	20153
899.513	20195
899.633	20081
899.753	20218
899.873	20157
899.993	20126
900.113	20126
900.232	20138
900.352	20005
900.472	20027
900.591	19852
900.711	19974
900.83	19776
900.95	20050
901.069	19997
901.189	19875
901.308	19578
901.427	19426
901.546	19537
901.665	19567
901.784	19632
901.904	19415
902.023	19419
902.141	19114
902.26	19110
902.379	19053
902.498	19031
902.617	19080
902.735	19080
902.854	19004
902.973	18890
903.091	18753
903.21	18696
903.328	18601
903.446	18597
903.565	18646
903.683	18589
903.801	18422
903.919	18486
904.038	18361
904.156	18384
904.274	18346
904.392	18311
904.51	18144
904.627	18224
904.745	18292
904.863	18346
904.981	17973
905.098	17908
905.216	17999
905.334	18053
905.451	18060
905.569	17958
905.686	18011
905.803	17958
905.921	17764
906.038	17817
906.155	17779
906.272	17623
906.389	17653
906.506	17497
906.623	17528
906.74	17448
906.857	17334
906.974	17356
907.091	17558
907.208	17638
907.324	17493
907.441	17414
907.557	17303
907.674	17212
907.79	17155
907.907	17174
908.023	17197
908.139	17261
908.256	17094
908.372	17071
908.488	16991
908.604	16911
908.72	16904
908.836	16934
908.952	16946
909.068	16957
909.184	17003
909.3	16889
909.415	16938
909.531	16877
909.647	16664
909.762	16656
909.878	16584
909.993	16641
910.108	16653
910.224	16580
910.339	16603
910.454	16462
910.57	16337
910.685	16337
910.8	16592
910.915	16615
911.03	16485
911.145	16310
911.259	16173
911.374	16246
911.489	16112
911.604	16143
911.718	15972
911.833	15930
911.947	15842
912.062	15778
912.176	15930
912.291	15846
912.405	15884
912.519	16131
912.633	16082
912.748	15968
912.862	15915
912.976	15816
913.09	15584
913.204	15648
913.318	15838
913.431	15892
913.545	15873
913.659	15903
913.772	15720
913.886	15599
914	15523
914.113	15671
914.226	15644
914.34	15572
914.453	15477
914.566	15576
914.68	15454
914.793	15389
914.906	15203
915.019	15127
915.132	15089
915.245	15127
915.358	15211
915.47	15203
915.583	15154
915.696	15131
915.809	15241
915.921	15283
916.034	15089
916.146	15119
916.259	15116
916.371	15180
916.483	15104
916.595	14963
916.708	15036
916.82	14876
916.932	15013
917.044	14910
917.156	14910
917.268	14838
917.38	14762
917.491	14712
917.603	14773
917.715	14811
917.826	14895
917.938	14701
918.049	14621
918.161	14758
918.272	14857
918.384	14933
918.495	14746
918.606	14610
918.717	14579
918.828	14583
918.939	14720
919.05	14427
919.161	14629
919.272	14396
919.383	14457
919.494	14693
919.604	14720
919.715	14537
919.826	14442
919.936	14545
920.047	14552
920.157	14457
920.267	14769
920.378	14587
920.488	14533
920.598	14712
920.708	14872
920.818	14678
920.928	14613
921.038	14762
921.148	14845
921.258	14499
921.368	14412
921.477	14298
921.587	14320
921.697	14271
921.806	14233
921.916	14062
922.025	14035
922.134	13909
922.244	13921
922.353	13932
922.462	13799
922.571	13727
922.68	13616
922.789	13597
922.898	13624
923.007	13525
923.116	13597
923.224	13601
923.333	13594
923.442	13407
923.55	13468
923.659	13422
923.767	13434
923.876	13354
923.984	13422
924.092	13369
924.201	13388
924.309	13331
924.417	13266
924.525	13213
924.633	13308
924.741	13986
924.849	13046
924.956	13122
925.064	13103
925.172	12913
925.279	12996
925.387	12977
925.494	13031
925.602	13149
925.709	13080
925.816	12856
925.924	12973
926.031	13038
926.138	12897
926.245	13012
926.352	12802
926.459	12882
926.566	12962
926.673	12821
926.779	12772
926.886	12821
926.993	12517
927.099	12646
927.206	12566
927.312	12540
927.419	12585
927.525	12517
927.631	12658
927.737	12437
927.843	12319
927.95	12323
928.056	12372
928.162	12426
928.267	12376
928.373	13023
928.479	12346
928.585	12296
928.69	12319
928.796	12350
928.901	12228
929.007	12106
929.112	12224
929.218	12209
929.323	12041
929.428	12045
929.533	12186
929.638	12041
929.743	12034
929.848	12076
929.953	11984
930.058	11927
930.163	11775
930.267	11790
930.372	11942
930.477	11729
930.581	11897
930.685	11695
930.79	11695
930.894	11714
930.998	11543
931.103	11710
931.207	11433
931.311	11296
931.415	11280
931.519	11079
931.623	11037
