Data from test_V78500241_2030.txt Node
Date: Fri Mar 25 15:23:59 CST 2022
User: usil
Spectrometer: V785-0024
Trigger mode: 0
Integration Time (sec): 4.000000E-1
Scans to average: 1
Nonlinearity correction enabled: false
Boxcar width: 0
Storing dark spectrum: false
XAxis mode: Wavelengths
Number of Pixels in Spectrum: 1024
>>>>>Begin Spectral Data<<<<<
801.071	27785
801.214	27694
801.356	27572
801.499	27336
801.641	27351
801.783	27222
801.926	27237
802.068	27329
802.211	27230
802.353	27074
802.496	27100
802.638	27039
802.78	26906
802.923	26845
803.065	26887
803.208	26906
803.35	27096
803.492	27028
803.635	27131
803.777	27085
803.919	27070
804.061	27306
804.204	27131
804.346	27131
804.488	26960
804.63	27146
804.773	27017
804.915	27135
805.057	27180
805.199	27119
805.341	27039
805.483	27241
805.626	27329
805.768	27077
805.91	27093
806.052	27268
806.194	27127
806.336	27435
806.478	27222
806.62	27256
806.762	27287
806.904	27481
807.046	27709
807.188	27728
807.33	27648
807.472	27679
807.614	27591
807.756	27523
807.898	27526
808.04	27481
808.182	27561
808.324	27519
808.465	27359
808.607	27728
808.749	28040
808.891	27949
809.033	28086
809.174	27812
809.316	27968
809.458	27739
809.6	27926
809.741	28036
809.883	28154
810.025	28067
810.166	28230
810.308	28139
810.45	28013
810.591	28101
810.733	27816
810.875	27766
811.016	27614
811.158	27599
811.299	27846
811.441	27903
811.582	28013
811.724	27850
811.865	27743
812.007	27781
812.148	27793
812.29	27797
812.431	28013
812.573	28124
812.714	28325
812.855	28379
812.997	28337
813.138	28554
813.279	28500
813.421	28375
813.562	28341
813.703	28097
813.845	27979
813.986	27785
814.127	27488
814.268	27595
814.41	27644
814.551	27568
814.692	27568
814.833	27401
814.974	27511
815.115	27523
815.256	27344
815.397	27431
815.539	27378
815.68	27249
815.821	27230
815.962	27378
816.103	27268
816.244	27138
816.385	27081
816.526	27104
816.666	26857
816.807	26769
816.948	26880
817.089	26944
817.23	26857
817.371	26773
817.512	26777
817.653	26693
817.793	26651
817.934	26880
818.075	26815
818.216	26815
818.356	26826
818.497	26724
818.638	26503
818.778	26564
818.919	26590
819.06	26750
819.2	26667
819.341	26868
819.481	26868
819.622	27005
819.762	27211
819.903	26940
820.043	27039
820.184	26834
820.324	26796
820.465	26971
820.605	26819
820.746	26815
820.886	26823
821.026	26792
821.167	26857
821.307	26727
821.447	26792
821.588	26621
821.728	26488
821.868	26450
822.008	26248
822.149	26355
822.289	26202
822.429	25970
822.569	25982
822.709	25966
822.849	25715
822.99	25830
823.13	25799
823.27	25849
823.41	25582
823.55	25529
823.69	25674
823.83	25582
823.97	25689
824.11	25388
824.25	25247
824.389	25491
824.529	25422
824.669	25339
824.809	25571
824.949	25556
825.089	25445
825.228	25403
825.368	25304
825.508	25343
825.648	25190
825.787	25369
825.927	25312
826.067	25278
826.206	25312
826.346	25263
826.485	25324
826.625	25339
826.765	25434
826.904	25285
827.044	25072
827.183	25072
827.323	24863
827.462	24958
827.601	24970
827.741	24970
827.88	24981
828.02	24829
828.159	24958
828.298	24962
828.437	25042
828.577	24852
828.716	24935
828.855	24882
828.994	24616
829.134	24582
829.273	24661
829.412	24692
829.551	24639
829.69	24764
829.829	24669
829.968	24692
830.107	24795
830.246	24711
830.385	24582
830.524	24612
830.663	24551
830.802	24525
830.941	24266
831.08	24285
831.219	24422
831.357	24350
831.496	24433
831.635	24357
831.774	24251
831.913	24163
832.051	24049
832.19	24144
832.329	24026
832.467	23954
832.606	23798
832.744	23893
832.883	23988
833.022	23977
833.16	23923
833.299	24057
833.437	24068
833.576	24034
833.714	23927
833.852	24136
833.991	23950
834.129	24167
834.267	24106
834.406	24030
834.544	24068
834.682	24064
834.821	23984
834.959	24117
835.097	23958
835.235	24171
835.373	24011
835.511	23977
835.65	23813
835.788	23786
835.926	23741
836.064	23581
836.202	23638
836.34	23859
836.478	23874
836.615	23851
836.753	23870
836.891	23851
837.029	23927
837.167	23870
837.305	23684
837.443	23608
837.58	23684
837.718	23775
837.856	23680
837.993	23665
838.131	23802
838.269	23459
838.406	23558
838.544	23539
838.681	23414
838.819	23273
838.956	23166
839.094	23235
839.231	23185
839.369	23303
839.506	23459
839.643	23273
839.781	23090
839.918	23155
840.055	23140
840.193	23159
840.33	23010
840.467	23098
840.604	23128
840.742	23383
840.879	22965
841.016	23246
841.153	23003
841.29	23220
841.427	23128
841.564	23044
841.701	22987
841.838	23105
841.975	23060
842.112	22976
842.249	22930
842.385	22854
842.522	23086
842.659	22786
842.796	22816
842.933	22885
843.069	22710
843.206	22839
843.343	22889
843.479	22942
843.616	22839
843.752	22653
843.889	22641
844.025	22835
844.162	22622
844.298	22717
844.435	22641
844.571	22565
844.708	22603
844.844	22877
844.98	22721
845.117	22645
845.253	22451
845.389	22542
845.525	22569
845.661	22493
845.798	22291
845.934	22402
846.07	22249
846.206	22344
846.342	22409
846.478	22440
846.614	22036
846.75	22097
846.886	22082
847.022	22150
847.158	22162
847.294	22105
847.429	22185
847.565	22082
847.701	22246
847.837	21850
847.972	21804
848.108	21838
848.244	21953
848.379	21766
848.515	21637
848.65	21755
848.786	21648
848.921	21694
849.057	21876
849.192	21686
849.328	21667
849.463	21679
849.598	21713
849.734	21637
849.869	21583
850.004	21420
850.14	21481
850.275	21564
850.41	21336
850.545	21401
850.68	21420
850.815	21526
850.95	21473
851.085	21587
851.22	21500
851.355	21469
851.49	21428
851.625	21439
851.76	21473
851.895	21397
852.03	21230
852.165	21367
852.299	21477
852.434	21466
852.569	21370
852.703	21412
852.838	21496
852.973	21477
853.107	21553
853.242	21340
853.376	21287
853.511	21157
853.645	21157
853.78	21374
853.914	21256
854.048	21207
854.183	21302
854.317	21317
854.451	21485
854.585	21310
854.72	21249
854.854	21351
854.988	21180
855.122	21260
855.256	21085
855.39	21287
855.524	21313
855.658	21321
855.792	21291
855.926	21260
856.06	21279
856.194	21336
856.327	21184
856.461	21085
856.595	21180
856.729	21188
856.862	21313
856.996	21283
857.13	21310
857.263	21340
857.397	21310
857.53	21287
857.664	21355
857.797	21287
857.931	21226
858.064	21119
858.197	21420
858.331	21195
858.464	21203
858.597	21013
858.731	21279
858.864	21180
858.997	21169
859.13	21260
859.263	21241
859.396	21264
859.529	21199
859.662	21211
859.795	21218
859.928	21256
860.061	21397
860.194	21458
860.327	21176
860.46	21378
860.592	21458
860.725	21393
860.858	21428
860.99	21176
861.123	21192
861.256	21165
861.388	21230
861.521	21876
861.653	21116
861.786	21051
861.918	21032
862.05	21089
862.183	21051
862.315	21203
862.447	21203
862.58	21169
862.712	20975
862.844	20960
862.976	21024
863.108	21104
863.24	21245
863.372	20762
863.504	20967
863.636	20975
863.768	21020
863.9	21013
864.032	20948
864.164	20944
864.296	20967
864.428	21058
864.559	21074
864.691	21009
864.823	20937
864.954	20956
865.086	20864
865.217	20887
865.349	20880
865.48	20773
865.612	20929
865.743	21001
865.875	20925
866.006	20781
866.137	20830
866.269	20910
866.4	20868
866.531	20701
866.662	20739
866.793	20815
866.924	20826
867.055	20804
867.186	20773
867.317	20674
867.448	20705
867.579	20815
867.71	20777
867.841	20773
867.972	20849
868.103	20800
868.233	20773
868.364	20815
868.495	20838
868.625	21043
868.756	21119
868.886	21005
869.017	20971
869.147	21165
869.278	21218
869.408	21104
869.539	21070
869.669	21112
869.799	21165
869.929	21161
870.06	21089
870.19	21378
870.32	21325
870.45	21291
870.58	21370
870.71	21629
870.84	21580
870.97	21393
871.1	21466
871.23	21545
871.36	21671
871.489	21622
871.619	21545
871.749	21774
871.879	21496
872.008	21694
872.138	21629
872.267	21709
872.397	21466
872.526	21435
872.656	21591
872.785	21587
872.915	21720
873.044	21698
873.173	21561
873.303	21694
873.432	21728
873.561	21732
873.69	21641
873.819	21713
873.948	21720
874.077	21682
874.206	21766
874.335	21690
874.464	21838
874.593	21903
874.722	21816
874.851	21880
874.979	21918
875.108	21953
875.237	21918
875.365	21800
875.494	21964
875.623	21903
875.751	21831
875.88	21949
876.008	21941
876.136	22173
876.265	22154
876.393	22306
876.521	22367
876.65	22462
876.778	22158
876.906	22173
877.034	22261
877.162	22150
877.29	22211
877.418	22284
877.546	22265
877.674	22280
877.802	22291
877.93	22150
878.058	22215
878.185	22093
878.313	22185
878.441	22238
878.568	22116
878.696	22196
878.824	22363
878.951	22196
879.079	22405
879.206	22523
879.333	22363
879.461	22238
879.588	22390
879.715	22219
879.842	22512
879.97	22371
880.097	22086
880.224	21994
880.351	22090
880.478	22059
880.605	22040
880.732	22067
880.859	22268
880.986	22051
881.112	22131
881.239	22021
881.366	21747
881.493	21736
881.619	21633
881.746	21622
881.872	21591
881.999	21599
882.125	21507
882.252	21587
882.378	21542
882.505	21705
882.631	21519
882.757	21439
882.883	21382
883.01	21264
883.136	21203
883.262	21108
883.388	21157
883.514	21329
883.64	21283
883.766	21264
883.892	21100
884.018	21112
884.143	21119
884.269	21340
884.395	21089
884.52	21135
884.646	21013
884.772	20975
884.897	20906
885.023	21005
885.148	21020
885.274	21093
885.399	21142
885.524	20941
885.65	21100
885.775	21074
885.9	20990
886.025	21104
886.15	21047
886.275	20933
886.4	20785
886.525	20906
886.65	20921
886.775	20876
886.9	20994
887.025	21116
887.149	21024
887.274	20883
887.399	20819
887.523	20838
887.648	20682
887.773	20560
887.897	20883
888.021	20792
888.146	20682
888.27	20910
888.395	20800
888.519	20708
888.643	20781
888.767	20781
888.891	20720
889.015	20594
889.139	20773
889.263	20507
889.387	20636
889.511	20708
889.635	20731
889.759	20522
889.883	20602
890.006	20564
890.13	20716
890.254	20434
890.377	20606
890.501	20301
890.624	20336
890.748	20355
890.871	20305
890.995	20100
891.118	20062
891.241	20221
891.364	20134
891.488	20267
891.611	20153
891.734	20202
891.857	20301
891.98	20180
892.103	20180
892.226	20183
892.349	20065
892.471	19928
892.594	20054
892.717	19963
892.839	20043
892.962	20084
893.085	20134
893.207	19982
893.33	19925
893.452	19898
893.575	20069
893.697	20058
893.819	20153
893.941	20286
894.064	20221
894.186	20027
894.308	19986
894.43	20088
894.552	20191
894.674	20168
894.796	19902
894.918	19997
895.04	19940
895.161	20122
895.283	20130
895.405	19951
895.526	20081
895.648	20199
895.769	20081
895.891	20130
896.012	20103
896.134	20142
896.255	20122
896.376	19970
896.498	20008
896.619	20050
896.74	20069
896.861	20161
896.982	20530
897.103	20434
897.224	20317
897.345	20180
897.466	20263
897.587	20324
897.708	20454
897.828	20374
897.949	20309
898.07	20237
898.19	20191
898.311	20267
898.431	20301
898.552	20130
898.672	20377
898.792	20233
898.913	20324
899.033	20202
899.153	20069
899.273	19921
899.393	19993
899.513	20031
899.633	20008
899.753	20077
899.873	19898
899.993	19955
900.113	19871
900.232	20020
900.352	20024
900.472	19757
900.591	19746
900.711	19887
900.83	19681
900.95	19932
901.069	19951
901.189	19620
901.308	19529
901.427	19384
901.546	19407
901.665	19525
901.784	19388
901.904	19274
902.023	19137
902.141	19012
902.26	18913
902.379	18981
902.498	18867
902.617	18863
902.735	18871
902.854	18928
902.973	18757
903.091	18506
903.21	18597
903.328	18513
903.446	18513
903.565	18323
903.683	18399
903.801	18258
903.919	18296
904.038	18395
904.156	18121
904.274	18243
904.392	18087
904.51	18163
904.627	18098
904.745	18319
904.863	18216
904.981	17958
905.098	17798
905.216	17798
905.334	17908
905.451	17813
905.569	17718
905.686	17817
905.803	17745
905.921	17566
906.038	17729
906.155	17501
906.272	17558
906.389	17516
906.506	17296
906.623	17315
906.74	17398
906.857	17277
906.974	17265
907.091	17429
907.208	17429
907.324	17318
907.441	17166
907.557	17102
907.674	17117
907.79	16999
907.907	17037
908.023	17079
908.139	17143
908.256	16911
908.372	16946
908.488	17025
908.604	16782
908.72	16835
908.836	16809
908.952	16653
909.068	16869
909.184	16991
909.3	16755
909.415	16873
909.531	16778
909.647	16569
909.762	16489
909.878	16485
909.993	16512
910.108	16455
910.224	16394
910.339	16462
910.454	16341
910.57	16333
910.685	16226
910.8	16432
910.915	16413
911.03	16341
911.145	16181
911.259	16162
911.374	16044
911.489	16032
911.604	15922
911.718	15873
911.833	15895
911.947	15778
912.062	15652
912.176	15755
912.291	15831
912.405	15720
912.519	15972
912.633	15941
912.748	15793
912.862	15770
912.976	15728
913.09	15553
913.204	15625
913.318	15732
913.431	15717
913.545	15701
913.659	15785
913.772	15644
913.886	15542
914	15500
914.113	15538
914.226	15625
914.34	15568
914.453	15355
914.566	15450
914.68	15313
914.793	15329
914.906	15017
915.019	14971
915.132	15066
915.245	15173
915.358	15089
915.47	14986
915.583	15089
915.696	15047
915.809	15104
915.921	15207
916.034	14925
916.146	14998
916.259	14956
916.371	14994
916.483	15104
916.595	14910
916.708	14762
916.82	14868
916.932	14796
917.044	14830
917.156	14861
917.268	14792
917.38	14720
917.491	14670
917.603	14739
917.715	14834
917.826	14792
917.938	14636
918.049	14663
918.161	14602
918.272	14769
918.384	14785
918.495	14632
918.606	14499
918.717	14442
918.828	14507
918.939	14549
919.05	14393
919.161	14404
919.272	14298
919.383	14256
919.494	14545
919.604	14564
919.715	14431
919.826	14328
919.936	14366
920.047	14560
920.157	14408
920.267	14678
920.378	14480
920.488	14377
920.598	14625
920.708	14724
920.818	14583
920.928	14473
921.038	14712
921.148	14693
921.258	14446
921.368	14339
921.477	14218
921.587	14168
921.697	14088
921.806	14210
921.916	13936
922.025	13841
922.134	13799
922.244	13780
922.353	13849
922.462	13655
922.571	13628
922.68	13491
922.789	13491
922.898	13480
923.007	13407
923.116	13392
923.224	13510
923.333	13365
923.442	13441
923.55	13320
923.659	13308
923.767	13426
923.876	13289
923.984	13327
924.092	13244
924.201	13221
924.309	13183
924.417	13225
924.525	13072
924.633	13164
924.741	13894
924.849	13057
924.956	13103
925.064	12871
925.172	12825
925.279	12852
925.387	12935
925.494	12909
925.602	13027
925.709	12943
925.816	12795
925.924	12882
926.031	12905
926.138	12905
926.245	12730
926.352	12757
926.459	12753
926.566	12875
926.673	12715
926.779	12589
926.886	12593
926.993	12517
927.099	12456
927.206	12448
927.312	12372
927.419	12460
927.525	12532
927.631	12357
927.737	12384
927.843	12369
927.95	12152
928.056	12266
928.162	12330
928.267	12304
928.373	12901
928.479	12311
928.585	12114
928.69	12216
928.796	12369
928.901	12114
929.007	11950
929.112	12175
929.218	12106
929.323	12053
929.428	12140
929.533	12136
929.638	11908
929.743	11912
929.848	11901
929.953	11904
930.058	11863
930.163	11764
930.267	11608
930.372	11897
930.477	11600
930.581	11863
930.685	11726
930.79	11573
930.894	11570
930.998	11592
931.103	11623
931.207	11421
931.311	11201
931.415	11220
931.519	10984
931.623	10965
