Data from test_V78500241_1142.txt Node
Date: Fri Mar 25 15:17:48 CST 2022
User: usil
Spectrometer: V785-0024
Trigger mode: 0
Integration Time (sec): 4.000000E-1
Scans to average: 1
Nonlinearity correction enabled: false
Boxcar width: 0
Storing dark spectrum: false
XAxis mode: Wavelengths
Number of Pixels in Spectrum: 1024
>>>>>Begin Spectral Data<<<<<
801.071	27964
801.214	27808
801.356	27663
801.499	27770
801.641	27447
801.783	27466
801.926	27618
802.068	27526
802.211	27424
802.353	27325
802.496	27146
802.638	27100
802.78	27241
802.923	27146
803.065	27047
803.208	27096
803.35	27161
803.492	27264
803.635	27443
803.777	27157
803.919	27439
804.061	27652
804.204	27256
804.346	27317
804.488	27211
804.63	27287
804.773	27207
804.915	27397
805.057	27485
805.199	27363
805.341	27450
805.483	27291
805.626	27367
805.768	27469
805.91	27393
806.052	27450
806.194	27435
806.336	27656
806.478	27644
806.62	27549
806.762	27534
806.904	27800
807.046	27953
807.188	27949
807.33	27903
807.472	27831
807.614	27956
807.756	27941
807.898	27903
808.04	27690
808.182	27610
808.324	27736
808.465	27930
808.607	27979
808.749	28025
808.891	28226
809.033	28363
809.174	28223
809.316	28036
809.458	28276
809.6	27964
809.741	28124
809.883	28166
810.025	28363
810.166	28386
810.308	28493
810.45	28284
810.591	28284
810.733	28173
810.875	28032
811.016	28067
811.158	28002
811.299	28303
811.441	28173
811.582	28272
811.724	28177
811.865	28032
812.007	28010
812.148	28112
812.29	28333
812.431	28295
812.573	28519
812.714	28565
812.855	28656
812.997	28630
813.138	28854
813.279	28721
813.421	28847
813.562	28763
813.703	28691
813.845	28390
813.986	28192
814.127	27987
814.268	27675
814.41	27774
814.551	27827
814.692	27857
814.833	27800
814.974	27751
815.115	27831
815.256	27762
815.397	27724
815.539	27660
815.68	27576
815.821	27568
815.962	27618
816.103	27663
816.244	27614
816.385	27420
816.526	27504
816.666	27298
816.807	27131
816.948	27104
817.089	27260
817.23	27085
817.371	27146
817.512	27138
817.653	27039
817.793	26979
817.934	27081
818.075	27096
818.216	27154
818.356	26990
818.497	26979
818.638	26994
818.778	26731
818.919	26940
819.06	26986
819.2	27077
819.341	27207
819.481	27119
819.622	27397
819.762	27382
819.903	27348
820.043	27245
820.184	27138
820.324	27169
820.465	27367
820.605	27249
820.746	27233
820.886	27169
821.026	27222
821.167	27272
821.307	27256
821.447	27112
821.588	27154
821.728	26910
821.868	26724
822.008	26602
822.149	26549
822.289	26629
822.429	26191
822.569	26256
822.709	26366
822.849	26130
822.99	26145
823.13	26134
823.27	26115
823.41	26024
823.55	25947
823.69	25845
823.83	25871
823.97	25921
824.11	25727
824.25	25708
824.389	25746
824.529	25856
824.669	25788
824.809	25944
824.949	26012
825.089	25845
825.228	25864
825.368	25708
825.508	25693
825.648	25662
825.787	25628
825.927	25731
826.067	25689
826.206	25594
826.346	25776
826.485	25757
826.625	25689
826.765	25643
826.904	25643
827.044	25365
827.183	25441
827.323	25293
827.462	25411
827.601	25293
827.741	25289
827.88	25331
828.02	25343
828.159	25377
828.298	25460
828.437	25407
828.577	25327
828.716	25533
828.855	25320
828.994	25152
829.134	25072
829.273	25228
829.412	24916
829.551	24924
829.69	25069
829.829	25148
829.968	25327
830.107	25065
830.246	25065
830.385	25053
830.524	24989
830.663	24913
830.802	24856
830.941	24692
831.08	24757
831.219	24901
831.357	24738
831.496	24951
831.635	24757
831.774	24650
831.913	24639
832.051	24536
832.19	24502
832.329	24555
832.467	24376
832.606	24429
832.744	24353
832.883	24338
833.022	24361
833.16	24353
833.299	24429
833.437	24517
833.576	24429
833.714	24467
833.852	24456
833.991	24467
834.129	24604
834.267	24582
834.406	24437
834.544	24479
834.682	24388
834.821	24513
834.959	24711
835.097	24388
835.235	24521
835.373	24475
835.511	24563
835.65	24376
835.788	24330
835.926	24186
836.064	24041
836.202	24159
836.34	24239
836.478	24315
836.615	24308
836.753	24201
836.891	24445
837.029	24315
837.167	24445
837.305	24190
837.443	24148
837.58	24281
837.718	24300
837.856	24117
837.993	23988
838.131	24163
838.269	23863
838.406	24022
838.544	23969
838.681	23783
838.819	23676
838.956	23737
839.094	23649
839.231	23657
839.369	23847
839.506	24057
839.643	23859
839.781	23566
839.918	23592
840.055	23577
840.193	23558
840.33	23493
840.467	23585
840.604	23726
840.742	23779
840.879	23448
841.016	23452
841.153	23528
841.29	23657
841.427	23566
841.564	23551
841.701	23566
841.838	23493
841.975	23444
842.112	23433
842.249	23322
842.385	23280
842.522	23402
842.659	23341
842.796	23208
842.933	23277
843.069	23269
843.206	23254
843.343	23349
843.479	23341
843.616	23121
843.752	23003
843.889	23212
844.025	23178
844.162	22968
844.298	23151
844.435	23029
844.571	22927
844.708	23075
844.844	23200
844.98	23280
845.117	23200
845.253	22987
845.389	22847
845.525	23018
845.661	22866
845.798	22835
845.934	22923
846.07	22748
846.206	22877
846.342	22911
846.478	22759
846.614	22618
846.75	22504
846.886	22535
847.022	22580
847.158	22504
847.294	22618
847.429	22500
847.565	22432
847.701	22702
847.837	22348
847.972	22268
848.108	22447
848.244	22299
848.379	22200
848.515	22116
848.65	22166
848.786	22135
848.921	22196
849.057	22249
849.192	22215
849.328	22299
849.463	22166
849.598	22040
849.734	22067
849.869	22006
850.004	21831
850.14	21926
850.275	21857
850.41	21838
850.545	21876
850.68	21823
850.815	22013
850.95	21869
851.085	22044
851.22	22013
851.355	21911
851.49	21888
851.625	21857
851.76	21804
851.895	21850
852.03	21854
852.165	21915
852.299	21907
852.434	21972
852.569	22002
852.703	21941
852.838	21964
852.973	21960
853.107	21956
853.242	21827
853.376	21770
853.511	21637
853.645	21633
853.78	21857
853.914	21759
854.048	21736
854.183	21663
854.317	21800
854.451	21797
854.585	21641
854.72	21720
854.854	21713
854.988	21675
855.122	21724
855.256	21629
855.39	21686
855.524	21743
855.658	21728
855.792	21736
855.926	21663
856.06	21663
856.194	21823
856.327	21648
856.461	21675
856.595	21663
856.729	21701
856.862	21907
856.996	21747
857.13	21812
857.263	21800
857.397	21854
857.53	21713
857.664	21804
857.797	21793
857.931	21884
858.064	21804
858.197	21915
858.331	21804
858.464	21618
858.597	21561
858.731	21717
858.864	21713
858.997	21690
859.13	21778
859.263	21660
859.396	21819
859.529	21751
859.662	21580
859.795	21614
859.928	21690
860.061	21869
860.194	21846
860.327	21663
860.46	21766
860.592	21838
860.725	21865
860.858	21823
860.99	21572
861.123	21557
861.256	21572
861.388	21785
861.521	22417
861.653	21526
861.786	21538
861.918	21568
862.05	21591
862.183	21606
862.315	21755
862.447	21781
862.58	21759
862.712	21450
862.844	21397
862.976	21454
863.108	21511
863.24	22055
863.372	21367
863.504	21530
863.636	21367
863.768	21492
863.9	21443
864.032	21374
864.164	21496
864.296	21412
864.428	21462
864.559	21447
864.691	21473
864.823	21500
864.954	21340
865.086	21435
865.217	21260
865.349	21264
865.48	21214
865.612	21332
865.743	21325
865.875	21351
866.006	21310
866.137	21355
866.269	21283
866.4	21230
866.531	21165
866.662	21138
866.793	21268
866.924	21241
867.055	21176
867.186	21252
867.317	21249
867.448	21161
867.579	21188
867.71	21169
867.841	21157
867.972	21306
868.103	21233
868.233	21222
868.364	21173
868.495	21214
868.625	21332
868.756	21420
868.886	21420
869.017	21485
869.147	21637
869.278	21591
869.408	21568
869.539	21443
869.669	21561
869.799	21576
869.929	21648
870.06	21606
870.19	21736
870.32	21751
870.45	21823
870.58	21873
870.71	21922
870.84	21899
870.97	21819
871.1	21915
871.23	21991
871.36	22166
871.489	21945
871.619	22040
871.749	22109
871.879	22086
872.008	22162
872.138	21941
872.267	22051
872.397	21835
872.526	21869
872.656	21781
872.785	21880
872.915	22025
873.044	22314
873.173	22063
873.303	22143
873.432	22185
873.561	22223
873.69	22082
873.819	22074
873.948	22162
874.077	22143
874.206	22086
874.335	22162
874.464	22158
874.593	22379
874.722	22310
874.851	22215
874.979	22234
875.108	22462
875.237	22348
875.365	22215
875.494	22257
875.623	22356
875.751	22306
875.88	22394
876.008	22527
876.136	22497
876.265	22679
876.393	22744
876.521	22778
876.65	22847
876.778	22679
876.906	22653
877.034	22687
877.162	22641
877.29	22421
877.418	22698
877.546	22683
877.674	22535
877.802	22615
877.93	22683
878.058	22645
878.185	22656
878.313	22645
878.441	22599
878.568	22459
878.696	22561
878.824	22733
878.951	22683
879.079	22675
879.206	22854
879.333	22869
879.461	22740
879.588	22748
879.715	22812
879.842	22991
879.97	22713
880.097	22375
880.224	22451
880.351	22497
880.478	22478
880.605	22542
880.732	22557
880.859	22630
880.986	22500
881.112	22523
881.239	22284
881.366	22188
881.493	22116
881.619	21994
881.746	22070
881.872	22040
881.999	21975
882.125	21956
882.252	22093
882.378	22070
882.505	22048
882.631	21911
882.757	21762
882.883	21911
883.01	21724
883.136	21736
883.262	21755
883.388	21473
883.514	21774
883.64	21781
883.766	21705
883.892	21553
884.018	21447
884.143	21614
884.269	21812
884.395	21412
884.52	21321
884.646	21466
884.772	21344
884.897	21291
885.023	21325
885.148	21542
885.274	21568
885.399	21424
885.524	21386
885.65	21389
885.775	21329
885.9	21370
886.025	21412
886.15	21405
886.275	21321
886.4	21241
886.525	21306
886.65	21268
886.775	21272
886.9	21469
887.025	21538
887.149	21340
887.274	21123
887.399	21146
887.523	21169
887.648	21119
887.773	21100
887.897	21127
888.021	21317
888.146	21005
888.27	21195
888.395	21173
888.519	21138
888.643	21028
888.767	21089
888.891	21055
889.015	20937
889.139	20975
889.263	21024
889.387	21001
889.511	21127
889.635	21020
889.759	20853
889.883	20933
890.006	20948
890.13	21036
890.254	20834
890.377	20861
890.501	20606
890.624	20686
890.748	20785
890.871	20686
890.995	20454
891.118	20434
891.241	20484
891.364	20568
891.488	20606
891.611	20590
891.734	20545
891.857	20488
891.98	20503
892.103	20552
892.226	20442
892.349	20434
892.471	20271
892.594	20427
892.717	20454
892.839	20393
892.962	20370
893.085	20613
893.207	20518
893.33	20320
893.452	20294
893.575	20370
893.697	20434
893.819	20594
893.941	20511
894.064	20503
894.186	20454
894.308	20381
894.43	20473
894.552	20575
894.674	20522
894.796	20343
894.918	20381
895.04	20336
895.161	20568
895.283	20358
895.405	20427
895.526	20404
895.648	20339
895.769	20434
895.891	20400
896.012	20454
896.134	20442
896.255	20400
896.376	20404
896.498	20396
896.619	20313
896.74	20366
896.861	20503
896.982	20826
897.103	20853
897.224	20667
897.345	20659
897.466	20629
897.587	20594
897.708	20682
897.828	20663
897.949	20594
898.07	20507
898.19	20564
898.311	20686
898.431	20488
898.552	20560
898.672	20731
898.792	20712
898.913	20590
899.033	20545
899.153	20408
899.273	20259
899.393	20317
899.513	20465
899.633	20313
899.753	20400
899.873	20282
899.993	20286
900.113	20324
900.232	20377
900.352	20157
900.472	20240
900.591	20142
900.711	20107
900.83	20027
900.95	20256
901.069	20229
901.189	20035
901.308	19765
901.427	19693
901.546	19772
901.665	19719
901.784	19658
901.904	19563
902.023	19480
902.141	19282
902.26	19316
902.379	19362
902.498	19282
902.617	19160
902.735	19270
902.854	19217
902.973	19076
903.091	18779
903.21	18798
903.328	18913
903.446	18878
903.565	18692
903.683	18715
903.801	18555
903.919	18738
904.038	18623
904.156	18479
904.274	18437
904.392	18448
904.51	18445
904.627	18395
904.745	18506
904.863	18620
904.981	18220
905.098	18072
905.216	18072
905.334	18114
905.451	18152
905.569	18190
905.686	18270
905.803	18129
905.921	17912
906.038	18072
906.155	18015
906.272	17840
906.389	17775
906.506	17748
906.623	17741
906.74	17687
906.857	17512
906.974	17634
907.091	17748
907.208	17745
907.324	17737
907.441	17532
907.557	17376
907.674	17379
907.79	17273
907.907	17383
908.023	17471
908.139	17288
908.256	17356
908.372	17315
908.488	17231
908.604	17037
908.72	17052
908.836	17113
908.952	17071
909.068	17086
909.184	17181
909.3	17193
909.415	17086
909.531	16965
909.647	16824
909.762	16881
909.878	16691
909.993	16752
910.108	16771
910.224	16694
910.339	16672
910.454	16641
910.57	16561
910.685	16565
910.8	16763
910.915	16748
911.03	16641
911.145	16379
911.259	16459
911.374	16428
911.489	16363
911.604	16234
911.718	16234
911.833	16154
911.947	16044
912.062	15964
912.176	16112
912.291	16086
912.405	16093
912.519	16306
912.633	16249
912.748	16253
912.862	16082
912.976	15949
913.09	15819
913.204	15953
913.318	15926
913.431	16105
913.545	16013
913.659	15998
913.772	15903
913.886	15759
914	15751
914.113	15785
914.226	15827
914.34	15808
914.453	15660
914.566	15724
914.68	15660
914.793	15625
914.906	15538
915.019	15317
915.132	15222
915.245	15317
915.358	15416
915.47	15298
915.583	15291
915.696	15408
915.809	15408
915.921	15538
916.034	15298
916.146	15252
916.259	15230
916.371	15336
916.483	15351
916.595	15161
916.708	15218
916.82	15119
916.932	15085
917.044	15093
917.156	15211
917.268	15047
917.38	15024
917.491	15013
917.603	14891
917.715	15001
917.826	14990
917.938	14948
918.049	14781
918.161	15032
918.272	15074
918.384	15055
918.495	14861
918.606	14804
918.717	14693
918.828	14811
918.939	14712
919.05	14727
919.161	14693
919.272	14575
919.383	14617
919.494	14712
919.604	14960
919.715	14712
919.826	14708
919.936	14682
920.047	14826
920.157	14743
920.267	14868
920.378	14720
920.488	14697
920.598	14842
920.708	15009
920.818	14838
920.928	14819
921.038	14948
921.148	14963
921.258	14602
921.368	14625
921.477	14461
921.587	14442
921.697	14317
921.806	14457
921.916	14290
922.025	14267
922.134	14092
922.244	14065
922.353	14058
922.462	13970
922.571	13925
922.68	13818
922.789	13704
922.898	13689
923.007	13731
923.116	13784
923.224	13624
923.333	13647
923.442	13533
923.55	13468
923.659	13590
923.767	13590
923.876	13605
923.984	13540
924.092	13457
924.201	13483
924.309	13559
924.417	13426
924.525	13422
924.633	13388
924.741	14298
924.849	13209
924.956	13266
925.064	13228
925.172	13088
925.279	13141
925.387	13160
925.494	13053
925.602	13278
925.709	13069
925.816	13095
925.924	13015
926.031	13110
926.138	13061
926.245	13156
926.352	12962
926.459	13141
926.566	13190
926.673	12875
926.779	12779
926.886	12897
926.993	12764
927.099	12722
927.206	12612
927.312	12585
927.419	12635
927.525	12620
927.631	12707
927.737	12578
927.843	12475
927.95	12460
928.056	12464
928.162	12475
928.267	12551
928.373	13000
928.479	12559
928.585	12342
928.69	12448
928.796	12506
928.901	12433
929.007	12197
929.112	12327
929.218	12308
929.323	12277
929.428	12194
929.533	12433
929.638	12098
929.743	12041
929.848	12182
929.953	12148
930.058	12022
930.163	11836
930.267	11931
930.372	12072
930.477	11908
930.581	12125
930.685	11927
930.79	11775
930.894	11798
930.998	11802
931.103	11939
931.207	11581
931.311	11486
931.415	11315
931.519	11208
931.623	11174
