Data from test_V78500241_2695.txt Node
Date: Fri Mar 25 15:28:37 CST 2022
User: usil
Spectrometer: V785-0024
Trigger mode: 0
Integration Time (sec): 4.000000E-1
Scans to average: 1
Nonlinearity correction enabled: false
Boxcar width: 0
Storing dark spectrum: false
XAxis mode: Wavelengths
Number of Pixels in Spectrum: 1024
>>>>>Begin Spectral Data<<<<<
801.071	27036
801.214	27001
801.356	26868
801.499	26594
801.641	26579
801.783	26632
801.926	26571
802.068	26632
802.211	26602
802.353	26549
802.496	26301
802.638	26252
802.78	26278
802.923	26202
803.065	26164
803.208	26149
803.35	26092
803.492	26366
803.635	26374
803.777	26290
803.919	26370
804.061	26731
804.204	26492
804.346	26366
804.488	26263
804.63	26305
804.773	26282
804.915	26393
805.057	26374
805.199	26263
805.341	26370
805.483	26526
805.626	26541
805.768	26488
805.91	26537
806.052	26374
806.194	26446
806.336	26655
806.478	26336
806.62	26453
806.762	26480
806.904	26720
807.046	27017
807.188	26933
807.33	27001
807.472	26963
807.614	26842
807.756	26876
807.898	26720
808.04	26746
808.182	26678
808.324	26663
808.465	26712
808.607	27009
808.749	27009
808.891	27081
809.033	27176
809.174	26986
809.316	27024
809.458	27005
809.6	26971
809.741	27222
809.883	27116
810.025	27096
810.166	27420
810.308	27454
810.45	27138
810.591	27173
810.733	27112
810.875	27028
811.016	26960
811.158	26910
811.299	26998
811.441	27218
811.582	27211
811.724	27009
811.865	27119
812.007	27123
812.148	26861
812.29	27043
812.431	27332
812.573	27336
812.714	27401
812.855	27519
812.997	27606
813.138	27728
813.279	27564
813.421	27572
813.562	27272
813.703	27382
813.845	27298
813.986	26933
814.127	26762
814.268	26648
814.41	26743
814.551	26609
814.692	26674
814.833	26442
814.974	26731
815.115	26613
815.256	26461
815.397	26495
815.539	26632
815.68	26431
815.821	26351
815.962	26492
816.103	26492
816.244	26275
816.385	26240
816.526	26157
816.666	26157
816.807	25879
816.948	25955
817.089	25997
817.23	25978
817.371	25913
817.512	25833
817.653	25966
817.793	25791
817.934	25963
818.075	25864
818.216	25887
818.356	25674
818.497	25902
818.638	25715
818.778	25715
818.919	25613
819.06	25693
819.2	25814
819.341	25917
819.481	25917
819.622	26183
819.762	26278
819.903	26195
820.043	26199
820.184	26111
820.324	26016
820.465	26126
820.605	25978
820.746	26031
820.886	25970
821.026	25925
821.167	25803
821.307	26012
821.447	25826
821.588	25837
821.728	25700
821.868	25419
822.008	25540
822.149	25388
822.289	25232
822.429	25129
822.569	25107
822.709	24970
822.849	24890
822.99	24814
823.13	24958
823.27	24783
823.41	24661
823.55	24547
823.69	24772
823.83	24715
823.97	24604
824.11	24528
824.25	24502
824.389	24582
824.529	24528
824.669	24585
824.809	24597
824.949	24532
825.089	24658
825.228	24608
825.368	24327
825.508	24300
825.648	24365
825.787	24429
825.927	24429
826.067	24479
826.206	24403
826.346	24456
826.485	24483
826.625	24399
826.765	24395
826.904	24494
827.044	24228
827.183	24178
827.323	24117
827.462	24174
827.601	24053
827.741	24186
827.88	24129
828.02	24030
828.159	24114
828.298	24068
828.437	24140
828.577	24007
828.716	24087
828.855	24095
828.994	23767
829.134	23802
829.273	23882
829.412	23775
829.551	23843
829.69	23847
829.829	23870
829.968	23992
830.107	23927
830.246	23798
830.385	23729
830.524	23657
830.663	23562
830.802	23539
830.941	23410
831.08	23528
831.219	23570
831.357	23486
831.496	23741
831.635	23406
831.774	23436
831.913	23315
832.051	23189
832.19	23147
832.329	23200
832.467	23067
832.606	23124
832.744	23025
832.883	23098
833.022	23033
833.16	22984
833.299	23083
833.437	23132
833.576	23162
833.714	23132
833.852	23258
833.991	23140
834.129	23216
834.267	23269
834.406	23033
834.544	23208
834.682	23155
834.821	23216
834.959	23398
835.097	23075
835.235	23284
835.373	23227
835.511	23136
835.65	23006
835.788	22984
835.926	22850
836.064	22816
836.202	22862
836.34	23022
836.478	23109
836.615	22938
836.753	23003
836.891	22953
837.029	23033
837.167	22927
837.305	22976
837.443	22889
837.58	22908
837.718	22923
837.856	22923
837.993	22786
838.131	22923
838.269	22668
838.406	22736
838.544	22729
838.681	22447
838.819	22459
838.956	22394
839.094	22337
839.231	22379
839.369	22542
839.506	22725
839.643	22523
839.781	22371
839.918	22341
840.055	22390
840.193	22379
840.33	22318
840.467	22295
840.604	22367
840.742	22550
840.879	22131
841.016	22150
841.153	22169
841.29	22318
841.427	22299
841.564	22211
841.701	22280
841.838	22128
841.975	22215
842.112	22112
842.249	22272
842.385	22074
842.522	22181
842.659	22067
842.796	22002
842.933	22017
843.069	22055
843.206	22055
843.343	22013
843.479	22051
843.616	21934
843.752	21739
843.889	21812
844.025	21892
844.162	21770
844.298	21869
844.435	21690
844.571	21774
844.708	21778
844.844	21972
844.98	21899
845.117	21915
845.253	21812
845.389	21629
845.525	21603
845.661	21671
845.798	21492
845.934	21523
846.07	21633
846.206	21595
846.342	21736
846.478	21553
846.614	21378
846.75	21214
846.886	21256
847.022	21374
847.158	21237
847.294	21340
847.429	21317
847.565	21310
847.701	21526
847.837	20937
847.972	20967
848.108	21062
848.244	21142
848.379	20921
848.515	20762
848.65	20960
848.786	20880
848.921	20910
849.057	20925
849.192	20838
849.328	21024
849.463	20819
849.598	20796
849.734	20724
849.869	20701
850.004	20644
850.14	20731
850.275	20781
850.41	20552
850.545	20564
850.68	20549
850.815	20651
850.95	20663
851.085	20800
851.22	20670
851.355	20773
851.49	20659
851.625	20526
851.76	20758
851.895	20541
852.03	20621
852.165	20617
852.299	20602
852.434	20804
852.569	20735
852.703	20644
852.838	20583
852.973	20716
853.107	20705
853.242	20454
853.376	20488
853.511	20358
853.645	20488
853.78	20617
853.914	20667
854.048	20351
854.183	20457
854.317	20503
854.451	20644
854.585	20541
854.72	20454
854.854	20644
854.988	20480
855.122	20526
855.256	20298
855.39	20400
855.524	20503
855.658	20511
855.792	20473
855.926	20469
856.06	20568
856.194	20552
856.327	20499
856.461	20374
856.595	20434
856.729	20396
856.862	20522
856.996	20533
857.13	20518
857.263	20560
857.397	20469
857.53	20404
857.664	20503
857.797	20579
857.931	20583
858.064	20579
858.197	20415
858.331	20396
858.464	20454
858.597	20256
858.731	20431
858.864	20393
858.997	20431
859.13	20423
859.263	20374
859.396	20480
859.529	20377
859.662	20362
859.795	20469
859.928	20446
860.061	20552
860.194	20674
860.327	20560
860.46	20446
860.592	20613
860.725	20705
860.858	20511
860.99	20465
861.123	20355
861.256	20473
861.388	20419
861.521	21009
861.653	20206
861.786	20126
861.918	20240
862.05	20370
862.183	20412
862.315	20294
862.447	20499
862.58	20343
862.712	20202
862.844	20145
862.976	20298
863.108	20225
863.24	20632
863.372	20172
863.504	20039
863.636	20294
863.768	20100
863.9	20176
864.032	20050
864.164	20180
864.296	20237
864.428	20324
864.559	20301
864.691	20237
864.823	20180
864.954	20233
865.086	20107
865.217	20138
865.349	20115
865.48	20172
865.612	20012
865.743	20240
865.875	20096
866.006	19883
866.137	20077
866.269	20100
866.4	20058
866.531	20058
866.662	19967
866.793	20065
866.924	20065
867.055	20130
867.186	20062
867.317	19989
867.448	19921
867.579	19921
867.71	19963
867.841	19967
867.972	20088
868.103	20058
868.233	20054
868.364	20077
868.495	20111
868.625	20206
868.756	20408
868.886	20183
869.017	20389
869.147	20412
869.278	20415
869.408	20290
869.539	20225
869.669	20381
869.799	20237
869.929	20366
870.06	20343
870.19	20556
870.32	20492
870.45	20560
870.58	20667
870.71	20724
870.84	20712
870.97	20720
871.1	20674
871.23	20864
871.36	20868
871.489	20701
871.619	20743
871.749	20910
871.879	20815
872.008	21017
872.138	20929
872.267	20883
872.397	20823
872.526	20727
872.656	20663
872.785	20735
872.915	20792
873.044	20906
873.173	20921
873.303	20956
873.432	20929
873.561	20986
873.69	20937
873.819	20876
873.948	21032
874.077	20819
874.206	20842
874.335	20948
874.464	21039
874.593	21070
874.722	21020
874.851	21245
874.979	21245
875.108	21336
875.237	21203
875.365	21001
875.494	21233
875.623	21070
875.751	21142
875.88	21173
876.008	21340
876.136	21294
876.265	21606
876.393	21625
876.521	21538
876.65	21660
876.778	21553
876.906	21553
877.034	21583
877.162	21488
877.29	21397
877.418	21458
877.546	21572
877.674	21382
877.802	21507
877.93	21447
878.058	21439
878.185	21279
878.313	21374
878.441	21633
878.568	21233
878.696	21500
878.824	21496
878.951	21580
879.079	21652
879.206	21770
879.333	21686
879.461	21595
879.588	21538
879.715	21637
879.842	21804
879.97	21652
880.097	21344
880.224	21439
880.351	21283
880.478	21397
880.605	21374
880.732	21389
880.859	21576
880.986	21382
881.112	21310
881.239	21260
881.366	21066
881.493	20899
881.619	20834
881.746	21062
881.872	20895
881.999	20804
882.125	20842
882.252	20952
882.378	20902
882.505	21001
882.631	20769
882.757	20598
882.883	20708
883.01	20632
883.136	20629
883.262	20583
883.388	20393
883.514	20655
883.64	20644
883.766	20541
883.892	20434
884.018	20457
884.143	20678
884.269	20617
884.395	20343
884.52	20240
884.646	20381
884.772	20259
884.897	20172
885.023	20298
885.148	20389
885.274	20427
885.399	20396
885.524	20294
885.65	20180
885.775	20225
885.9	20134
886.025	20343
886.15	20259
886.275	20126
886.4	20210
886.525	20145
886.65	20259
886.775	20153
886.9	20412
887.025	20575
887.149	20244
887.274	20069
887.399	20058
887.523	20043
887.648	19967
887.773	20001
887.897	20119
888.021	20046
888.146	20035
888.27	20031
888.395	20134
888.519	19997
888.643	20016
888.767	20180
888.891	19993
889.015	19928
889.139	19974
889.263	19841
889.387	19868
889.511	20122
889.635	19989
889.759	19765
889.883	19837
890.006	19875
890.13	19993
890.254	19807
890.377	19780
890.501	19655
890.624	19556
890.748	19609
890.871	19556
890.995	19327
891.118	19358
891.241	19445
891.364	19491
891.488	19495
891.611	19460
891.734	19377
891.857	19544
891.98	19415
892.103	19502
892.226	19457
892.349	19365
892.471	19293
892.594	19369
892.717	19335
892.839	19308
892.962	19339
893.085	19521
893.207	19362
893.33	19217
893.452	19354
893.575	19460
893.697	19225
893.819	19411
893.941	19525
894.064	19419
894.186	19263
894.308	19304
894.43	19415
894.552	19518
894.674	19449
894.796	19259
894.918	19396
895.04	19263
895.161	19422
895.283	19381
895.405	19324
895.526	19350
895.648	19217
895.769	19403
895.891	19297
896.012	19460
896.134	19453
896.255	19422
896.376	19373
896.498	19350
896.619	19377
896.74	19495
896.861	19453
896.982	19685
897.103	19902
897.224	19662
897.345	19563
897.466	19571
897.587	19616
897.708	19685
897.828	19666
897.949	19411
898.07	19499
898.19	19487
898.311	19696
898.431	19552
898.552	19628
898.672	19624
898.792	19632
898.913	19529
899.033	19472
899.153	19460
899.273	19202
899.393	19415
899.513	19377
899.633	19274
899.753	19358
899.873	19324
899.993	19316
900.113	19282
900.232	19365
900.352	19289
900.472	19099
900.591	19069
900.711	19244
900.83	19141
900.95	19156
901.069	19255
901.189	18977
901.308	18909
901.427	18738
901.546	18798
901.665	18707
901.784	18738
901.904	18620
902.023	18528
902.141	18357
902.26	18338
902.379	18448
902.498	18270
902.617	18232
902.735	18388
902.854	18247
902.973	18194
903.091	17939
903.21	17885
903.328	17901
903.446	17931
903.565	17783
903.683	17756
903.801	17676
903.919	17657
904.038	17638
904.156	17467
904.274	17505
904.392	17543
904.51	17455
904.627	17497
904.745	17573
904.863	17619
904.981	17261
905.098	17170
905.216	17254
905.334	17273
905.451	17258
905.569	17048
905.686	17223
905.803	17178
905.921	16987
906.038	17083
906.155	17052
906.272	16889
906.389	16854
906.506	16755
906.623	16801
906.74	16729
906.857	16672
906.974	16721
907.091	16801
907.208	16908
907.324	16748
907.441	16588
907.557	16459
907.674	16512
907.79	16390
907.907	16493
908.023	16413
908.139	16550
908.256	16398
908.372	16379
908.488	16318
908.604	16226
908.72	16242
908.836	16211
908.952	16169
909.068	16257
909.184	16139
909.3	16032
909.415	16204
909.531	16131
909.647	15964
909.762	15873
909.878	15941
909.993	15937
910.108	15876
910.224	15888
910.339	15842
910.454	15827
910.57	15679
910.685	15671
910.8	15918
910.915	15808
911.03	15652
911.145	15599
911.259	15538
911.374	15564
911.489	15450
911.604	15401
911.718	15249
911.833	15344
911.947	15241
912.062	15146
912.176	15184
912.291	15332
912.405	15249
912.519	15447
912.633	15329
912.748	15306
912.862	15321
912.976	15097
913.09	14864
913.204	15043
913.318	15009
913.431	15260
913.545	15089
913.659	15176
913.772	15043
913.886	14944
914	14899
914.113	15028
914.226	15062
914.34	14990
914.453	14705
914.566	14895
914.68	14743
914.793	14815
914.906	14610
915.019	14526
915.132	14457
915.245	14514
915.358	14465
915.47	14526
915.583	14583
915.696	14613
915.809	14705
915.921	14571
916.034	14431
916.146	14404
916.259	14442
916.371	14488
916.483	14374
916.595	14347
916.708	14377
916.82	14336
916.932	14259
917.044	14358
917.156	14290
917.268	14218
917.38	14244
917.491	14126
917.603	14214
917.715	14282
917.826	14389
917.938	14225
918.049	14077
918.161	14183
918.272	14214
918.384	14267
918.495	14187
918.606	13906
918.717	13883
918.828	13913
918.939	13940
919.05	13864
919.161	13932
919.272	13753
919.383	13795
919.494	13928
919.604	14195
919.715	13978
919.826	13902
919.936	13864
920.047	14024
920.157	13890
920.267	14126
920.378	13833
920.488	14008
920.598	14119
920.708	14244
920.818	14088
920.928	14077
921.038	14202
921.148	14229
921.258	13852
921.368	13814
921.477	13681
921.587	13704
921.697	13609
921.806	13715
921.916	13548
922.025	13419
922.134	13369
922.244	13365
922.353	13392
922.462	13289
922.571	13213
922.68	13061
922.789	13042
922.898	13069
923.007	12878
923.116	12962
923.224	12996
923.333	12958
923.442	12825
923.55	12768
923.659	12905
923.767	12848
923.876	12749
923.984	12875
924.092	12749
924.201	12779
924.309	12722
924.417	12700
924.525	12696
924.633	12662
924.741	13571
924.849	12418
924.956	12589
925.064	12513
925.172	12448
925.279	12407
925.387	12483
925.494	12471
925.602	12517
925.709	12437
925.816	12346
925.924	12357
926.031	12483
926.138	12369
926.245	12441
926.352	12304
926.459	12509
926.566	12506
926.673	12292
926.779	12270
926.886	12194
926.993	12068
927.099	12007
927.206	11950
927.312	11961
927.419	12060
927.525	11969
927.631	12091
927.737	12041
927.843	11878
927.95	11748
928.056	11920
928.162	11882
928.267	11863
928.373	12448
928.479	11878
928.585	11676
928.69	11859
928.796	11882
928.901	11764
929.007	11566
929.112	11760
929.218	11672
929.323	11543
929.428	11558
929.533	11699
929.638	11528
929.743	11551
929.848	11649
929.953	11539
930.058	11433
930.163	11280
930.267	11311
930.372	11448
930.477	11208
930.581	11448
930.685	11353
930.79	11147
930.894	11185
930.998	11162
931.103	11265
931.207	10873
931.311	10805
931.415	10733
931.519	10542
931.623	10561
