Data from test_V78500241_3325.txt Node
Date: Fri Mar 25 15:33:00 CST 2022
User: usil
Spectrometer: V785-0024
Trigger mode: 0
Integration Time (sec): 4.000000E-1
Scans to average: 1
Nonlinearity correction enabled: false
Boxcar width: 0
Storing dark spectrum: false
XAxis mode: Wavelengths
Number of Pixels in Spectrum: 1024
>>>>>Begin Spectral Data<<<<<
801.071	27412
801.214	27184
801.356	26975
801.499	26929
801.641	26777
801.783	26902
801.926	26910
802.068	26838
802.211	26705
802.353	26708
802.496	26587
802.638	26465
802.78	26442
802.923	26370
803.065	26385
803.208	26309
803.35	26393
803.492	26651
803.635	26708
803.777	26541
803.919	26606
804.061	26910
804.204	26708
804.346	26644
804.488	26465
804.63	26648
804.773	26507
804.915	26674
805.057	26602
805.199	26549
805.341	26564
805.483	26682
805.626	26712
805.768	26667
805.91	26701
806.052	26689
806.194	26648
806.336	26963
806.478	26785
806.62	26765
806.762	26739
806.904	26986
807.046	27249
807.188	27188
807.33	27252
807.472	27157
807.614	27028
807.756	27116
807.898	27032
808.04	26853
808.182	26944
808.324	27032
808.465	27005
808.607	27093
808.749	27344
808.891	27344
809.033	27587
809.174	27382
809.316	27291
809.458	27370
809.6	27279
809.741	27443
809.883	27439
810.025	27610
810.166	27625
810.308	27599
810.45	27553
810.591	27564
810.733	27363
810.875	27306
811.016	27184
811.158	27306
811.299	27412
811.441	27485
811.582	27466
811.724	27192
811.865	27397
812.007	27252
812.148	27351
812.29	27412
812.431	27443
812.573	27698
812.714	27610
812.855	27789
812.997	27846
813.138	28086
813.279	27857
813.421	27778
813.562	27800
813.703	27652
813.845	27542
813.986	27188
814.127	27070
814.268	27032
814.41	27047
814.551	26937
814.692	27024
814.833	26811
814.974	26948
815.115	26921
815.256	26758
815.397	26906
815.539	26910
815.68	26807
815.821	26609
815.962	26800
816.103	26773
816.244	26594
816.385	26629
816.526	26564
816.666	26252
816.807	26278
816.948	26229
817.089	26522
817.23	26271
817.371	26161
817.512	26240
817.653	26092
817.793	26119
817.934	26252
818.075	26294
818.216	26324
818.356	26309
818.497	26172
818.638	26073
818.778	26043
818.919	26039
819.06	25993
819.2	26157
819.341	26244
819.481	26263
819.622	26533
819.762	26530
819.903	26358
820.043	26549
820.184	26263
820.324	26446
820.465	26400
820.605	26355
820.746	26225
820.886	26256
821.026	26290
821.167	26294
821.307	26473
821.447	26305
821.588	26237
821.728	26088
821.868	25947
822.008	25708
822.149	25727
822.289	25734
822.429	25483
822.569	25468
822.709	25499
822.849	25240
822.99	25217
823.13	25354
823.27	25259
823.41	24985
823.55	24924
823.69	25004
823.83	25050
823.97	24973
824.11	24760
824.25	24863
824.389	24848
824.529	24905
824.669	24852
824.809	24947
824.949	24981
825.089	24947
825.228	24886
825.368	24677
825.508	24798
825.648	24783
825.787	24779
825.927	24711
826.067	24700
826.206	24726
826.346	24848
826.485	24741
826.625	24882
826.765	24837
826.904	24806
827.044	24555
827.183	24380
827.323	24483
827.462	24471
827.601	24441
827.741	24437
827.88	24429
828.02	24346
828.159	24403
828.298	24513
828.437	24490
828.577	24437
828.716	24578
828.855	24464
828.994	24098
829.134	24125
829.273	24159
829.412	24216
829.551	24232
829.69	24045
829.829	24205
829.968	24342
830.107	24220
830.246	24197
830.385	24034
830.524	23946
830.663	24091
830.802	23988
830.941	23889
831.08	23680
831.219	23809
831.357	23790
831.496	24068
831.635	23843
831.774	23623
831.913	23634
832.051	23623
832.19	23417
832.329	23554
832.467	23474
832.606	23406
832.744	23402
832.883	23493
833.022	23364
833.16	23421
833.299	23505
833.437	23493
833.576	23516
833.714	23600
833.852	23604
833.991	23501
834.129	23657
834.267	23649
834.406	23444
834.544	23433
834.682	23452
834.821	23433
834.959	23661
835.097	23417
835.235	23707
835.373	23478
835.511	23604
835.65	23379
835.788	23372
835.926	23204
836.064	23280
836.202	23235
836.34	23315
836.478	23452
836.615	23360
836.753	23440
836.891	23535
837.029	23501
837.167	23376
837.305	23330
837.443	23318
837.58	23204
837.718	23235
837.856	23155
837.993	23181
838.131	23235
838.269	23018
838.406	23216
838.544	23033
838.681	22930
838.819	22740
838.956	22733
839.094	22607
839.231	22740
839.369	22946
839.506	23090
839.643	22965
839.781	22774
839.918	22550
840.055	22622
840.193	22653
840.33	22675
840.467	22519
840.604	22725
840.742	22911
840.879	22489
841.016	22573
841.153	22474
841.29	22615
841.427	22611
841.564	22573
841.701	22428
841.838	22611
841.975	22569
842.112	22557
842.249	22497
842.385	22417
842.522	22584
842.659	22424
842.796	22402
842.933	22424
843.069	22257
843.206	22280
843.343	22325
843.479	22333
843.616	22367
843.752	22135
843.889	22257
844.025	22211
844.162	22143
844.298	22284
844.435	22177
844.571	22147
844.708	22253
844.844	22299
844.98	22226
845.117	22352
845.253	22067
845.389	22032
845.525	22082
845.661	21991
845.798	21835
845.934	21876
846.07	21956
846.206	22036
846.342	21964
846.478	21899
846.614	21800
846.75	21705
846.886	21644
847.022	21686
847.158	21633
847.294	21717
847.429	21770
847.565	21724
847.701	21857
847.837	21344
847.972	21287
848.108	21420
848.244	21348
848.379	21306
848.515	21272
848.65	21116
848.786	21378
848.921	21226
849.057	21298
849.192	21214
849.328	21230
849.463	21226
849.598	21036
849.734	21108
849.869	20986
850.004	20967
850.14	21058
850.275	21096
850.41	20834
850.545	20982
850.68	20963
850.815	20857
850.95	20857
851.085	21192
851.22	21081
851.355	20921
851.49	21043
851.625	20990
851.76	21142
851.895	20971
852.03	21024
852.165	21036
852.299	21100
852.434	21062
852.569	21047
852.703	20944
852.838	21024
852.973	21127
853.107	21074
853.242	20883
853.376	20868
853.511	20750
853.645	20918
853.78	20929
853.914	20902
854.048	20819
854.183	20876
854.317	20769
854.451	21043
854.585	20819
854.72	20777
854.854	20975
854.988	20712
855.122	20777
855.256	20682
855.39	20830
855.524	20845
855.658	20838
855.792	20625
855.926	20823
856.06	20857
856.194	20948
856.327	20716
856.461	20750
856.595	20762
856.729	20667
856.862	20979
856.996	20880
857.13	20899
857.263	20804
857.397	20876
857.53	20956
857.664	20849
857.797	20963
857.931	20918
858.064	20826
858.197	20971
858.331	20769
858.464	20842
858.597	20731
858.731	20712
858.864	20830
858.997	20716
859.13	20830
859.263	20925
859.396	20868
859.529	20758
859.662	20705
859.795	20819
859.928	20830
860.061	21074
860.194	21028
860.327	20845
860.46	20921
860.592	20815
860.725	20952
860.858	20918
860.99	20902
861.123	20758
861.256	20686
861.388	20849
861.521	21367
861.653	20655
861.786	20598
861.918	20648
862.05	20655
862.183	20712
862.315	20762
862.447	20777
862.58	20743
862.712	20575
862.844	20537
862.976	20613
863.108	20648
863.24	21104
863.372	20488
863.504	20545
863.636	20461
863.768	20648
863.9	20545
864.032	20495
864.164	20526
864.296	20549
864.428	20644
864.559	20571
864.691	20568
864.823	20594
864.954	20385
865.086	20537
865.217	20446
865.349	20328
865.48	20457
865.612	20518
865.743	20415
865.875	20530
866.006	20488
866.137	20495
866.269	20320
866.4	20324
866.531	20355
866.662	20366
866.793	20336
866.924	20351
867.055	20503
867.186	20408
867.317	20324
867.448	20259
867.579	20267
867.71	20320
867.841	20328
867.972	20412
868.103	20286
868.233	20317
868.364	20434
868.495	20476
868.625	20594
868.756	20705
868.886	20552
869.017	20636
869.147	20648
869.278	20720
869.408	20678
869.539	20613
869.669	20701
869.799	20689
869.929	20804
870.06	20743
870.19	20906
870.32	20956
870.45	20857
870.58	20986
870.71	21081
870.84	21127
870.97	20982
871.1	20979
871.23	21222
871.36	21116
871.489	21230
871.619	21116
871.749	21291
871.879	21317
872.008	21249
872.138	21272
872.267	21169
872.397	21081
872.526	21161
872.656	21119
872.785	21096
872.915	21226
873.044	21154
873.173	21294
873.303	21245
873.432	21298
873.561	21256
873.69	21287
873.819	21199
873.948	21389
874.077	21313
874.206	21176
874.335	21268
874.464	21340
874.593	21469
874.722	21454
874.851	21504
874.979	21424
875.108	21492
875.237	21386
875.365	21542
875.494	21485
875.623	21591
875.751	21325
875.88	21496
876.008	21656
876.136	21698
876.265	21842
876.393	22067
876.521	22010
876.65	22029
876.778	21865
876.906	21895
877.034	21808
877.162	21884
877.29	21785
877.418	21922
877.546	21895
877.674	21793
877.802	21709
877.93	21964
878.058	21854
878.185	21682
878.313	21690
878.441	21819
878.568	21732
878.696	21660
878.824	21930
878.951	21964
879.079	21975
879.206	22143
879.333	22105
879.461	21903
879.588	22105
879.715	21968
879.842	22139
879.97	21922
880.097	21774
880.224	21789
880.351	21713
880.478	21819
880.605	21538
880.732	21591
880.859	22021
880.986	21595
881.112	21728
881.239	21603
881.366	21428
881.493	21355
881.619	21325
881.746	21310
881.872	21245
881.999	21222
882.125	21173
882.252	21279
882.378	21408
882.505	21306
882.631	21169
882.757	20910
882.883	21047
883.01	20891
883.136	20845
883.262	20853
883.388	20819
883.514	20998
883.64	20960
883.766	20906
883.892	20708
884.018	20765
884.143	20902
884.269	21036
884.395	20746
884.52	20518
884.646	20727
884.772	20507
884.897	20446
885.023	20587
885.148	20735
885.274	20777
885.399	20617
885.524	20571
885.65	20621
885.775	20651
885.9	20556
886.025	20568
886.15	20724
886.275	20442
886.4	20480
886.525	20556
886.65	20374
886.775	20473
886.9	20686
887.025	20651
887.149	20571
887.274	20434
887.399	20499
887.523	20396
887.648	20366
887.773	20286
887.897	20476
888.021	20400
888.146	20259
888.27	20518
888.395	20446
888.519	20400
888.643	20476
888.767	20541
888.891	20259
889.015	20229
889.139	20343
889.263	20153
889.387	20168
889.511	20400
889.635	20282
889.759	20164
889.883	20119
890.006	20122
890.13	20301
890.254	20031
890.377	20058
890.501	19887
890.624	19894
890.748	19868
890.871	19791
890.995	19689
891.118	19715
891.241	19795
891.364	19822
891.488	19818
891.611	19769
891.734	19761
891.857	19719
891.98	19727
892.103	19715
892.226	19677
892.349	19529
892.471	19613
892.594	19635
892.717	19677
892.839	19723
892.962	19635
893.085	19715
893.207	19620
893.33	19499
893.452	19578
893.575	19795
893.697	19632
893.819	19864
893.941	19890
894.064	19833
894.186	19639
894.308	19696
894.43	19776
894.552	19818
894.674	19708
894.796	19746
894.918	19700
895.04	19742
895.161	19811
895.283	19776
895.405	19742
895.526	19647
895.648	19738
895.769	19712
895.891	19856
896.012	19772
896.134	19689
896.255	19723
896.376	19765
896.498	19723
896.619	19738
896.74	19666
896.861	19753
896.982	20126
897.103	20180
897.224	20008
897.345	19894
897.466	19928
897.587	20016
897.708	20005
897.828	20008
897.949	19856
898.07	19734
898.19	19894
898.311	20039
898.431	19879
898.552	19944
898.672	20111
898.792	20024
898.913	19978
899.033	19849
899.153	19658
899.273	19696
899.393	19746
899.513	19864
899.633	19662
899.753	19666
899.873	19559
899.993	19647
900.113	19647
900.232	19559
900.352	19635
900.472	19483
900.591	19365
900.711	19449
900.83	19365
900.95	19533
901.069	19514
901.189	19324
901.308	19065
901.427	18993
901.546	19015
901.665	18905
901.784	19122
901.904	18970
902.023	18989
902.141	18608
902.26	18597
902.379	18642
902.498	18540
902.617	18464
902.735	18692
902.854	18528
902.973	18429
903.091	18171
903.21	18114
903.328	18262
903.446	18155
903.565	18060
903.683	18087
903.801	17889
903.919	18038
904.038	18003
904.156	17882
904.274	17893
904.392	17790
904.51	17695
904.627	17893
904.745	17984
904.863	17798
904.981	17661
905.098	17463
905.216	17615
905.334	17532
905.451	17554
905.569	17459
905.686	17493
905.803	17505
905.921	17299
906.038	17455
906.155	17402
906.272	17242
906.389	17277
906.506	17045
906.623	16984
906.74	17006
906.857	16847
906.974	17048
907.091	16995
907.208	17041
907.324	17094
907.441	16942
907.557	16839
907.674	16721
907.79	16706
907.907	16694
908.023	16782
908.139	16733
908.256	16656
908.372	16710
908.488	16504
908.604	16493
908.72	16512
908.836	16527
908.952	16478
909.068	16512
909.184	16687
909.3	16474
909.415	16447
909.531	16405
909.647	16268
909.762	16246
909.878	16131
909.993	16200
910.108	16139
910.224	16105
910.339	16207
910.454	16120
910.57	15991
910.685	15983
910.8	16173
910.915	16017
911.03	16071
911.145	15770
911.259	15835
911.374	15736
911.489	15751
911.604	15709
911.718	15485
911.833	15515
911.947	15443
912.062	15450
912.176	15584
912.291	15515
912.405	15614
912.519	15812
912.633	15709
912.748	15443
912.862	15511
912.976	15435
913.09	15321
913.204	15310
913.318	15298
913.431	15424
913.545	15439
913.659	15523
913.772	15329
913.886	15256
914	15268
914.113	15340
914.226	15184
914.34	15218
914.453	15036
914.566	15192
914.68	15081
914.793	14994
914.906	14849
915.019	14762
915.132	14701
915.245	14727
915.358	14804
915.47	14701
915.583	14895
915.696	14819
915.809	14834
915.921	14804
916.034	14800
916.146	14686
916.259	14727
916.371	14727
916.483	14785
916.595	14583
916.708	14636
916.82	14617
916.932	14632
917.044	14522
917.156	14469
917.268	14476
917.38	14514
917.491	14408
917.603	14469
917.715	14587
917.826	14518
917.938	14370
918.049	14332
918.161	14454
918.272	14511
918.384	14575
918.495	14389
918.606	14320
918.717	14115
918.828	14374
918.939	14294
919.05	14123
919.161	14119
919.272	13978
919.383	14096
919.494	14210
919.604	14370
919.715	14195
919.826	14149
919.936	14111
920.047	14305
920.157	14278
920.267	14336
920.378	14161
920.488	14187
920.598	14336
920.708	14431
920.818	14256
920.928	14324
921.038	14434
921.148	14450
921.258	14187
921.368	14187
921.477	13970
921.587	13845
921.697	13791
921.806	13951
921.916	13750
922.025	13609
922.134	13628
922.244	13457
922.353	13590
922.462	13491
922.571	13457
922.68	13266
922.789	13228
922.898	13282
923.007	13183
923.116	13206
923.224	13179
923.333	13171
923.442	13065
923.55	13008
923.659	13091
923.767	13072
923.876	12985
923.984	13080
924.092	12958
924.201	12947
924.309	13031
924.417	13023
924.525	12837
924.633	13004
924.741	13818
924.849	12700
924.956	12848
925.064	12665
925.172	12639
925.279	12642
925.387	12783
925.494	12631
925.602	12840
925.709	12677
925.816	12521
925.924	12551
926.031	12734
926.138	12566
926.245	12620
926.352	12528
926.459	12684
926.566	12616
926.673	12578
926.779	12471
926.886	12448
926.993	12292
927.099	12319
927.206	12144
927.312	12251
927.419	12262
927.525	12281
927.631	12247
927.737	12125
927.843	12076
927.95	11988
928.056	12091
928.162	12053
928.267	12087
928.373	12627
928.479	12194
928.585	11961
928.69	12038
928.796	11996
928.901	11824
929.007	11726
929.112	11904
929.218	11855
929.323	11851
929.428	11847
929.533	12015
929.638	11676
929.743	11714
929.848	11779
929.953	11767
930.058	11672
930.163	11455
930.267	11520
930.372	11596
930.477	11448
930.581	11653
930.685	11562
930.79	11379
930.894	11463
930.998	11330
931.103	11471
931.207	11147
931.311	11067
931.415	11029
931.519	10759
931.623	10736
