Data from test_V78500241_2498.txt Node
Date: Fri Mar 25 15:27:15 CST 2022
User: usil
Spectrometer: V785-0024
Trigger mode: 0
Integration Time (sec): 4.000000E-1
Scans to average: 1
Nonlinearity correction enabled: false
Boxcar width: 0
Storing dark spectrum: false
XAxis mode: Wavelengths
Number of Pixels in Spectrum: 1024
>>>>>Begin Spectral Data<<<<<
801.071	27298
801.214	27184
801.356	27013
801.499	26925
801.641	26606
801.783	26678
801.926	26754
802.068	26834
802.211	26807
802.353	26621
802.496	26389
802.638	26358
802.78	26332
802.923	26320
803.065	26278
803.208	26259
803.35	26415
803.492	26412
803.635	26564
803.777	26457
803.919	26545
804.061	26861
804.204	26632
804.346	26473
804.488	26320
804.63	26465
804.773	26412
804.915	26453
805.057	26621
805.199	26495
805.341	26590
805.483	26701
805.626	26609
805.768	26492
805.91	26716
806.052	26682
806.194	26594
806.336	26762
806.478	26625
806.62	26682
806.762	26830
806.904	26880
807.046	27169
807.188	26929
807.33	26948
807.472	27138
807.614	27032
807.756	27001
807.898	26819
808.04	26895
808.182	26811
808.324	26880
808.465	26929
808.607	27180
808.749	27203
808.891	27344
809.033	27367
809.174	27154
809.316	26971
809.458	27256
809.6	27237
809.741	27306
809.883	27260
810.025	27587
810.166	27538
810.308	27450
810.45	27564
810.591	27469
810.733	27161
810.875	27245
811.016	26952
811.158	27165
811.299	27226
811.441	27416
811.582	27420
811.724	27184
811.865	27245
812.007	27036
812.148	27093
812.29	27192
812.431	27397
812.573	27485
812.714	27812
812.855	27610
812.997	27838
813.138	27941
813.279	27930
813.421	27759
813.562	27732
813.703	27431
813.845	27363
813.986	26975
814.127	26910
814.268	26899
814.41	27058
814.551	26845
814.692	26994
814.833	26727
814.974	26804
815.115	26834
815.256	26682
815.397	26712
815.539	26788
815.68	26712
815.821	26549
815.962	26651
816.103	26743
816.244	26480
816.385	26545
816.526	26400
816.666	26271
816.807	26062
816.948	26168
817.089	26275
817.23	26168
817.371	26062
817.512	26073
817.653	26069
817.793	26119
817.934	26168
818.075	26206
818.216	26309
818.356	26046
818.497	26043
818.638	25883
818.778	25818
818.919	25830
819.06	25883
819.2	25947
819.341	26244
819.481	26062
819.622	26199
819.762	26476
819.903	26393
820.043	26427
820.184	26233
820.324	26202
820.465	26313
820.605	26180
820.746	26233
820.886	26073
821.026	26172
821.167	26157
821.307	26233
821.447	26058
821.588	25925
821.728	25944
821.868	25799
822.008	25689
822.149	25582
822.289	25502
822.429	25331
822.569	25209
822.709	25301
822.849	25114
822.99	25137
823.13	25076
823.27	25072
823.41	24970
823.55	24935
823.69	24943
823.83	24924
823.97	24783
824.11	24837
824.25	24783
824.389	24677
824.529	24806
824.669	24684
824.809	24783
824.949	24833
825.089	24924
825.228	24783
825.368	24525
825.508	24623
825.648	24574
825.787	24604
825.927	24673
826.067	24563
826.206	24593
826.346	24711
826.485	24753
826.625	24631
826.765	24665
826.904	24665
827.044	24513
827.183	24414
827.323	24213
827.462	24509
827.601	24270
827.741	24361
827.88	24460
828.02	24281
828.159	24323
828.298	24308
828.437	24517
828.577	24372
828.716	24311
828.855	24266
828.994	24133
829.134	24083
829.273	24129
829.412	24091
829.551	24087
829.69	24110
829.829	24015
829.968	24117
830.107	24015
830.246	24060
830.385	23980
830.524	23946
830.663	23927
830.802	23733
830.941	23630
831.08	23649
831.219	23771
831.357	23828
831.496	23901
831.635	23684
831.774	23501
831.913	23463
832.051	23391
832.19	23474
832.329	23429
832.467	23315
832.606	23239
832.744	23349
832.883	23330
833.022	23364
833.16	23277
833.299	23349
833.437	23280
833.576	23497
833.714	23296
833.852	23402
833.991	23436
834.129	23429
834.267	23535
834.406	23444
834.544	23482
834.682	23410
834.821	23444
834.959	23512
835.097	23421
835.235	23440
835.373	23440
835.511	23364
835.65	23246
835.788	23265
835.926	23090
836.064	23056
836.202	23132
836.34	23208
836.478	23280
836.615	23231
836.753	23292
836.891	23277
837.029	23239
837.167	23170
837.305	23079
837.443	23170
837.58	23113
837.718	23261
837.856	23105
837.993	23048
838.131	23033
838.269	23064
838.406	22968
838.544	22934
838.681	22793
838.819	22767
838.956	22588
839.094	22546
839.231	22634
839.369	22790
839.506	22961
839.643	22862
839.781	22664
839.918	22599
840.055	22481
840.193	22584
840.33	22481
840.467	22531
840.604	22565
840.742	22953
840.879	22459
841.016	22485
841.153	22443
841.29	22607
841.427	22531
841.564	22618
841.701	22474
841.838	22409
841.975	22398
842.112	22626
842.249	22333
842.385	22371
842.522	22561
842.659	22508
842.796	22386
842.933	22303
843.069	22280
843.206	22303
843.343	22344
843.479	22192
843.616	22246
843.752	22147
843.889	22067
844.025	22242
844.162	22017
844.298	22158
844.435	22048
844.571	22040
844.708	22185
844.844	22162
844.98	22196
845.117	22150
845.253	22032
845.389	21991
845.525	22025
845.661	21941
845.798	21865
845.934	21953
846.07	21660
846.206	21861
846.342	21987
846.478	21812
846.614	21534
846.75	21507
846.886	21469
847.022	21633
847.158	21595
847.294	21466
847.429	21564
847.565	21424
847.701	21724
847.837	21211
847.972	21275
848.108	21378
848.244	21389
848.379	21157
848.515	21169
848.65	21135
848.786	21089
848.921	21184
849.057	21207
849.192	21237
849.328	21150
849.463	21081
849.598	21154
849.734	21081
849.869	20941
850.004	20906
850.14	21020
850.275	20785
850.41	20921
850.545	20929
850.68	20849
850.815	20788
850.95	20887
851.085	21089
851.22	20941
851.355	20929
851.49	20845
851.625	20891
851.76	20941
851.895	20807
852.03	20975
852.165	20948
852.299	21024
852.434	21093
852.569	20864
852.703	20929
852.838	20986
852.973	21036
853.107	21100
853.242	20834
853.376	20682
853.511	20473
853.645	20746
853.78	20868
853.914	20769
854.048	20552
854.183	20659
854.317	20823
854.451	20880
854.585	20708
854.72	20727
854.854	20792
854.988	20549
855.122	20731
855.256	20629
855.39	20739
855.524	20807
855.658	20735
855.792	20674
855.926	20727
856.06	20743
856.194	20845
856.327	20712
856.461	20659
856.595	20750
856.729	20579
856.862	20788
856.996	20758
857.13	20727
857.263	20739
857.397	20758
857.53	20678
857.664	20705
857.797	20838
857.931	20743
858.064	20693
858.197	20910
858.331	20731
858.464	20663
858.597	20663
858.731	20670
858.864	20689
858.997	20568
859.13	20735
859.263	20659
859.396	20686
859.529	20598
859.662	20705
859.795	20659
859.928	20697
860.061	20902
860.194	20777
860.327	20773
860.46	20708
860.592	20823
860.725	20708
860.858	20834
860.99	20781
861.123	20705
861.256	20636
861.388	20712
861.521	21283
861.653	20594
861.786	20594
861.918	20629
862.05	20560
862.183	20689
862.315	20651
862.447	20724
862.58	20743
862.712	20571
862.844	20454
862.976	20514
863.108	20503
863.24	20967
863.372	20404
863.504	20434
863.636	20404
863.768	20427
863.9	20507
864.032	20294
864.164	20404
864.296	20480
864.428	20480
864.559	20484
864.691	20431
864.823	20457
864.954	20473
865.086	20454
865.217	20355
865.349	20324
865.48	20339
865.612	20343
865.743	20480
865.875	20343
866.006	20294
866.137	20400
866.269	20381
866.4	20275
866.531	20221
866.662	20305
866.793	20275
866.924	20275
867.055	20324
867.186	20282
867.317	20275
867.448	20271
867.579	20336
867.71	20214
867.841	20240
867.972	20324
868.103	20210
868.233	20290
868.364	20267
868.495	20362
868.625	20560
868.756	20602
868.886	20450
869.017	20621
869.147	20507
869.278	20575
869.408	20492
869.539	20511
869.669	20606
869.799	20632
869.929	20575
870.06	20522
870.19	20762
870.32	20765
870.45	20800
870.58	20963
870.71	21085
870.84	20952
870.97	20876
871.1	20937
871.23	21207
871.36	21112
871.489	21036
871.619	21096
871.749	21138
871.879	21150
872.008	21245
872.138	21176
872.267	21112
872.397	20998
872.526	20910
872.656	21020
872.785	20990
872.915	21214
873.044	21199
873.173	21264
873.303	21195
873.432	21173
873.561	21325
873.69	21199
873.819	21173
873.948	21306
874.077	21135
874.206	21081
874.335	21211
874.464	21310
874.593	21393
874.722	21214
874.851	21416
874.979	21302
875.108	21363
875.237	21287
875.365	21272
875.494	21397
875.623	21424
875.751	21325
875.88	21351
876.008	21473
876.136	21485
876.265	21694
876.393	21895
876.521	21819
876.65	21854
876.778	21770
876.906	21793
877.034	21633
877.162	21751
877.29	21667
877.418	21812
877.546	21778
877.674	21789
877.802	21793
877.93	21781
878.058	21660
878.185	21564
878.313	21709
878.441	21663
878.568	21572
878.696	21686
878.824	21793
878.951	21778
879.079	21945
879.206	22048
879.333	21846
879.461	21778
879.588	21800
879.715	21838
879.842	21987
879.97	21861
880.097	21542
880.224	21549
880.351	21633
880.478	21652
880.605	21542
880.732	21587
880.859	21793
880.986	21511
881.112	21599
881.239	21507
881.366	21268
881.493	21252
881.619	21074
881.746	21260
881.872	21199
881.999	21222
882.125	21119
882.252	21180
882.378	21108
882.505	21131
882.631	20921
882.757	20876
882.883	20845
883.01	20872
883.136	20967
883.262	20640
883.388	20773
883.514	20754
883.64	20872
883.766	20796
883.892	20663
884.018	20644
884.143	20697
884.269	20944
884.395	20590
884.52	20495
884.646	20514
884.772	20526
884.897	20465
885.023	20552
885.148	20495
885.274	20659
885.399	20632
885.524	20404
885.65	20541
885.775	20469
885.9	20469
886.025	20644
886.15	20590
886.275	20495
886.4	20419
886.525	20412
886.65	20362
886.775	20419
886.9	20522
887.025	20625
887.149	20438
887.274	20309
887.399	20214
887.523	20294
887.648	20206
887.773	20206
887.897	20233
888.021	20301
888.146	20233
888.27	20298
888.395	20530
888.519	20396
888.643	20370
888.767	20408
888.891	20119
889.015	20058
889.139	20046
889.263	20046
889.387	20122
889.511	20172
889.635	20088
889.759	20073
889.883	20058
890.006	20050
890.13	20195
890.254	19921
890.377	20069
890.501	19788
890.624	19814
890.748	19989
890.871	19826
890.995	19757
891.118	19575
891.241	19651
891.364	19681
891.488	19693
891.611	19647
891.734	19624
891.857	19719
891.98	19788
892.103	19639
892.226	19628
892.349	19616
892.471	19487
892.594	19586
892.717	19655
892.839	19548
892.962	19594
893.085	19635
893.207	19605
893.33	19373
893.452	19403
893.575	19666
893.697	19609
893.819	19708
893.941	19746
894.064	19765
894.186	19518
894.308	19472
894.43	19563
894.552	19746
894.674	19658
894.796	19464
894.918	19586
895.04	19548
895.161	19582
895.283	19666
895.405	19552
895.526	19696
895.648	19537
895.769	19639
895.891	19624
896.012	19647
896.134	19575
896.255	19529
896.376	19586
896.498	19578
896.619	19647
896.74	19601
896.861	19586
896.982	19890
897.103	20092
897.224	19860
897.345	19875
897.466	19734
897.587	19750
897.708	19963
897.828	19856
897.949	19738
898.07	19613
898.19	19753
898.311	19860
898.431	19757
898.552	19780
898.672	19982
898.792	19837
898.913	19814
899.033	19742
899.153	19624
899.273	19476
899.393	19578
899.513	19586
899.633	19613
899.753	19647
899.873	19483
899.993	19635
900.113	19449
900.232	19525
900.352	19392
900.472	19266
900.591	19255
900.711	19384
900.83	19316
900.95	19365
901.069	19312
901.189	19331
901.308	18993
901.427	18852
901.546	18951
901.665	18848
901.784	18993
901.904	18833
902.023	18684
902.141	18536
902.26	18479
902.379	18498
902.498	18570
902.617	18551
902.735	18330
902.854	18517
902.973	18353
903.091	18270
903.21	18155
903.328	18144
903.446	18129
903.565	17992
903.683	17939
903.801	17821
903.919	17866
904.038	17821
904.156	17718
904.274	17752
904.392	17741
904.51	17707
904.627	17665
904.745	17661
904.863	17748
904.981	17516
905.098	17303
905.216	17398
905.334	17444
905.451	17433
905.569	17360
905.686	17398
905.803	17296
905.921	17124
906.038	17334
906.155	17140
906.272	17041
906.389	17128
906.506	16839
906.623	16938
906.74	16896
906.857	16801
906.974	16839
907.091	16957
907.208	17037
907.324	16919
907.441	16793
907.557	16611
907.674	16641
907.79	16641
907.907	16584
908.023	16645
908.139	16759
908.256	16535
908.372	16542
908.488	16512
908.604	16447
908.72	16390
908.836	16405
908.952	16276
909.068	16432
909.184	16455
909.3	16356
909.415	16371
909.531	16424
909.647	16223
909.762	16044
909.878	16086
909.993	16128
910.108	15983
910.224	15941
910.339	16044
910.454	15915
910.57	15922
910.685	15888
910.8	16154
910.915	16101
911.03	15823
911.145	15679
911.259	15614
911.374	15732
911.489	15549
911.604	15701
911.718	15481
911.833	15504
911.947	15458
912.062	15287
912.176	15443
912.291	15523
912.405	15469
912.519	15561
912.633	15675
912.748	15466
912.862	15431
912.976	15211
913.09	15104
913.204	15165
913.318	15306
913.431	15275
913.545	15351
913.659	15355
913.772	15272
913.886	15112
914	15032
914.113	15192
914.226	15165
914.34	15127
914.453	14948
914.566	15001
914.68	14979
914.793	14861
914.906	14842
915.019	14625
915.132	14617
915.245	14758
915.358	14693
915.47	14610
915.583	14689
915.696	14674
915.809	14773
915.921	14823
916.034	14575
916.146	14503
916.259	14613
916.371	14724
916.483	14659
916.595	14522
916.708	14571
916.82	14568
916.932	14492
917.044	14522
917.156	14438
917.268	14347
917.38	14355
917.491	14263
917.603	14324
917.715	14374
917.826	14423
917.938	14244
918.049	14229
918.161	14278
918.272	14446
918.384	14438
918.495	14282
918.606	14176
918.717	14077
918.828	14145
918.939	14183
919.05	14039
919.161	14024
919.272	13932
919.383	13993
919.494	14183
919.604	14290
919.715	14065
919.826	13967
919.936	14077
920.047	14183
920.157	14005
920.267	14275
920.378	14164
920.488	14069
920.598	14366
920.708	14332
920.818	14168
920.928	14244
921.038	14404
921.148	14377
921.258	14092
921.368	13974
921.477	13864
921.587	13849
921.697	13597
921.806	13765
921.916	13769
922.025	13537
922.134	13537
922.244	13491
922.353	13620
922.462	13476
922.571	13354
922.68	13175
922.789	13168
922.898	13110
923.007	13088
923.116	13232
923.224	13122
923.333	13122
923.442	12989
923.55	12966
923.659	12958
923.767	13038
923.876	12939
923.984	12996
924.092	12882
924.201	12924
924.309	12905
924.417	12909
924.525	12833
924.633	12875
924.741	13841
924.849	12616
924.956	12688
925.064	12620
925.172	12506
925.279	12604
925.387	12582
925.494	12517
925.602	12703
925.709	12616
925.816	12464
925.924	12559
926.031	12578
926.138	12479
926.245	12563
926.352	12467
926.459	12532
926.566	12479
926.673	12479
926.779	12270
926.886	12384
926.993	12216
927.099	12182
927.206	12095
927.312	12083
927.419	12163
927.525	12182
927.631	12209
927.737	12030
927.843	12030
927.95	11931
928.056	11961
928.162	11916
928.267	12015
928.373	12662
928.479	12057
928.585	11878
928.69	11935
928.796	11984
928.901	11843
929.007	11710
929.112	11832
929.218	11760
929.323	11794
929.428	11668
929.533	11798
929.638	11638
929.743	11695
929.848	11737
929.953	11535
930.058	11539
930.163	11410
930.267	11467
930.372	11551
930.477	11417
930.581	11661
930.685	11452
930.79	11201
930.894	11322
930.998	11258
931.103	11391
931.207	11094
931.311	11006
931.415	10927
931.519	10717
931.623	10649
