Data from test_V78500241_635.txt Node
Date: Fri Mar 25 15:14:16 CST 2022
User: usil
Spectrometer: V785-0024
Trigger mode: 0
Integration Time (sec): 4.000000E-1
Scans to average: 1
Nonlinearity correction enabled: false
Boxcar width: 0
Storing dark spectrum: false
XAxis mode: Wavelengths
Number of Pixels in Spectrum: 1024
>>>>>Begin Spectral Data<<<<<
801.071	27648
801.214	27713
801.356	27507
801.499	27370
801.641	27329
801.783	27382
801.926	27325
802.068	27119
802.211	27096
802.353	27169
802.496	27039
802.638	26933
802.78	26838
802.923	27051
803.065	26830
803.208	26826
803.35	26842
803.492	26990
803.635	27013
803.777	26823
803.919	27058
804.061	27283
804.204	27032
804.346	26960
804.488	26914
804.63	27104
804.773	26887
804.915	27127
805.057	27100
805.199	27081
805.341	27135
805.483	27108
805.626	27089
805.768	27009
805.91	27264
806.052	27199
806.194	27104
806.336	27458
806.478	27298
806.62	27230
806.762	27279
806.904	27485
807.046	27755
807.188	27755
807.33	27526
807.472	27698
807.614	27511
807.756	27549
807.898	27496
808.04	27435
808.182	27389
808.324	27355
808.465	27454
808.607	27538
808.749	27816
808.891	27800
809.033	27979
809.174	27979
809.316	27713
809.458	27789
809.6	27823
809.741	27838
809.883	27975
810.025	28036
810.166	28055
810.308	28147
810.45	28086
810.591	28029
810.733	27899
810.875	27880
811.016	27682
811.158	27698
811.299	27960
811.441	27869
811.582	27888
811.724	27686
811.865	27846
812.007	27857
812.148	27930
812.29	27911
812.431	27975
812.573	28348
812.714	28398
812.855	28367
812.997	28386
813.138	28710
813.279	28489
813.421	28478
813.562	28280
813.703	28287
813.845	28109
813.986	27854
814.127	27557
814.268	27462
814.41	27549
814.551	27587
814.692	27682
814.833	27439
814.974	27447
815.115	27618
815.256	27298
815.397	27348
815.539	27424
815.68	27336
815.821	27256
815.962	27336
816.103	27336
816.244	27165
816.385	26979
816.526	27165
816.666	26979
816.807	26758
816.948	26899
817.089	26834
817.23	26902
817.371	26956
817.512	26910
817.653	26678
817.793	26708
817.934	26648
818.075	26762
818.216	26739
818.356	26720
818.497	26777
818.638	26495
818.778	26629
818.919	26518
819.06	26617
819.2	26754
819.341	26819
819.481	26807
819.622	26982
819.762	27066
819.903	27123
820.043	26952
820.184	26933
820.324	26960
820.465	27013
820.605	26880
820.746	26914
820.886	26781
821.026	26918
821.167	26921
821.307	26967
821.447	26933
821.588	26636
821.728	26583
821.868	26374
822.008	26252
822.149	26332
822.289	26343
822.429	26115
822.569	25997
822.709	26016
822.849	25883
822.99	25791
823.13	25833
823.27	25776
823.41	25601
823.55	25434
823.69	25514
823.83	25499
823.97	25411
824.11	25373
824.25	25335
824.389	25388
824.529	25407
824.669	25308
824.809	25468
824.949	25514
825.089	25556
825.228	25419
825.368	25339
825.508	25369
825.648	25449
825.787	25419
825.927	25388
826.067	25244
826.206	25289
826.346	25403
826.485	25381
826.625	25247
826.765	25472
826.904	25293
827.044	25160
827.183	25050
827.323	25076
827.462	25015
827.601	24833
827.741	25076
827.88	24996
828.02	24848
828.159	24844
828.298	24882
828.437	25084
828.577	24905
828.716	25095
828.855	25091
828.994	24783
829.134	24692
829.273	24753
829.412	24722
829.551	24608
829.69	24779
829.829	24719
829.968	24635
830.107	24837
830.246	24745
830.385	24566
830.524	24551
830.663	24490
830.802	24357
830.941	24300
831.08	24228
831.219	24486
831.357	24502
831.496	24471
831.635	24197
831.774	24262
831.913	24209
832.051	24201
832.19	24178
832.329	24125
832.467	24022
832.606	23973
832.744	23916
832.883	23980
833.022	23969
833.16	23885
833.299	24102
833.437	23885
833.576	24015
833.714	24205
833.852	24110
833.991	24133
834.129	24095
834.267	24125
834.406	24041
834.544	24060
834.682	24159
834.821	23942
834.959	24155
835.097	24030
835.235	24167
835.373	24030
835.511	23977
835.65	23870
835.788	23912
835.926	23733
836.064	23672
836.202	23668
836.34	23923
836.478	23984
836.615	23798
836.753	23878
836.891	23988
837.029	23851
837.167	23954
837.305	23805
837.443	23843
837.58	23661
837.718	23805
837.856	23703
837.993	23653
838.131	23714
838.269	23592
838.406	23703
838.544	23619
838.681	23406
838.819	23444
838.956	23220
839.094	23235
839.231	23208
839.369	23368
839.506	23547
839.643	23261
839.781	23117
839.918	23060
840.055	23307
840.193	23307
840.33	23170
840.467	23143
840.604	23140
840.742	23395
840.879	23033
841.016	23128
841.153	23010
841.29	23155
841.427	23159
841.564	23109
841.701	23025
841.838	23018
841.975	22915
842.112	23048
842.249	22957
842.385	22919
842.522	23029
842.659	23029
842.796	22755
842.933	22858
843.069	22774
843.206	22820
843.343	22930
843.479	22877
843.616	22972
843.752	22767
843.889	22679
844.025	22866
844.162	22641
844.298	22744
844.435	22717
844.571	22637
844.708	22683
844.844	22805
844.98	22809
845.117	22812
845.253	22634
845.389	22527
845.525	22538
845.661	22546
845.798	22337
845.934	22348
846.07	22379
846.206	22390
846.342	22531
846.478	22352
846.614	22204
846.75	22120
846.886	22044
847.022	22162
847.158	22173
847.294	22154
847.429	22268
847.565	22067
847.701	22382
847.837	21850
847.972	21869
848.108	21991
848.244	21953
848.379	21751
848.515	21663
848.65	21705
848.786	21717
848.921	21682
849.057	21915
849.192	21873
849.328	21747
849.463	21660
849.598	21545
849.734	21591
849.869	21561
850.004	21431
850.14	21466
850.275	21473
850.41	21302
850.545	21507
850.68	21408
850.815	21603
850.95	21511
851.085	21648
851.22	21644
851.355	21603
851.49	21428
851.625	21344
851.76	21477
851.895	21416
852.03	21355
852.165	21583
852.299	21420
852.434	21549
852.569	21496
852.703	21526
852.838	21637
852.973	21530
853.107	21583
853.242	21367
853.376	21310
853.511	21203
853.645	21389
853.78	21485
853.914	21359
854.048	21378
854.183	21340
854.317	21310
854.451	21530
854.585	21310
854.72	21245
854.854	21310
854.988	21279
855.122	21249
855.256	21222
855.39	21367
855.524	21325
855.658	21332
855.792	21298
855.926	21332
856.06	21473
856.194	21241
856.327	21298
856.461	21287
856.595	21211
856.729	21298
856.862	21424
856.996	21370
857.13	21428
857.263	21435
857.397	21336
857.53	21245
857.664	21348
857.797	21393
857.931	21477
858.064	21332
858.197	21344
858.331	21310
858.464	21291
858.597	21146
858.731	21237
858.864	21348
858.997	21287
859.13	21245
859.263	21325
859.396	21378
859.529	21260
859.662	21222
859.795	21195
859.928	21313
860.061	21473
860.194	21443
860.327	21355
860.46	21287
860.592	21420
860.725	21389
860.858	21477
860.99	21317
861.123	21218
861.256	21302
861.388	21359
861.521	22044
861.653	21135
861.786	21108
861.918	21146
862.05	21188
862.183	21195
862.315	21161
862.447	21336
862.58	21256
862.712	20929
862.844	21020
862.976	21066
863.108	21028
863.24	21511
863.372	20990
863.504	20971
863.636	21070
863.768	21051
863.9	21074
864.032	20944
864.164	21070
864.296	20967
864.428	21176
864.559	21028
864.691	21043
864.823	20948
864.954	20956
865.086	20941
865.217	20937
865.349	20800
865.48	20967
865.612	20861
865.743	21055
865.875	20956
866.006	20819
866.137	20857
866.269	20861
866.4	20754
866.531	20804
866.662	20758
866.793	20853
866.924	20834
867.055	20769
867.186	20800
867.317	20720
867.448	20743
867.579	20804
867.71	20716
867.841	20678
867.972	20830
868.103	20838
868.233	20838
868.364	20701
868.495	20876
868.625	21005
868.756	21157
868.886	20967
869.017	20963
869.147	21230
869.278	21096
869.408	21009
869.539	21062
869.669	21123
869.799	21108
869.929	21275
870.06	21211
870.19	21405
870.32	21420
870.45	21405
870.58	21378
870.71	21583
870.84	21637
870.97	21428
871.1	21511
871.23	21625
871.36	21675
871.489	21519
871.619	21637
871.749	21629
871.879	21698
872.008	21854
872.138	21606
872.267	21720
872.397	21595
872.526	21564
872.656	21469
872.785	21572
872.915	21698
873.044	21633
873.173	21793
873.303	21717
873.432	21747
873.561	21793
873.69	21637
873.819	21576
873.948	21762
874.077	21747
874.206	21603
874.335	21732
874.464	21747
874.593	21865
874.722	21781
874.851	21975
874.979	21918
875.108	21915
875.237	21994
875.365	21888
875.494	21835
875.623	22074
875.751	21934
875.88	22032
876.008	22082
876.136	22051
876.265	22322
876.393	22470
876.521	22356
876.65	22402
876.778	22215
876.906	22303
877.034	22207
877.162	22333
877.29	22196
877.418	22249
877.546	22371
877.674	22207
877.802	22291
877.93	22306
878.058	22276
878.185	22215
878.313	22200
878.441	22299
878.568	22185
878.696	22238
878.824	22242
878.951	22371
879.079	22405
879.206	22569
879.333	22207
879.461	22295
879.588	22363
879.715	22398
879.842	22500
879.97	22466
880.097	22032
880.224	22021
880.351	22261
880.478	22078
880.605	22048
880.732	22124
880.859	22367
880.986	22086
881.112	22173
881.239	21922
881.366	21922
881.493	21762
881.619	21656
881.746	21686
881.872	21671
881.999	21633
882.125	21614
882.252	21671
882.378	21576
882.505	21701
882.631	21473
882.757	21492
882.883	21507
883.01	21431
883.136	21230
883.262	21233
883.388	21256
883.514	21351
883.64	21310
883.766	21214
883.892	21192
884.018	21252
884.143	21340
884.269	21401
884.395	21131
884.52	20906
884.646	20998
884.772	20918
884.897	20925
885.023	21009
885.148	21150
885.274	21142
885.399	20952
885.524	20967
885.65	20982
885.775	20998
885.9	20986
886.025	21093
886.15	20967
886.275	20929
886.4	21005
886.525	21028
886.65	20804
886.775	20849
886.9	21146
887.025	21112
887.149	20998
887.274	20788
887.399	20804
887.523	20746
887.648	20648
887.773	20720
887.897	20758
888.021	20785
888.146	20758
888.27	20716
888.395	20872
888.519	20807
888.643	20762
888.767	20826
888.891	20659
889.015	20689
889.139	20648
889.263	20438
889.387	20674
889.511	20819
889.635	20739
889.759	20488
889.883	20617
890.006	20537
890.13	20629
890.254	20541
890.377	20579
890.501	20355
890.624	20320
890.748	20252
890.871	20286
890.995	20183
891.118	20103
891.241	20183
891.364	20168
891.488	20248
891.611	20164
891.734	20073
891.857	20157
891.98	20252
892.103	20172
892.226	20168
892.349	20122
892.471	19970
892.594	20084
892.717	20062
892.839	20012
892.962	20077
893.085	20111
893.207	20008
893.33	19959
893.452	19982
893.575	20035
893.697	20088
893.819	20142
893.941	20298
894.064	20134
894.186	19982
894.308	20035
894.43	20103
894.552	20168
894.674	20183
894.796	19944
894.918	20027
895.04	20088
895.161	20142
895.283	20054
895.405	19917
895.526	20100
895.648	20058
895.769	20126
895.891	20084
896.012	20172
896.134	20027
896.255	20130
896.376	20054
896.498	20081
896.619	20043
896.74	20008
896.861	20164
896.982	20415
897.103	20537
897.224	20275
897.345	20298
897.466	20202
897.587	20149
897.708	20358
897.828	20271
897.949	20271
898.07	20103
898.19	20138
898.311	20431
898.431	20088
898.552	20248
898.672	20362
898.792	20309
898.913	20100
899.033	20145
899.153	20134
899.273	19833
899.393	19989
899.513	19997
899.633	20031
899.753	19974
899.873	19974
899.993	19997
900.113	20012
900.232	20039
900.352	19909
900.472	19940
900.591	19769
900.711	19784
900.83	19803
900.95	19974
901.069	19879
901.189	19655
901.308	19403
901.427	19308
901.546	19415
901.665	19335
901.784	19449
901.904	19282
902.023	19198
902.141	18989
902.26	18817
902.379	18856
902.498	18920
902.617	18821
902.735	18954
902.854	18852
902.973	18848
903.091	18521
903.21	18502
903.328	18540
903.446	18486
903.565	18372
903.683	18403
903.801	18216
903.919	18300
904.038	18239
904.156	18152
904.274	18254
904.392	17996
904.51	18057
904.627	18057
904.745	18117
904.863	18247
904.981	18007
905.098	17851
905.216	17866
905.334	17889
905.451	17767
905.569	17786
905.686	17821
905.803	17851
905.921	17649
906.038	17672
906.155	17623
906.272	17566
906.389	17585
906.506	17303
906.623	17387
906.74	17349
906.857	17067
906.974	17307
907.091	17345
907.208	17501
907.324	17395
907.441	17250
907.557	17128
907.674	17041
907.79	16980
907.907	17075
908.023	17056
908.139	17025
908.256	17056
908.372	17033
908.488	16984
908.604	16877
908.72	16740
908.836	16790
908.952	16820
909.068	16782
909.184	16889
909.3	16748
909.415	16740
909.531	16869
909.647	16531
909.762	16500
909.878	16417
909.993	16481
910.108	16455
910.224	16481
910.339	16413
910.454	16337
910.57	16242
910.685	16238
910.8	16459
910.915	16363
911.03	16246
911.145	16135
911.259	16074
911.374	16139
911.489	16086
911.604	15983
911.718	15926
911.833	15797
911.947	15785
912.062	15610
912.176	15713
912.291	15816
912.405	15903
912.519	15937
912.633	15994
912.748	15835
912.862	15720
912.976	15713
913.09	15572
913.204	15679
913.318	15610
913.431	15728
913.545	15717
913.659	15800
913.772	15622
913.886	15462
914	15458
914.113	15477
914.226	15580
914.34	15443
914.453	15302
914.566	15401
914.68	15329
914.793	15313
914.906	15184
915.019	15066
915.132	15013
915.245	15074
915.358	15119
915.47	15020
915.583	15051
915.696	15062
915.809	15214
915.921	15154
916.034	14967
916.146	14956
916.259	14891
916.371	15047
916.483	14941
916.595	14960
916.708	15009
916.82	14937
916.932	14941
917.044	14944
917.156	14735
917.268	14762
917.38	14777
917.491	14693
917.603	14663
917.715	14762
917.826	14853
917.938	14541
918.049	14663
918.161	14663
918.272	14796
918.384	14731
918.495	14682
918.606	14530
918.717	14347
918.828	14541
918.939	14488
919.05	14465
919.161	14431
919.272	14240
919.383	14256
919.494	14434
919.604	14670
919.715	14549
919.826	14389
919.936	14431
920.047	14526
920.157	14385
920.267	14511
920.378	14484
920.488	14370
920.598	14606
920.708	14705
920.818	14648
920.928	14480
921.038	14758
921.148	14701
921.258	14431
921.368	14336
921.477	14218
921.587	14191
921.697	14016
921.806	14244
921.916	14035
922.025	13898
922.134	13807
922.244	13723
922.353	13799
922.462	13700
922.571	13590
922.68	13438
922.789	13407
922.898	13449
923.007	13362
923.116	13578
923.224	13381
923.333	13449
923.442	13263
923.55	13225
923.659	13270
923.767	13441
923.876	13171
923.984	13263
924.092	13198
924.201	13164
924.309	13171
924.417	13187
924.525	13206
924.633	13118
924.741	13936
924.849	12951
924.956	13103
925.064	12962
925.172	12783
925.279	12886
925.387	12844
925.494	12863
925.602	12989
925.709	13008
925.816	12806
925.924	12760
926.031	12867
926.138	12806
926.245	12856
926.352	12741
926.459	12886
926.566	12909
926.673	12760
926.779	12707
926.886	12639
926.993	12498
927.099	12475
927.206	12334
927.312	12372
927.419	12380
927.525	12456
927.631	12498
927.737	12346
927.843	12209
927.95	12152
928.056	12232
928.162	12273
928.267	12300
928.373	12947
928.479	12403
928.585	12148
928.69	12296
928.796	12243
928.901	12102
929.007	11965
929.112	12159
929.218	12125
929.323	12019
929.428	12072
929.533	12224
929.638	11866
929.743	11996
929.848	12034
929.953	12041
930.058	11809
930.163	11726
930.267	11676
930.372	11805
930.477	11657
930.581	11969
930.685	11642
930.79	11604
930.894	11665
930.998	11505
931.103	11710
931.207	11284
931.311	11326
931.415	11166
931.519	11018
931.623	10984
