Data from test_V78500241_1781.txt Node
Date: Fri Mar 25 15:22:15 CST 2022
User: usil
Spectrometer: V785-0024
Trigger mode: 0
Integration Time (sec): 4.000000E-1
Scans to average: 1
Nonlinearity correction enabled: false
Boxcar width: 0
Storing dark spectrum: false
XAxis mode: Wavelengths
Number of Pixels in Spectrum: 1024
>>>>>Begin Spectral Data<<<<<
801.071	28051
801.214	27968
801.356	27766
801.499	27679
801.641	27500
801.783	27553
801.926	27648
802.068	27580
802.211	27466
802.353	27363
802.496	27188
802.638	27104
802.78	27218
802.923	27074
803.065	27009
803.208	27173
803.35	27131
803.492	27374
803.635	27363
803.777	27081
803.919	27348
804.061	27663
804.204	27439
804.346	27302
804.488	27283
804.63	27256
804.773	27264
804.915	27344
805.057	27447
805.199	27355
805.341	27481
805.483	27424
805.626	27488
805.768	27310
805.91	27416
806.052	27435
806.194	27340
806.336	27781
806.478	27618
806.62	27462
806.762	27568
806.904	27701
807.046	28055
807.188	27914
807.33	27895
807.472	28040
807.614	27831
807.756	27945
807.898	27679
808.04	27690
808.182	27755
808.324	27698
808.465	27827
808.607	28021
808.749	28082
808.891	28242
809.033	28230
809.174	28055
809.316	27968
809.458	28067
809.6	28097
809.741	28116
809.883	28352
810.025	28371
810.166	28401
810.308	28314
810.45	28257
810.591	28325
810.733	28082
810.875	28090
811.016	27869
811.158	27907
811.299	28230
811.441	28196
811.582	28169
811.724	28105
811.865	27983
812.007	28044
812.148	28154
812.29	28162
812.431	28417
812.573	28577
812.714	28535
812.855	28702
812.997	28653
813.138	28812
813.279	28683
813.421	28733
813.562	28504
813.703	28344
813.845	28291
813.986	28131
814.127	27865
814.268	27895
814.41	27819
814.551	27762
814.692	27884
814.833	27804
814.974	27892
815.115	27720
815.256	27641
815.397	27641
815.539	27603
815.68	27648
815.821	27572
815.962	27694
816.103	27564
816.244	27439
816.385	27317
816.526	27313
816.666	27192
816.807	27070
816.948	27169
817.089	27279
817.23	27055
817.371	27062
817.512	27157
817.653	27211
817.793	26994
817.934	27074
818.075	27123
818.216	27089
818.356	26853
818.497	26880
818.638	26750
818.778	26929
818.919	26956
819.06	26807
819.2	27013
819.341	27089
819.481	26948
819.622	27146
819.762	27435
819.903	27321
820.043	27252
820.184	27294
820.324	27230
820.465	27119
820.605	27169
820.746	27218
820.886	26990
821.026	27207
821.167	27226
821.307	27241
821.447	27131
821.588	26937
821.728	26807
821.868	26667
822.008	26590
822.149	26697
822.289	26389
822.429	26324
822.569	26313
822.709	26214
822.849	26043
822.99	26202
823.13	26206
823.27	26107
823.41	25814
823.55	25757
823.69	25875
823.83	25917
823.97	25879
824.11	25563
824.25	25761
824.389	25693
824.529	25890
824.669	25734
824.809	25830
824.949	25772
825.089	25761
825.228	25719
825.368	25559
825.508	25430
825.648	25556
825.787	25670
825.927	25750
826.067	25567
826.206	25582
826.346	25616
826.485	25548
826.625	25601
826.765	25719
826.904	25643
827.044	25308
827.183	25335
827.323	25202
827.462	25335
827.601	25381
827.741	25362
827.88	25343
828.02	25141
828.159	25373
828.298	25460
828.437	25335
828.577	25312
828.716	25468
828.855	25118
828.994	25046
829.134	24947
829.273	25042
829.412	24947
829.551	25099
829.69	25072
829.829	25091
829.968	25183
830.107	25053
830.246	24935
830.385	25061
830.524	24791
830.663	24886
830.802	24791
830.941	24627
831.08	24593
831.219	24764
831.357	24745
831.496	24833
831.635	24585
831.774	24623
831.913	24418
832.051	24441
832.19	24509
832.329	24464
832.467	24323
832.606	24155
832.744	24239
832.883	24239
833.022	24308
833.16	24418
833.299	24475
833.437	24330
833.576	24399
833.714	24323
833.852	24384
833.991	24544
834.129	24422
834.267	24471
834.406	24372
834.544	24403
834.682	24517
834.821	24441
834.959	24601
835.097	24494
835.235	24471
835.373	24342
835.511	24414
835.65	24178
835.788	24205
835.926	24258
836.064	24007
836.202	24049
836.34	24228
836.478	24342
836.615	24239
836.753	24136
836.891	24254
837.029	24247
837.167	24228
837.305	24159
837.443	24098
837.58	23977
837.718	24148
837.856	24038
837.993	24038
838.131	24030
838.269	23901
838.406	23988
838.544	23878
838.681	23657
838.819	23680
838.956	23531
839.094	23581
839.231	23668
839.369	23710
839.506	23927
839.643	23836
839.781	23516
839.918	23387
840.055	23497
840.193	23520
840.33	23471
840.467	23558
840.604	23573
840.742	23745
840.879	23372
841.016	23372
841.153	23299
841.29	23573
841.427	23467
841.564	23558
841.701	23368
841.838	23315
841.975	23265
842.112	23421
842.249	23265
842.385	23200
842.522	23467
842.659	23345
842.796	23212
842.933	23189
843.069	23166
843.206	23235
843.343	23261
843.479	23235
843.616	23242
843.752	23037
843.889	23067
844.025	23212
844.162	22957
844.298	23052
844.435	22961
844.571	22968
844.708	23052
844.844	23212
844.98	23083
845.117	23128
845.253	22866
845.389	22782
845.525	22835
845.661	22869
845.798	22611
845.934	22767
846.07	22653
846.206	22710
846.342	22812
846.478	22767
846.614	22584
846.75	22546
846.886	22440
847.022	22611
847.158	22481
847.294	22546
847.429	22508
847.565	22409
847.701	22668
847.837	22253
847.972	22101
848.108	22242
848.244	22230
848.379	22124
848.515	22082
848.65	22025
848.786	22048
848.921	21956
849.057	22124
849.192	22158
849.328	22204
849.463	22128
849.598	22093
849.734	21964
849.869	21918
850.004	21949
850.14	21816
850.275	21831
850.41	21781
850.545	21762
850.68	21690
850.815	21949
850.95	21720
851.085	22036
851.22	22002
851.355	21918
851.49	21819
851.625	21915
851.76	21793
851.895	21759
852.03	21838
852.165	21835
852.299	21949
852.434	21876
852.569	21838
852.703	21983
852.838	21915
852.973	21911
853.107	21975
853.242	21876
853.376	21694
853.511	21530
853.645	21606
853.78	21781
853.914	21838
854.048	21705
854.183	21614
854.317	21728
854.451	21953
854.585	21656
854.72	21660
854.854	21682
854.988	21587
855.122	21637
855.256	21496
855.39	21530
855.524	21614
855.658	21595
855.792	21667
855.926	21618
856.06	21732
856.194	21747
856.327	21713
856.461	21580
856.595	21599
856.729	21633
856.862	21781
856.996	21682
857.13	21709
857.263	21838
857.397	21762
857.53	21545
857.664	21698
857.797	21663
857.931	21835
858.064	21778
858.197	21774
858.331	21519
858.464	21698
858.597	21591
858.731	21675
858.864	21606
858.997	21652
859.13	21656
859.263	21709
859.396	21827
859.529	21648
859.662	21614
859.795	21679
859.928	21545
860.061	21816
860.194	21861
860.327	21686
860.46	21686
860.592	21682
860.725	21945
860.858	21800
860.99	21720
861.123	21530
861.256	21542
861.388	21671
861.521	22322
861.653	21481
861.786	21405
861.918	21591
862.05	21568
862.183	21443
862.315	21679
862.447	21698
862.58	21542
862.712	21416
862.844	21447
862.976	21443
863.108	21393
863.24	21759
863.372	21260
863.504	21397
863.636	21428
863.768	21355
863.9	21462
864.032	21336
864.164	21329
864.296	21431
864.428	21431
864.559	21431
864.691	21511
864.823	21325
864.954	21306
865.086	21252
865.217	21230
865.349	21249
865.48	21291
865.612	21188
865.743	21374
865.875	21260
866.006	21241
866.137	21359
866.269	21279
866.4	21264
866.531	21112
866.662	21146
866.793	21203
866.924	21066
867.055	21302
867.186	21237
867.317	21142
867.448	20971
867.579	21279
867.71	21001
867.841	21020
867.972	21222
868.103	21287
868.233	21199
868.364	21169
868.495	21218
868.625	21412
868.756	21568
868.886	21428
869.017	21458
869.147	21618
869.278	21549
869.408	21530
869.539	21420
869.669	21583
869.799	21469
869.929	21534
870.06	21545
870.19	21717
870.32	21663
870.45	21800
870.58	21797
870.71	21930
870.84	21835
870.97	21720
871.1	21945
871.23	21953
871.36	22032
871.489	21907
871.619	22059
871.749	21968
871.879	22067
872.008	22067
872.138	22093
872.267	21926
872.397	22032
872.526	21838
872.656	21835
872.785	21869
872.915	22070
873.044	22173
873.173	22090
873.303	22078
873.432	22207
873.561	22192
873.69	22181
873.819	22070
873.948	22135
874.077	22010
874.206	22002
874.335	22070
874.464	22154
874.593	22348
874.722	22162
874.851	22375
874.979	22325
875.108	22249
875.237	22215
875.365	22082
875.494	22230
875.623	22333
875.751	22242
875.88	22276
876.008	22363
876.136	22455
876.265	22599
876.393	22847
876.521	22702
876.65	22797
876.778	22599
876.906	22717
877.034	22622
877.162	22603
877.29	22405
877.418	22637
877.546	22603
877.674	22626
877.802	22645
877.93	22626
878.058	22565
878.185	22455
878.313	22550
878.441	22554
878.568	22409
878.696	22542
878.824	22679
878.951	22752
879.079	22767
879.206	22980
879.333	22664
879.461	22622
879.588	22607
879.715	22801
879.842	22911
879.97	22721
880.097	22417
880.224	22440
880.351	22459
880.478	22485
880.605	22428
880.732	22390
880.859	22733
880.986	22485
881.112	22436
881.239	22291
881.366	22192
881.493	22067
881.619	21983
881.746	21949
881.872	22063
881.999	21930
882.125	21994
882.252	22044
882.378	21987
882.505	22067
882.631	21759
882.757	21766
882.883	21808
883.01	21724
883.136	21652
883.262	21641
883.388	21504
883.514	21587
883.64	21724
883.766	21622
883.892	21397
884.018	21424
884.143	21679
884.269	21709
884.395	21412
884.52	21332
884.646	21336
884.772	21332
884.897	21268
885.023	21408
885.148	21481
885.274	21431
885.399	21488
885.524	21317
885.65	21359
885.775	21279
885.9	21264
886.025	21435
886.15	21424
886.275	21287
886.4	21302
886.525	21291
886.65	21207
886.775	21211
886.9	21530
887.025	21526
887.149	21199
887.274	21207
887.399	21066
887.523	21157
887.648	20994
887.773	20929
887.897	21184
888.021	21150
888.146	21085
888.27	21188
888.395	21150
888.519	21116
888.643	21180
888.767	21028
888.891	21009
889.015	20918
889.139	21070
889.263	20807
889.387	20918
889.511	21104
889.635	21028
889.759	20857
889.883	20914
890.006	20861
890.13	20925
890.254	20788
890.377	20853
890.501	20583
890.624	20579
890.748	20655
890.871	20537
890.995	20556
891.118	20377
891.241	20393
891.364	20484
891.488	20549
891.611	20526
891.734	20408
891.857	20434
891.98	20533
892.103	20503
892.226	20526
892.349	20370
892.471	20126
892.594	20396
892.717	20450
892.839	20431
892.962	20336
893.085	20347
893.207	20358
893.33	20317
893.452	20229
893.575	20495
893.697	20381
893.819	20393
893.941	20507
894.064	20393
894.186	20347
894.308	20324
894.43	20400
894.552	20419
894.674	20381
894.796	20294
894.918	20267
895.04	20229
895.161	20450
895.283	20294
895.405	20267
895.526	20351
895.648	20187
895.769	20286
895.891	20412
896.012	20347
896.134	20488
896.255	20408
896.376	20256
896.498	20324
896.619	20480
896.74	20294
896.861	20427
896.982	20621
897.103	20739
897.224	20549
897.345	20598
897.466	20476
897.587	20568
897.708	20659
897.828	20480
897.949	20590
898.07	20431
898.19	20492
898.311	20533
898.431	20476
898.552	20400
898.672	20621
898.792	20594
898.913	20526
899.033	20366
899.153	20419
899.273	20305
899.393	20301
899.513	20218
899.633	20400
899.753	20351
899.873	20305
899.993	20336
900.113	20130
900.232	20237
900.352	20286
900.472	20119
900.591	20077
900.711	20172
900.83	20031
900.95	20138
901.069	20054
901.189	19940
901.308	19811
901.427	19639
901.546	19670
901.665	19761
901.784	19658
901.904	19453
902.023	19445
902.141	19190
902.26	19103
902.379	19247
902.498	19190
902.617	19137
902.735	19129
902.854	19042
902.973	19084
903.091	18878
903.21	18856
903.328	18798
903.446	18768
903.565	18795
903.683	18570
903.801	18509
903.919	18623
904.038	18490
904.156	18456
904.274	18502
904.392	18346
904.51	18376
904.627	18433
904.745	18475
904.863	18467
904.981	18114
905.098	18076
905.216	18152
905.334	18102
905.451	18171
905.569	18125
905.686	18167
905.803	18045
905.921	17752
906.038	18076
906.155	17916
906.272	17630
906.389	17718
906.506	17729
906.623	17638
906.74	17573
906.857	17482
906.974	17486
907.091	17600
907.208	17726
907.324	17657
907.441	17425
907.557	17258
907.674	17379
907.79	17307
907.907	17318
908.023	17402
908.139	17383
908.256	17277
908.372	17151
908.488	17174
908.604	17109
908.72	17052
908.836	16976
908.952	16930
909.068	17037
909.184	17181
909.3	16968
909.415	17060
909.531	17090
909.647	16850
909.762	16812
909.878	16790
909.993	16755
910.108	16660
910.224	16744
910.339	16668
910.454	16603
910.57	16542
910.685	16478
910.8	16797
910.915	16660
911.03	16626
911.145	16424
911.259	16405
911.374	16284
911.489	16230
911.604	16249
911.718	16036
911.833	16131
911.947	16044
912.062	15953
912.176	16040
912.291	15998
912.405	16059
912.519	16166
912.633	16257
912.748	16200
912.862	15991
912.976	15972
913.09	15899
913.204	15838
913.318	15808
913.431	15972
913.545	15960
913.659	16048
913.772	15831
913.886	15713
914	15686
914.113	15736
914.226	15759
914.34	15759
914.453	15591
914.566	15774
914.68	15549
914.793	15530
914.906	15454
915.019	15272
915.132	15264
915.245	15157
915.358	15264
915.47	15222
915.583	15233
915.696	15237
915.809	15374
915.921	15374
916.034	15230
916.146	15214
916.259	15249
916.371	15199
916.483	15211
916.595	15173
916.708	15161
916.82	15157
916.932	15047
917.044	14998
917.156	15039
917.268	14944
917.38	14975
917.491	14918
917.603	14910
917.715	14944
917.826	14971
917.938	14937
918.049	14800
918.161	14849
918.272	14948
918.384	14910
918.495	14845
918.606	14792
918.717	14632
918.828	14792
918.939	14781
919.05	14503
919.161	14651
919.272	14488
919.383	14522
919.494	14765
919.604	14872
919.715	14674
919.826	14503
919.936	14705
920.047	14746
920.157	14697
920.267	14853
920.378	14659
920.488	14632
920.598	14762
920.708	14944
920.818	14750
920.928	14781
921.038	14998
921.148	14834
921.258	14503
921.368	14457
921.477	14408
921.587	14347
921.697	14248
921.806	14461
921.916	14214
922.025	14111
922.134	13989
922.244	13925
922.353	14050
922.462	13894
922.571	13780
922.68	13674
922.789	13639
922.898	13693
923.007	13590
923.116	13738
923.224	13628
923.333	13605
923.442	13510
923.55	13438
923.659	13514
923.767	13559
923.876	13453
923.984	13521
924.092	13346
924.201	13369
924.309	13362
924.417	13388
924.525	13343
924.633	13438
924.741	14130
924.849	13156
924.956	13282
925.064	13050
925.172	13008
925.279	13080
925.387	13183
925.494	13015
925.602	13156
925.709	13103
925.816	12947
925.924	12993
926.031	13103
926.138	13050
926.245	12970
926.352	12939
926.459	12985
926.566	13031
926.673	12882
926.779	12859
926.886	12810
926.993	12601
927.099	12574
927.206	12536
927.312	12582
927.419	12578
927.525	12559
927.631	12646
927.737	12570
927.843	12467
927.95	12376
928.056	12460
928.162	12407
928.267	12540
928.373	13088
928.479	12506
928.585	12334
928.69	12399
928.796	12369
928.901	12281
929.007	12167
929.112	12270
929.218	12338
929.323	12201
929.428	12182
929.533	12273
929.638	12102
929.743	12148
929.848	12121
929.953	12121
930.058	12015
930.163	11798
930.267	11817
930.372	11927
930.477	11783
930.581	12053
930.685	11939
930.79	11699
930.894	11668
930.998	11699
931.103	11813
931.207	11516
931.311	11414
931.415	11345
931.519	11204
931.623	11113
