Data from test_V78500241_218.txt Node
Date: Fri Mar 25 15:11:22 CST 2022
User: usil
Spectrometer: V785-0024
Trigger mode: 0
Integration Time (sec): 4.000000E-1
Scans to average: 1
Nonlinearity correction enabled: false
Boxcar width: 0
Storing dark spectrum: false
XAxis mode: Wavelengths
Number of Pixels in Spectrum: 1024
>>>>>Begin Spectral Data<<<<<
801.071	27671
801.214	27781
801.356	27507
801.499	27526
801.641	27268
801.783	27332
801.926	27450
802.068	27294
802.211	27180
802.353	27119
802.496	27017
802.638	26910
802.78	26967
802.923	26823
803.065	26781
803.208	26861
803.35	26895
803.492	26982
803.635	26933
803.777	26880
803.919	27032
804.061	27416
804.204	27058
804.346	26918
804.488	26929
804.63	26853
804.773	26861
804.915	26956
805.057	27058
805.199	26925
805.341	26979
805.483	27062
805.626	27017
805.768	26960
805.91	27017
806.052	27020
806.194	26956
806.336	27283
806.478	26982
806.62	27047
806.762	27291
806.904	27176
807.046	27504
807.188	27458
807.33	27401
807.472	27496
807.614	27397
807.756	27382
807.898	27325
808.04	27245
808.182	27169
808.324	27351
808.465	27268
808.607	27488
808.749	27545
808.891	27762
809.033	27793
809.174	27595
809.316	27595
809.458	27614
809.6	27485
809.741	27713
809.883	27644
810.025	27819
810.166	27907
810.308	27793
810.45	27816
810.591	27911
810.733	27618
810.875	27496
811.016	27466
811.158	27477
811.299	27698
811.441	27641
811.582	27694
811.724	27431
811.865	27492
812.007	27439
812.148	27568
812.29	27583
812.431	27747
812.573	27835
812.714	28006
812.855	27918
812.997	28143
813.138	28249
813.279	28188
813.421	28185
813.562	28044
813.703	27998
813.845	27732
813.986	27492
814.127	27260
814.268	27077
814.41	27226
814.551	27089
814.692	27332
814.833	27142
814.974	27157
815.115	27112
815.256	26982
815.397	26971
815.539	27001
815.68	26910
815.821	26971
815.962	26944
816.103	26895
816.244	26861
816.385	26606
816.526	26632
816.666	26427
816.807	26267
816.948	26446
817.089	26415
817.23	26450
817.371	26442
817.512	26442
817.653	26282
817.793	26294
817.934	26396
818.075	26431
818.216	26370
818.356	26275
818.497	26214
818.638	26050
818.778	26081
818.919	26043
819.06	26168
819.2	26138
819.341	26206
819.481	26404
819.622	26511
819.762	26686
819.903	26568
820.043	26419
820.184	26438
820.324	26313
820.465	26317
820.605	26362
820.746	26526
820.886	26256
821.026	26434
821.167	26366
821.307	26351
821.447	26351
821.588	26115
821.728	26058
821.868	25868
822.008	25807
822.149	25830
822.289	25765
822.429	25411
822.569	25441
822.709	25373
822.849	25263
822.99	25312
823.13	25266
823.27	25278
823.41	24924
823.55	24985
823.69	25061
823.83	25061
823.97	24913
824.11	24932
824.25	24817
824.389	24897
824.529	24966
824.669	24817
824.809	24935
824.949	24920
825.089	24897
825.228	24783
825.368	24753
825.508	24684
825.648	24738
825.787	24711
825.927	24700
826.067	24551
826.206	24532
826.346	24642
826.485	24791
826.625	24604
826.765	24745
826.904	24700
827.044	24513
827.183	24494
827.323	24300
827.462	24448
827.601	24350
827.741	24334
827.88	24369
828.02	24273
828.159	24376
828.298	24422
828.437	24429
828.577	24308
828.716	24395
828.855	24289
828.994	24091
829.134	24060
829.273	24148
829.412	23996
829.551	23863
829.69	24007
829.829	24034
829.968	24049
830.107	24171
830.246	24007
830.385	23996
830.524	24049
830.663	23889
830.802	23771
830.941	23623
831.08	23608
831.219	23653
831.357	23680
831.496	23863
831.635	23592
831.774	23531
831.913	23474
832.051	23322
832.19	23376
832.329	23452
832.467	23318
832.606	23178
832.744	23277
832.883	23318
833.022	23337
833.16	23269
833.299	23307
833.437	23356
833.576	23322
833.714	23376
833.852	23337
833.991	23398
834.129	23459
834.267	23376
834.406	23299
834.544	23307
834.682	23395
834.821	23402
834.959	23486
835.097	23128
835.235	23220
835.373	23372
835.511	23227
835.65	23242
835.788	23193
835.926	22980
836.064	22995
836.202	22908
836.34	23056
836.478	23208
836.615	23155
836.753	23193
836.891	23170
837.029	23052
837.167	23048
837.305	23113
837.443	23048
837.58	22885
837.718	22908
837.856	23105
837.993	22923
838.131	23014
838.269	22987
838.406	22892
838.544	22774
838.681	22660
838.819	22630
838.956	22474
839.094	22398
839.231	22447
839.369	22630
839.506	22748
839.643	22592
839.781	22478
839.918	22367
840.055	22447
840.193	22367
840.33	22204
840.467	22363
840.604	22322
840.742	22580
840.879	22131
841.016	22246
841.153	22268
841.29	22481
841.427	22333
841.564	22356
841.701	22310
841.838	22246
841.975	22265
842.112	22166
842.249	22261
842.385	22169
842.522	22314
842.659	21991
842.796	21979
842.933	22059
843.069	22097
843.206	22036
843.343	22128
843.479	22120
843.616	21987
843.752	21671
843.889	21926
844.025	22006
844.162	21774
844.298	21907
844.435	21770
844.571	21751
844.708	21907
844.844	21945
844.98	21964
845.117	21861
845.253	21846
845.389	21648
845.525	21835
845.661	21675
845.798	21515
845.934	21549
846.07	21530
846.206	21572
846.342	21698
846.478	21568
846.614	21378
846.75	21279
846.886	21310
847.022	21302
847.158	21447
847.294	21302
847.429	21256
847.565	21306
847.701	21447
847.837	21138
847.972	21017
848.108	21230
848.244	21036
848.379	20925
848.515	20929
848.65	20804
848.786	20868
848.921	20929
849.057	20910
849.192	20849
849.328	20944
849.463	20880
849.598	20693
849.734	20811
849.869	20686
850.004	20655
850.14	20682
850.275	20651
850.41	20537
850.545	20564
850.68	20606
850.815	20568
850.95	20454
851.085	20857
851.22	20743
851.355	20621
851.49	20708
851.625	20606
851.76	20564
851.895	20476
852.03	20488
852.165	20606
852.299	20564
852.434	20689
852.569	20644
852.703	20579
852.838	20648
852.973	20705
853.107	20674
853.242	20499
853.376	20366
853.511	20206
853.645	20396
853.78	20484
853.914	20446
854.048	20396
854.183	20423
854.317	20454
854.451	20629
854.585	20431
854.72	20404
854.854	20499
854.988	20214
855.122	20400
855.256	20161
855.39	20423
855.524	20484
855.658	20389
855.792	20431
855.926	20423
856.06	20526
856.194	20632
856.327	20271
856.461	20355
856.595	20377
856.729	20450
856.862	20560
856.996	20408
857.13	20492
857.263	20495
857.397	20530
857.53	20358
857.664	20396
857.797	20389
857.931	20609
858.064	20385
858.197	20552
858.331	20408
858.464	20362
858.597	20275
858.731	20351
858.864	20309
858.997	20339
859.13	20191
859.263	20511
859.396	20370
859.529	20374
859.662	20415
859.795	20199
859.928	20400
860.061	20469
860.194	20617
860.327	20400
860.46	20465
860.592	20590
860.725	20473
860.858	20419
860.99	20332
861.123	20282
861.256	20362
861.388	20377
861.521	21089
861.653	20187
861.786	20081
861.918	20271
862.05	20199
862.183	20362
862.315	20381
862.447	20278
862.58	20415
862.712	20244
862.844	20199
862.976	20195
863.108	20134
863.24	20530
863.372	20081
863.504	20005
863.636	20115
863.768	20024
863.9	20115
864.032	19959
864.164	20149
864.296	20107
864.428	20180
864.559	20130
864.691	20180
864.823	19967
864.954	20020
865.086	20039
865.217	20142
865.349	19898
865.48	19932
865.612	20031
865.743	20221
865.875	19967
866.006	19913
866.137	20005
866.269	19944
866.4	19936
866.531	20035
866.662	19875
866.793	20008
866.924	19947
867.055	19955
867.186	19890
867.317	19890
867.448	19814
867.579	19818
867.71	19856
867.841	19879
867.972	19989
868.103	19856
868.233	19928
868.364	19986
868.495	19982
868.625	20168
868.756	20248
868.886	20050
869.017	20096
869.147	20233
869.278	20366
869.408	20263
869.539	20153
869.669	20275
869.799	20149
869.929	20309
870.06	20282
870.19	20522
870.32	20511
870.45	20609
870.58	20537
870.71	20606
870.84	20758
870.97	20590
871.1	20530
871.23	20758
871.36	20632
871.489	20533
871.619	20754
871.749	20762
871.879	20701
872.008	20899
872.138	20746
872.267	20792
872.397	20724
872.526	20556
872.656	20583
872.785	20640
872.915	20796
873.044	20800
873.173	20792
873.303	20910
873.432	20785
873.561	20838
873.69	20754
873.819	20773
873.948	20826
874.077	20773
874.206	20743
874.335	20804
874.464	20979
874.593	21009
874.722	20990
874.851	21260
874.979	20975
875.108	21062
875.237	21032
875.365	20952
875.494	21089
875.623	21085
875.751	21100
875.88	21032
876.008	21150
876.136	21077
876.265	21336
876.393	21439
876.521	21496
876.65	21583
876.778	21545
876.906	21332
877.034	21386
877.162	21473
877.29	21298
877.418	21386
877.546	21397
877.674	21439
877.802	21348
877.93	21393
878.058	21302
878.185	21355
878.313	21348
878.441	21469
878.568	21218
878.696	21287
878.824	21439
878.951	21580
879.079	21576
879.206	21667
879.333	21564
879.461	21500
879.588	21545
879.715	21458
879.842	21538
879.97	21454
880.097	21207
880.224	21154
880.351	21222
880.478	21199
880.605	21135
880.732	21218
880.859	21435
880.986	21256
881.112	21176
881.239	21131
881.366	20872
881.493	20830
881.619	20807
881.746	20880
881.872	20792
881.999	20750
882.125	20838
882.252	20758
882.378	20750
882.505	20880
882.631	20640
882.757	20594
882.883	20621
883.01	20522
883.136	20461
883.262	20381
883.388	20457
883.514	20454
883.64	20644
883.766	20476
883.892	20336
884.018	20400
884.143	20465
884.269	20560
884.395	20149
884.52	20065
884.646	20248
884.772	20138
884.897	20065
885.023	20267
885.148	20305
885.274	20282
885.399	20305
885.524	20157
885.65	20164
885.775	20172
885.9	20126
886.025	20267
886.15	20233
886.275	20161
886.4	20096
886.525	20103
886.65	20153
886.775	20031
886.9	20263
887.025	20415
887.149	20069
887.274	20008
887.399	19902
887.523	19906
887.648	19875
887.773	19742
887.897	19989
888.021	20046
888.146	19856
888.27	19997
888.395	19947
888.519	19898
888.643	19928
888.767	20031
888.891	19909
889.015	19685
889.139	19693
889.263	19719
889.387	19860
889.511	20005
889.635	19833
889.759	19803
889.883	19670
890.006	19696
890.13	19704
890.254	19639
890.377	19666
890.501	19521
890.624	19388
890.748	19529
890.871	19396
890.995	19403
891.118	19320
891.241	19335
891.364	19384
891.488	19556
891.611	19346
891.734	19373
891.857	19274
891.98	19346
892.103	19521
892.226	19301
892.349	19282
892.471	19141
892.594	19274
892.717	19282
892.839	19354
892.962	19217
893.085	19362
893.207	19183
893.33	19103
893.452	19244
893.575	19187
893.697	19251
893.819	19449
893.941	19400
894.064	19335
894.186	19168
894.308	19171
894.43	19289
894.552	19460
894.674	19297
894.796	19110
894.918	19236
895.04	19301
895.161	19316
895.283	19339
895.405	19225
895.526	19175
895.648	19236
895.769	19297
895.891	19324
896.012	19206
896.134	19293
896.255	19350
896.376	19251
896.498	19187
896.619	19362
896.74	19320
896.861	19403
896.982	19624
897.103	19696
897.224	19499
897.345	19563
897.466	19521
897.587	19506
897.708	19597
897.828	19552
897.949	19502
898.07	19472
898.19	19415
898.311	19628
898.431	19491
898.552	19460
898.672	19537
898.792	19483
898.913	19548
899.033	19415
899.153	19320
899.273	19187
899.393	19282
899.513	19206
899.633	19278
899.753	19278
899.873	19137
899.993	19255
900.113	19110
900.232	19198
900.352	19141
900.472	19156
900.591	18966
900.711	19065
900.83	18996
900.95	19148
901.069	19152
901.189	19038
901.308	18681
901.427	18585
901.546	18707
901.665	18661
901.784	18608
901.904	18498
902.023	18361
902.141	18197
902.26	18251
902.379	18174
902.498	18163
902.617	18129
902.735	18190
902.854	18060
902.973	18110
903.091	17813
903.21	17840
903.328	17798
903.446	17699
903.565	17619
903.683	17570
903.801	17562
903.919	17619
904.038	17474
904.156	17383
904.274	17463
904.392	17387
904.51	17360
904.627	17398
904.745	17455
904.863	17395
904.981	17155
905.098	17022
905.216	16972
905.334	17200
905.451	17090
905.569	17052
905.686	17109
905.803	17113
905.921	16847
906.038	17014
906.155	16839
906.272	16698
906.389	16763
906.506	16725
906.623	16584
906.74	16702
906.857	16550
906.974	16561
907.091	16580
907.208	16763
907.324	16607
907.441	16504
907.557	16386
907.674	16363
907.79	16230
907.907	16341
908.023	16341
908.139	16230
908.256	16268
908.372	16253
908.488	16128
908.604	16063
908.72	15987
908.836	16101
908.952	16059
909.068	15972
909.184	16090
909.3	15945
909.415	16086
909.531	16010
909.647	15766
909.762	15785
909.878	15686
909.993	15732
910.108	15778
910.224	15660
910.339	15797
910.454	15561
910.57	15561
910.685	15416
910.8	15694
910.915	15629
911.03	15523
911.145	15367
911.259	15310
911.374	15317
911.489	15317
911.604	15180
911.718	15047
911.833	14982
911.947	14910
912.062	14864
912.176	15020
912.291	15085
912.405	15097
912.519	15211
912.633	15310
912.748	15165
912.862	15142
912.976	14967
913.09	14731
913.204	14796
913.318	14811
913.431	15017
913.545	15005
913.659	15039
913.772	14811
913.886	14754
914	14621
914.113	14788
914.226	14781
914.34	14697
914.453	14583
914.566	14701
914.68	14575
914.793	14568
914.906	14355
915.019	14339
915.132	14240
915.245	14370
915.358	14328
915.47	14362
915.583	14366
915.696	14362
915.809	14431
915.921	14419
916.034	14298
916.146	14191
916.259	14229
916.371	14355
916.483	14370
916.595	14187
916.708	14149
916.82	14237
916.932	14100
917.044	14084
917.156	14111
917.268	13913
917.38	14096
917.491	13997
917.603	13921
917.715	14039
917.826	14077
917.938	13936
918.049	13860
918.161	13917
918.272	14092
918.384	14092
918.495	13909
918.606	13890
918.717	13757
918.828	13841
918.939	13814
919.05	13715
919.161	13704
919.272	13613
919.383	13632
919.494	13822
919.604	13944
919.715	13769
919.826	13651
919.936	13772
920.047	13765
920.157	13708
920.267	13913
920.378	13814
920.488	13769
920.598	13890
920.708	14050
920.818	13841
920.928	13906
921.038	14005
921.148	14012
921.258	13712
921.368	13670
921.477	13495
921.587	13434
921.697	13411
921.806	13548
921.916	13339
922.025	13263
922.134	13084
922.244	13141
922.353	13213
922.462	12993
922.571	12916
922.68	12844
922.789	12730
922.898	12772
923.007	12684
923.116	12859
923.224	12654
923.333	12852
923.442	12654
923.55	12593
923.659	12688
923.767	12787
923.876	12547
923.984	12715
924.092	12483
924.201	12658
924.309	12456
924.417	12627
924.525	12509
924.633	12540
924.741	13209
924.849	12403
924.956	12437
925.064	12254
925.172	12201
925.279	12228
925.387	12220
925.494	12262
925.602	12338
925.709	12273
925.816	12205
925.924	12205
926.031	12213
926.138	12235
926.245	12323
926.352	12060
926.459	12251
926.566	12277
926.673	12106
926.779	12026
926.886	11950
926.993	11866
927.099	11832
927.206	11714
927.312	11691
927.419	11942
927.525	11824
927.631	11882
927.737	11767
927.843	11627
927.95	11619
928.056	11611
928.162	11619
928.267	11695
928.373	12338
928.479	11714
928.585	11486
928.69	11573
928.796	11684
928.901	11471
929.007	11410
929.112	11471
929.218	11528
929.323	11440
929.428	11387
929.533	11577
929.638	11334
929.743	11360
929.848	11452
929.953	11383
930.058	11296
930.163	11086
930.267	11105
930.372	11254
930.477	10995
930.581	11258
930.685	11185
930.79	10934
930.894	10987
930.998	10961
931.103	11071
931.207	10805
931.311	10736
931.415	10607
931.519	10352
931.623	10352
