Data from test_V78500241_844.txt Node
Date: Fri Mar 25 15:15:44 CST 2022
User: usil
Spectrometer: V785-0024
Trigger mode: 0
Integration Time (sec): 4.000000E-1
Scans to average: 1
Nonlinearity correction enabled: false
Boxcar width: 0
Storing dark spectrum: false
XAxis mode: Wavelengths
Number of Pixels in Spectrum: 1024
>>>>>Begin Spectral Data<<<<<
801.071	28287
801.214	28310
801.356	28112
801.499	28040
801.641	27774
801.783	27850
801.926	27926
802.068	27857
802.211	27838
802.353	27599
802.496	27519
802.638	27485
802.78	27500
802.923	27439
803.065	27523
803.208	27405
803.35	27572
803.492	27736
803.635	27778
803.777	27553
803.919	27759
804.061	27983
804.204	27701
804.346	27515
804.488	27682
804.63	27747
804.773	27614
804.915	27865
805.057	27827
805.199	27698
805.341	27903
805.483	27903
805.626	27781
805.768	27747
805.91	27812
806.052	27838
806.194	28093
806.336	28177
806.478	28006
806.62	27911
806.762	27941
806.904	28253
807.046	28360
807.188	28234
807.33	28242
807.472	28401
807.614	28295
807.756	28246
807.898	28238
808.04	28051
808.182	28006
808.324	28185
808.465	28268
808.607	28466
808.749	28531
808.891	28580
809.033	28653
809.174	28554
809.316	28550
809.458	28565
809.6	28569
809.741	28702
809.883	28763
810.025	28915
810.166	28900
810.308	28828
810.45	28782
810.591	28869
810.733	28618
810.875	28580
811.016	28584
811.158	28466
811.299	28702
811.441	28733
811.582	28702
811.724	28672
811.865	28577
812.007	28440
812.148	28687
812.29	28535
812.431	28771
812.573	28965
812.714	29056
812.855	29159
812.997	29299
813.138	29425
813.279	29341
813.421	29200
813.562	29159
813.703	29003
813.845	29006
813.986	28592
814.127	28421
814.268	28215
814.41	28329
814.551	28329
814.692	28417
814.833	28348
814.974	28181
815.115	28310
815.256	28230
815.397	28059
815.539	28188
815.68	28112
815.821	28002
815.962	28143
816.103	28086
816.244	27930
816.385	27907
816.526	28010
816.666	27610
816.807	27583
816.948	27774
817.089	27720
817.23	27622
817.371	27652
817.512	27656
817.653	27755
817.793	27523
817.934	27667
818.075	27644
818.216	27633
818.356	27439
818.497	27447
818.638	27279
818.778	27321
818.919	27355
819.06	27363
819.2	27587
819.341	27610
819.481	27682
819.622	27797
819.762	27888
819.903	27926
820.043	27842
820.184	27793
820.324	27656
820.465	27930
820.605	27622
820.746	27732
820.886	27523
821.026	27724
821.167	27705
821.307	27914
821.447	27561
821.588	27557
821.728	27439
821.868	27237
822.008	27074
822.149	26948
822.289	27013
822.429	26781
822.569	26785
822.709	26739
822.849	26549
822.99	26663
823.13	26583
823.27	26575
823.41	26507
823.55	26419
823.69	26294
823.83	26492
823.97	26579
824.11	26172
824.25	26180
824.389	26252
824.529	26393
824.669	26199
824.809	26328
824.949	26328
825.089	26328
825.228	26305
825.368	26065
825.508	26119
825.648	26149
825.787	26263
825.927	26195
826.067	26195
826.206	26084
826.346	26282
826.485	26157
826.625	26149
826.765	26149
826.904	26126
827.044	25902
827.183	25909
827.323	25845
827.462	25921
827.601	25955
827.741	25784
827.88	25856
828.02	25601
828.159	25719
828.298	25826
828.437	25944
828.577	25727
828.716	25944
828.855	25871
828.994	25533
829.134	25613
829.273	25658
829.412	25533
829.551	25624
829.69	25468
829.829	25632
829.968	25586
830.107	25666
830.246	25491
830.385	25540
830.524	25491
830.663	25282
830.802	25316
830.941	25156
831.08	25209
831.219	25194
831.357	25232
831.496	25422
831.635	25110
831.774	25118
831.913	25069
832.051	24897
832.19	24981
832.329	25000
832.467	24738
832.606	24852
832.744	24897
832.883	24700
833.022	24791
833.16	24783
833.299	24958
833.437	24749
833.576	24924
833.714	24905
833.852	24932
833.991	24989
834.129	24939
834.267	24939
834.406	24707
834.544	25012
834.682	24875
834.821	24894
834.959	25118
835.097	24787
835.235	24882
835.373	24825
835.511	24871
835.65	24654
835.788	24817
835.926	24627
836.064	24498
836.202	24559
836.34	24650
836.478	24745
836.615	24677
836.753	24734
836.891	24802
837.029	24741
837.167	24578
837.305	24688
837.443	24582
837.58	24673
837.718	24601
837.856	24631
837.993	24517
838.131	24582
838.269	24323
838.406	24521
838.544	24292
838.681	24296
838.819	24266
838.956	23878
839.094	24053
839.231	24167
839.369	24121
839.506	24353
839.643	24129
839.781	23935
839.918	23901
840.055	23882
840.193	23980
840.33	23916
840.467	23961
840.604	23901
840.742	24167
840.879	23771
841.016	23885
841.153	23832
841.29	24102
841.427	24015
841.564	23965
841.701	23939
841.838	23840
841.975	23748
842.112	23752
842.249	23741
842.385	23592
842.522	23794
842.659	23718
842.796	23790
842.933	23741
843.069	23551
843.206	23592
843.343	23619
843.479	23665
843.616	23661
843.752	23509
843.889	23463
844.025	23573
844.162	23452
844.298	23539
844.435	23478
844.571	23288
844.708	23509
844.844	23543
844.98	23646
845.117	23604
845.253	23452
845.389	23265
845.525	23414
845.661	23258
845.798	23105
845.934	23269
846.07	23132
846.206	23067
846.342	23185
846.478	23223
846.614	22889
846.75	22866
846.886	22839
847.022	23029
847.158	22862
847.294	22972
847.429	22869
847.565	22869
847.701	23136
847.837	22527
847.972	22596
848.108	22607
848.244	22641
848.379	22569
848.515	22527
848.65	22516
848.786	22573
848.921	22455
849.057	22641
849.192	22618
849.328	22565
849.463	22592
849.598	22371
849.734	22405
849.869	22462
850.004	22192
850.14	22291
850.275	22371
850.41	22074
850.545	22276
850.68	22223
850.815	22287
850.95	22173
851.085	22421
851.22	22447
851.355	22169
851.49	22333
851.625	22215
851.76	22280
851.895	22192
852.03	22238
852.165	22188
852.299	22253
852.434	22223
852.569	22356
852.703	22169
852.838	22299
852.973	22390
853.107	22360
853.242	22211
853.376	21987
853.511	22021
853.645	22029
853.78	22272
853.914	22253
854.048	22124
854.183	21926
854.317	21979
854.451	22211
854.585	22169
854.72	22021
854.854	22101
854.988	22070
855.122	21964
855.256	21979
855.39	22040
855.524	22147
855.658	21972
855.792	22185
855.926	22063
856.06	21979
856.194	22162
856.327	22029
856.461	21869
856.595	22006
856.729	22101
856.862	22067
856.996	22044
857.13	22207
857.263	22150
857.397	22169
857.53	21983
857.664	22090
857.797	22223
857.931	22211
858.064	22147
858.197	22196
858.331	22078
858.464	21998
858.597	21998
858.731	22082
858.864	22032
858.997	22029
859.13	22017
859.263	22063
859.396	22109
859.529	22021
859.662	22055
859.795	21972
859.928	22067
860.061	22120
860.194	22299
860.327	22154
860.46	22040
860.592	22143
860.725	22150
860.858	22105
860.99	22112
861.123	21949
861.256	21884
861.388	22162
861.521	22877
861.653	21956
861.786	21850
861.918	21808
862.05	21918
862.183	22063
862.315	22051
862.447	22013
862.58	22109
862.712	21739
862.844	21709
862.976	21823
863.108	21823
863.24	22109
863.372	21682
863.504	21743
863.636	21747
863.768	21804
863.9	21793
864.032	21724
864.164	21755
864.296	21842
864.428	21880
864.559	21778
864.691	21762
864.823	21736
864.954	21759
865.086	21671
865.217	21686
865.349	21599
865.48	21614
865.612	21682
865.743	21717
865.875	21679
866.006	21648
866.137	21564
866.269	21553
866.4	21610
866.531	21660
866.662	21599
866.793	21576
866.924	21618
867.055	21660
867.186	21519
867.317	21496
867.448	21408
867.579	21526
867.71	21340
867.841	21435
867.972	21580
868.103	21553
868.233	21466
868.364	21663
868.495	21663
868.625	21762
868.756	21918
868.886	21724
869.017	21751
869.147	21945
869.278	21983
869.408	21945
869.539	21846
869.669	21873
869.799	21926
869.929	21968
870.06	22044
870.19	22116
870.32	22116
870.45	22139
870.58	22139
870.71	22329
870.84	22265
870.97	22135
871.1	22192
871.23	22398
871.36	22451
871.489	22284
871.619	22367
871.749	22447
871.879	22493
872.008	22516
872.138	22318
872.267	22478
872.397	22177
872.526	22177
872.656	22272
872.785	22211
872.915	22466
873.044	22428
873.173	22466
873.303	22440
873.432	22512
873.561	22462
873.69	22519
873.819	22436
873.948	22535
874.077	22413
874.206	22265
874.335	22451
874.464	22516
874.593	22672
874.722	22649
874.851	22691
874.979	22668
875.108	22626
875.237	22611
875.365	22538
875.494	22516
875.623	22748
875.751	22641
875.88	22634
876.008	22713
876.136	22809
876.265	22984
876.393	23128
876.521	23071
876.65	23064
876.778	23086
876.906	22987
877.034	22968
877.162	23033
877.29	22862
877.418	22976
877.546	22854
877.674	23128
877.802	23018
877.93	22923
878.058	22984
878.185	22809
878.313	22984
878.441	23003
878.568	22892
878.696	22946
878.824	22965
878.951	22987
879.079	23128
879.206	23326
879.333	23288
879.461	23060
879.588	22953
879.715	23280
879.842	23322
879.97	23014
880.097	22839
880.224	22881
880.351	22835
880.478	22706
880.605	22637
880.732	22858
880.859	22999
880.986	22812
881.112	22858
881.239	22641
881.366	22516
881.493	22512
881.619	22405
881.746	22318
881.872	22386
881.999	22318
882.125	22223
882.252	22265
882.378	22348
882.505	22561
882.631	22234
882.757	22105
882.883	22109
883.01	22124
883.136	21953
883.262	21884
883.388	21975
883.514	22067
883.64	22021
883.766	22093
883.892	21755
884.018	21831
884.143	22055
884.269	22143
884.395	21778
884.52	21633
884.646	21720
884.772	21690
884.897	21637
885.023	21580
885.148	21797
885.274	21873
885.399	21804
885.524	21720
885.65	21656
885.775	21622
885.9	21641
886.025	21903
886.15	21789
886.275	21663
886.4	21564
886.525	21599
886.65	21637
886.775	21587
886.9	21903
887.025	21831
887.149	21595
887.274	21488
887.399	21519
887.523	21496
887.648	21363
887.773	21344
887.897	21538
888.021	21496
888.146	21416
888.27	21542
888.395	21538
888.519	21564
888.643	21401
888.767	21313
888.891	21405
889.015	21218
889.139	21226
889.263	21268
889.387	21420
889.511	21557
889.635	21374
889.759	21287
889.883	21226
890.006	21226
890.13	21382
890.254	21108
890.377	21165
890.501	21074
890.624	21013
890.748	20895
890.871	20902
890.995	20670
891.118	20796
891.241	20914
891.364	20769
891.488	20811
891.611	20724
891.734	20861
891.857	20895
891.98	20861
892.103	20788
892.226	20796
892.349	20895
892.471	20492
892.594	20644
892.717	20701
892.839	20609
892.962	20705
893.085	20765
893.207	20712
893.33	20568
893.452	20476
893.575	20804
893.697	20674
893.819	20804
893.941	21024
894.064	20800
894.186	20686
894.308	20598
894.43	20739
894.552	20773
894.674	20727
894.796	20663
894.918	20579
895.04	20663
895.161	20746
895.283	20697
895.405	20587
895.526	20648
895.648	20697
895.769	20716
895.891	20686
896.012	20823
896.134	20746
896.255	20788
896.376	20621
896.498	20667
896.619	20701
896.74	20659
896.861	20674
896.982	21043
897.103	21055
897.224	20891
897.345	20830
897.466	20849
897.587	20861
897.708	20952
897.828	20796
897.949	20929
898.07	20613
898.19	20868
898.311	20861
898.431	20807
898.552	20872
898.672	20864
898.792	20876
898.913	20975
899.033	20804
899.153	20773
899.273	20625
899.393	20590
899.513	20621
899.633	20762
899.753	20587
899.873	20480
899.993	20617
900.113	20564
900.232	20708
900.352	20556
900.472	20503
900.591	20469
900.711	20419
900.83	20290
900.95	20594
901.069	20396
901.189	20347
901.308	20096
901.427	20100
901.546	19909
901.665	20062
901.784	19883
901.904	19864
902.023	19803
902.141	19658
902.26	19510
902.379	19540
902.498	19400
902.617	19381
902.735	19430
902.854	19438
902.973	19400
903.091	19133
903.21	19156
903.328	19145
903.446	19012
903.565	18939
903.683	18890
903.801	18779
903.919	18958
904.038	18920
904.156	18745
904.274	18791
904.392	18639
904.51	18684
904.627	18791
904.745	18681
904.863	18772
904.981	18467
905.098	18372
905.216	18350
905.334	18422
905.451	18437
905.569	18304
905.686	18391
905.803	18380
905.921	18190
906.038	18308
906.155	18159
906.272	18011
906.389	18102
906.506	17927
906.623	17946
906.74	17908
906.857	17821
906.974	17821
907.091	18007
907.208	17958
907.324	17901
907.441	17771
907.557	17581
907.674	17619
907.79	17566
907.907	17596
908.023	17634
908.139	17562
908.256	17649
908.372	17532
908.488	17436
908.604	17334
908.72	17204
908.836	17372
908.952	17273
909.068	17417
909.184	17417
909.3	17368
909.415	17330
909.531	17265
909.647	17029
909.762	16968
909.878	16987
909.993	16999
910.108	17086
910.224	16862
910.339	16957
910.454	16889
910.57	16850
910.685	16847
910.8	17117
910.915	17060
911.03	16835
911.145	16611
911.259	16611
911.374	16535
911.489	16656
911.604	16546
911.718	16375
911.833	16318
911.947	16352
912.062	16265
912.176	16382
912.291	16306
912.405	16261
912.519	16554
912.633	16379
912.748	16360
912.862	16371
912.976	16196
913.09	16029
913.204	16067
913.318	16188
913.431	16215
913.545	16253
913.659	16226
913.772	16162
913.886	15880
914	15983
914.113	16086
914.226	16131
914.34	16059
914.453	15956
914.566	15994
914.68	15918
914.793	15793
914.906	15686
915.019	15622
915.132	15523
915.245	15580
915.358	15557
915.47	15614
915.583	15458
915.696	15599
915.809	15667
915.921	15648
916.034	15515
916.146	15507
916.259	15424
916.371	15439
916.483	15492
916.595	15370
916.708	15359
916.82	15393
916.932	15370
917.044	15310
917.156	15211
917.268	15321
917.38	15165
917.491	15176
917.603	15135
917.715	15302
917.826	15340
917.938	15131
918.049	15032
918.161	15104
918.272	15321
918.384	15169
918.495	15077
918.606	14979
918.717	14861
918.828	14941
918.939	15005
919.05	14891
919.161	14868
919.272	14708
919.383	14712
919.494	14929
919.604	15123
919.715	14902
919.826	14834
919.936	14830
920.047	14963
920.157	14876
920.267	15043
920.378	14895
920.488	14876
920.598	15093
920.708	15119
920.818	15070
920.928	14990
921.038	15119
921.148	15097
921.258	14872
921.368	14689
921.477	14560
921.587	14568
921.697	14469
921.806	14632
921.916	14518
922.025	14286
922.134	14271
922.244	14240
922.353	14339
922.462	14043
922.571	14039
922.68	13951
922.789	13860
922.898	13841
923.007	13708
923.116	13951
923.224	13814
923.333	13837
923.442	13731
923.55	13712
923.659	13822
923.767	13803
923.876	13624
923.984	13799
924.092	13586
924.201	13666
924.309	13559
924.417	13624
924.525	13624
924.633	13643
924.741	14275
924.849	13381
924.956	13480
925.064	13312
925.172	13266
925.279	13316
925.387	13327
925.494	13373
925.602	13434
925.709	13304
925.816	13198
925.924	13198
926.031	13316
926.138	13228
926.245	13339
926.352	13133
926.459	13251
926.566	13339
926.673	13095
926.779	13015
926.886	13034
926.993	12798
927.099	12886
927.206	12741
927.312	12787
927.419	12981
927.525	12833
927.631	12840
927.737	12669
927.843	12711
927.95	12604
928.056	12669
928.162	12700
928.267	12650
928.373	13183
928.479	12745
928.585	12513
928.69	12642
928.796	12627
928.901	12486
929.007	12376
929.112	12437
929.218	12441
929.323	12399
929.428	12391
929.533	12494
929.638	12304
929.743	12308
929.848	12292
929.953	12414
930.058	12186
930.163	12038
930.267	12076
930.372	12194
930.477	11996
930.581	12171
930.685	12068
930.79	11916
930.894	11969
930.998	11973
931.103	12064
931.207	11771
931.311	11627
931.415	11501
931.519	11299
931.623	11170
