Data from test_V78500241_2526.txt Node
Date: Fri Mar 25 15:27:26 CST 2022
User: usil
Spectrometer: V785-0024
Trigger mode: 0
Integration Time (sec): 4.000000E-1
Scans to average: 1
Nonlinearity correction enabled: false
Boxcar width: 0
Storing dark spectrum: false
XAxis mode: Wavelengths
Number of Pixels in Spectrum: 1024
>>>>>Begin Spectral Data<<<<<
801.071	27226
801.214	27066
801.356	26853
801.499	26769
801.641	26750
801.783	26560
801.926	26655
802.068	26701
802.211	26644
802.353	26427
802.496	26358
802.638	26377
802.78	26267
802.923	26396
803.065	26122
803.208	26153
803.35	26275
803.492	26453
803.635	26412
803.777	26488
803.919	26453
804.061	26785
804.204	26339
804.346	26362
804.488	26298
804.63	26541
804.773	26320
804.915	26484
805.057	26545
805.199	26328
805.341	26438
805.483	26609
805.626	26693
805.768	26377
805.91	26461
806.052	26621
806.194	26625
806.336	26785
806.478	26625
806.62	26442
806.762	26636
806.904	26762
807.046	27104
807.188	26990
807.33	27043
807.472	27020
807.614	26796
807.756	26960
807.898	26830
808.04	26693
808.182	26746
808.324	26826
808.465	26891
808.607	26906
808.749	27089
808.891	27268
809.033	27287
809.174	27154
809.316	26952
809.458	27100
809.6	27096
809.741	27252
809.883	27275
810.025	27504
810.166	27420
810.308	27397
810.45	27386
810.591	27393
810.733	27077
810.875	27070
811.016	27131
811.158	27005
811.299	27279
811.441	27367
811.582	27340
811.724	27279
811.865	27116
812.007	27058
812.148	27146
812.29	27249
812.431	27294
812.573	27549
812.714	27530
812.855	27583
812.997	27644
813.138	27869
813.279	27690
813.421	27606
813.562	27393
813.703	27351
813.845	27519
813.986	27066
814.127	26792
814.268	26940
814.41	26872
814.551	26895
814.692	26876
814.833	26644
814.974	26804
815.115	26838
815.256	26560
815.397	26636
815.539	26743
815.68	26629
815.821	26583
815.962	26541
816.103	26587
816.244	26370
816.385	26351
816.526	26305
816.666	26092
816.807	26054
816.948	26115
817.089	26172
817.23	26180
817.371	26073
817.512	26168
817.653	26073
817.793	26031
817.934	26043
818.075	26100
818.216	26111
818.356	26020
818.497	25887
818.638	25841
818.778	25674
818.919	25818
819.06	25776
819.2	25795
819.341	25978
819.481	26050
819.622	26259
819.762	26210
819.903	26275
820.043	26187
820.184	26145
820.324	26130
820.465	26153
820.605	26126
820.746	26050
820.886	26084
821.026	26168
821.167	26016
821.307	26168
821.447	26168
821.588	26062
821.728	25765
821.868	25689
822.008	25483
822.149	25518
822.289	25548
822.429	25362
822.569	25232
822.709	25156
822.849	25084
822.99	25000
823.13	24817
823.27	24970
823.41	24901
823.55	24840
823.69	24844
823.83	24802
823.97	24741
824.11	24593
824.25	24612
824.389	24658
824.529	24837
824.669	24601
824.809	24840
824.949	24787
825.089	24776
825.228	24646
825.368	24464
825.508	24490
825.648	24517
825.787	24437
825.927	24688
826.067	24521
826.206	24441
826.346	24585
826.485	24578
826.625	24616
826.765	24593
826.904	24612
827.044	24194
827.183	24262
827.323	24266
827.462	24384
827.601	24277
827.741	24273
827.88	24251
828.02	24117
828.159	24213
828.298	24228
828.437	24228
828.577	24095
828.716	24292
828.855	24174
828.994	23847
829.134	23958
829.273	24068
829.412	23939
829.551	24011
829.69	23851
829.829	23973
829.968	24102
830.107	23961
830.246	24022
830.385	23882
830.524	23863
830.663	23832
830.802	23668
830.941	23520
831.08	23455
831.219	23657
831.357	23642
831.496	23676
831.635	23566
831.774	23452
831.913	23509
832.051	23326
832.19	23277
832.329	23330
832.467	23273
832.606	23151
832.744	23280
832.883	23239
833.022	23250
833.16	23193
833.299	23368
833.437	23151
833.576	23299
833.714	23322
833.852	23197
833.991	23410
834.129	23501
834.267	23429
834.406	23318
834.544	23318
834.682	23277
834.821	23292
834.959	23512
835.097	23292
835.235	23368
835.373	23322
835.511	23296
835.65	23208
835.788	23140
835.926	23075
836.064	23022
836.202	23029
836.34	23227
836.478	23235
836.615	23132
836.753	23258
836.891	23178
837.029	23185
837.167	23113
837.305	23140
837.443	23033
837.58	23003
837.718	23102
837.856	23098
837.993	22927
838.131	22984
838.269	22858
838.406	22980
838.544	22889
838.681	22637
838.819	22675
838.956	22447
839.094	22440
839.231	22527
839.369	22626
839.506	22900
839.643	22733
839.781	22573
839.918	22542
840.055	22470
840.193	22485
840.33	22489
840.467	22519
840.604	22527
840.742	22630
840.879	22428
841.016	22432
841.153	22493
841.29	22497
841.427	22402
841.564	22508
841.701	22409
841.838	22417
841.975	22276
842.112	22352
842.249	22306
842.385	22310
842.522	22577
842.659	22318
842.796	22200
842.933	22257
843.069	22124
843.206	22063
843.343	22162
843.479	22162
843.616	22242
843.752	21998
843.889	21998
844.025	22105
844.162	21869
844.298	21937
844.435	21964
844.571	22067
844.708	22120
844.844	22135
844.98	22040
845.117	22029
845.253	22006
845.389	21842
845.525	21850
845.661	21850
845.798	21652
845.934	21819
846.07	21755
846.206	21709
846.342	21835
846.478	21663
846.614	21515
846.75	21424
846.886	21504
847.022	21530
847.158	21496
847.294	21462
847.429	21393
847.565	21443
847.701	21660
847.837	21058
847.972	21157
848.108	21275
848.244	21294
848.379	21131
848.515	21074
848.65	21070
848.786	21028
848.921	20986
849.057	21093
849.192	20971
849.328	21142
849.463	21119
849.598	20986
849.734	20891
849.869	20857
850.004	20853
850.14	20857
850.275	20823
850.41	20788
850.545	20807
850.68	20891
850.815	20777
850.95	20682
851.085	21017
851.22	20891
851.355	20765
851.49	20902
851.625	20834
851.76	20823
851.895	20750
852.03	20674
852.165	20796
852.299	20838
852.434	20971
852.569	20800
852.703	20823
852.838	20902
852.973	21001
853.107	20944
853.242	20667
853.376	20701
853.511	20511
853.645	20541
853.78	20693
853.914	20720
854.048	20640
854.183	20602
854.317	20697
854.451	20819
854.585	20575
854.72	20720
854.854	20655
854.988	20495
855.122	20579
855.256	20499
855.39	20651
855.524	20640
855.658	20716
855.792	20712
855.926	20613
856.06	20712
856.194	20663
856.327	20609
856.461	20602
856.595	20568
856.729	20609
856.862	20754
856.996	20609
857.13	20659
857.263	20739
857.397	20868
857.53	20701
857.664	20625
857.797	20667
857.931	20769
858.064	20674
858.197	20682
858.331	20621
858.464	20609
858.597	20575
858.731	20621
858.864	20625
858.997	20545
859.13	20720
859.263	20590
859.396	20632
859.529	20613
859.662	20689
859.795	20583
859.928	20724
860.061	20826
860.194	20826
860.327	20659
860.46	20594
860.592	20800
860.725	20731
860.858	20724
860.99	20625
861.123	20587
861.256	20606
861.388	20674
861.521	21576
861.653	20522
861.786	20415
861.918	20495
862.05	20522
862.183	20583
862.315	20484
862.447	20632
862.58	20469
862.712	20347
862.844	20343
862.976	20385
863.108	20442
863.24	20735
863.372	20298
863.504	20374
863.636	20252
863.768	20305
863.9	20317
864.032	20244
864.164	20237
864.296	20381
864.428	20450
864.559	20377
864.691	20305
864.823	20423
864.954	20343
865.086	20396
865.217	20202
865.349	20210
865.48	20374
865.612	20320
865.743	20374
865.875	20366
866.006	20195
866.137	20282
866.269	20282
866.4	20252
866.531	20282
866.662	20180
866.793	20195
866.924	20256
867.055	20290
867.186	20221
867.317	20210
867.448	20130
867.579	20168
867.71	20168
867.841	20214
867.972	20263
868.103	20210
868.233	20161
868.364	20202
868.495	20240
868.625	20332
868.756	20667
868.886	20381
869.017	20381
869.147	20499
869.278	20564
869.408	20404
869.539	20419
869.669	20492
869.799	20511
869.929	20651
870.06	20526
870.19	20705
870.32	20686
870.45	20697
870.58	20823
870.71	20933
870.84	20861
870.97	20807
871.1	20804
871.23	20925
871.36	20910
871.489	20861
871.619	21081
871.749	20880
871.879	21222
872.008	21138
872.138	21074
872.267	21032
872.397	20899
872.526	20979
872.656	20857
872.785	20849
872.915	20948
873.044	21108
873.173	21074
873.303	21039
873.432	21195
873.561	21142
873.69	21188
873.819	21089
873.948	21138
874.077	21089
874.206	21146
874.335	21123
874.464	21096
874.593	21283
874.722	21226
874.851	21313
874.979	21359
875.108	21431
875.237	21344
875.365	21150
875.494	21245
875.623	21317
875.751	21348
875.88	21336
876.008	21424
876.136	21477
876.265	21724
876.393	21975
876.521	21705
876.65	21804
876.778	21629
876.906	21656
877.034	21701
877.162	21705
877.29	21679
877.418	21644
877.546	21785
877.674	21591
877.802	21660
877.93	21762
878.058	21667
878.185	21500
878.313	21580
878.441	21629
878.568	21447
878.696	21553
878.824	21679
878.951	21808
879.079	21770
879.206	21964
879.333	21861
879.461	21663
879.588	21781
879.715	21854
879.842	21968
879.97	21633
880.097	21564
880.224	21572
880.351	21557
880.478	21542
880.605	21408
880.732	21435
880.859	21781
880.986	21500
881.112	21622
881.239	21405
881.366	21188
881.493	21222
881.619	21192
881.746	21131
881.872	21058
881.999	21116
882.125	21039
882.252	20990
882.378	21081
882.505	21233
882.631	20975
882.757	20807
882.883	20864
883.01	20762
883.136	20754
883.262	20731
883.388	20606
883.514	20891
883.64	20842
883.766	20735
883.892	20499
884.018	20606
884.143	20762
884.269	20735
884.395	20556
884.52	20400
884.646	20438
884.772	20419
884.897	20324
885.023	20396
885.148	20488
885.274	20598
885.399	20469
885.524	20488
885.65	20393
885.775	20446
885.9	20488
886.025	20431
886.15	20590
886.275	20408
886.4	20305
886.525	20366
886.65	20351
886.775	20381
886.9	20427
887.025	20461
887.149	20328
887.274	20199
887.399	20153
887.523	20195
887.648	20054
887.773	20130
887.897	20305
888.021	20259
888.146	20225
888.27	20328
888.395	20267
888.519	20126
888.643	20229
888.767	20290
888.891	20088
889.015	20016
889.139	20130
889.263	19970
889.387	20149
889.511	20084
889.635	20157
889.759	19925
889.883	19993
890.006	20088
890.13	20084
890.254	19955
890.377	19928
890.501	19753
890.624	19761
890.748	19769
890.871	19670
890.995	19681
891.118	19487
891.241	19578
891.364	19647
891.488	19750
891.611	19613
891.734	19632
891.857	19651
891.98	19556
892.103	19632
892.226	19480
892.349	19540
892.471	19430
892.594	19582
892.717	19597
892.839	19597
892.962	19510
893.085	19495
893.207	19491
893.33	19377
893.452	19518
893.575	19495
893.697	19533
893.819	19742
893.941	19715
894.064	19715
894.186	19457
894.308	19472
894.43	19590
894.552	19651
894.674	19685
894.796	19472
894.918	19597
895.04	19510
895.161	19609
895.283	19540
895.405	19457
895.526	19506
895.648	19639
895.769	19457
895.891	19548
896.012	19674
896.134	19594
896.255	19575
896.376	19590
896.498	19559
896.619	19552
896.74	19514
896.861	19590
896.982	19849
897.103	19955
897.224	19830
897.345	19742
897.466	19864
897.587	19769
897.708	19887
897.828	19791
897.949	19712
898.07	19556
898.19	19590
898.311	19765
898.431	19742
898.552	19799
898.672	19791
898.792	19837
898.913	19719
899.033	19514
899.153	19594
899.273	19358
899.393	19407
899.513	19548
899.633	19559
899.753	19567
899.873	19453
899.993	19594
900.113	19491
900.232	19457
900.352	19392
900.472	19476
900.591	19240
900.711	19289
900.83	19217
900.95	19213
901.069	19354
901.189	19114
901.308	18939
901.427	18920
901.546	18920
901.665	18833
901.784	18833
901.904	18798
902.023	18654
902.141	18589
902.26	18475
902.379	18479
902.498	18395
902.617	18273
902.735	18445
902.854	18285
902.973	18216
903.091	18041
903.21	18057
903.328	18041
903.446	17969
903.565	17859
903.683	17813
903.801	17752
903.919	17855
904.038	17908
904.156	17649
904.274	17710
904.392	17684
904.51	17668
904.627	17642
904.745	17608
904.863	17767
904.981	17524
905.098	17444
905.216	17318
905.334	17395
905.451	17368
905.569	17204
905.686	17353
905.803	17345
905.921	17147
906.038	17242
906.155	17216
906.272	17094
906.389	17029
906.506	16839
906.623	16782
906.74	16930
906.857	16698
906.974	16812
907.091	16942
907.208	16896
907.324	16820
907.441	16767
907.557	16660
907.674	16630
907.79	16500
907.907	16542
908.023	16717
908.139	16656
908.256	16577
908.372	16569
908.488	16535
908.604	16314
908.72	16204
908.836	16303
908.952	16371
909.068	16382
909.184	16363
909.3	16284
909.415	16280
909.531	16280
909.647	16116
909.762	16051
909.878	15968
909.993	16010
910.108	16032
910.224	16010
910.339	15937
910.454	15979
910.57	15854
910.685	15690
910.8	15972
910.915	15983
911.03	15816
911.145	15675
911.259	15580
911.374	15663
911.489	15568
911.604	15473
911.718	15252
911.833	15386
911.947	15401
912.062	15378
912.176	15534
912.291	15504
912.405	15408
912.519	15660
912.633	15580
912.748	15519
912.862	15389
912.976	15249
913.09	15093
913.204	15195
913.318	15127
913.431	15408
913.545	15207
913.659	15313
913.772	15150
913.886	15055
914	15070
914.113	15058
914.226	15127
914.34	15055
914.453	14948
914.566	14986
914.68	14849
914.793	14876
914.906	14663
915.019	14514
915.132	14522
915.245	14613
915.358	14602
915.47	14674
915.583	14606
915.696	14598
915.809	14727
915.921	14731
916.034	14651
916.146	14533
916.259	14446
916.371	14617
916.483	14632
916.595	14431
916.708	14522
916.82	14419
916.932	14442
917.044	14412
917.156	14484
917.268	14290
917.38	14278
917.491	14294
917.603	14263
917.715	14324
917.826	14423
917.938	14309
918.049	14157
918.161	14237
918.272	14454
918.384	14476
918.495	14336
918.606	14107
918.717	14024
918.828	14096
918.939	14073
919.05	13928
919.161	14096
919.272	13879
919.383	13879
919.494	14103
919.604	14328
919.715	14092
919.826	13978
919.936	14008
920.047	14157
920.157	14077
920.267	14206
920.378	13978
920.488	14039
920.598	14202
920.708	14351
920.818	14130
920.928	14134
921.038	14415
921.148	14271
921.258	14008
921.368	13921
921.477	13822
921.587	13795
921.697	13708
921.806	13875
921.916	13658
922.025	13491
922.134	13468
922.244	13441
922.353	13521
922.462	13327
922.571	13187
922.68	13152
922.789	13137
922.898	13065
923.007	13008
923.116	12993
923.224	13012
923.333	13000
923.442	12985
923.55	12996
923.659	12894
923.767	13004
923.876	12924
923.984	12947
924.092	12821
924.201	12882
924.309	12787
924.417	12798
924.525	12738
924.633	12810
924.741	13719
924.849	12688
924.956	12745
925.064	12578
925.172	12509
925.279	12551
925.387	12559
925.494	12563
925.602	12582
925.709	12563
925.816	12372
925.924	12441
926.031	12608
926.138	12506
926.245	12547
926.352	12407
926.459	12551
926.566	12574
926.673	12414
926.779	12201
926.886	12357
926.993	12144
927.099	12155
927.206	11999
927.312	12060
927.419	12133
927.525	12098
927.631	12148
927.737	11984
927.843	12026
927.95	11855
928.056	11916
928.162	11923
928.267	11980
928.373	12517
928.479	11958
928.585	11771
928.69	11916
928.796	11980
928.901	11817
929.007	11657
929.112	11859
929.218	11737
929.323	11630
929.428	11619
929.533	11809
929.638	11668
929.743	11562
929.848	11703
929.953	11604
930.058	11512
930.163	11417
930.267	11356
930.372	11497
930.477	11376
930.581	11509
930.685	11482
930.79	11372
930.894	11280
930.998	11273
931.103	11334
931.207	11029
931.311	11010
931.415	10820
931.519	10694
931.623	10592
