Data from test_V78500241_124.txt Node
Date: Fri Mar 25 15:10:43 CST 2022
User: usil
Spectrometer: V785-0024
Trigger mode: 0
Integration Time (sec): 4.000000E-1
Scans to average: 1
Nonlinearity correction enabled: false
Boxcar width: 0
Storing dark spectrum: false
XAxis mode: Wavelengths
Number of Pixels in Spectrum: 1024
>>>>>Begin Spectral Data<<<<<
801.071	28051
801.214	28105
801.356	27850
801.499	27930
801.641	27747
801.783	27793
801.926	27675
802.068	27656
802.211	27583
802.353	27408
802.496	27374
802.638	27431
802.78	27382
802.923	27325
803.065	27214
803.208	27207
803.35	27313
803.492	27340
803.635	27408
803.777	27256
803.919	27447
804.061	27656
804.204	27488
804.346	27275
804.488	27294
804.63	27317
804.773	27180
804.915	27310
805.057	27397
805.199	27382
805.341	27294
805.483	27427
805.626	27317
805.768	27298
805.91	27348
806.052	27443
806.194	27469
806.336	27549
806.478	27401
806.62	27443
806.762	27500
806.904	27770
807.046	27793
807.188	27778
807.33	27701
807.472	27960
807.614	27747
807.756	27698
807.898	27466
808.04	27530
808.182	27583
808.324	27663
808.465	27580
808.607	27717
808.749	27953
808.891	28010
809.033	28021
809.174	27991
809.316	27953
809.458	27876
809.6	27926
809.741	28051
809.883	28139
810.025	28257
810.166	28109
810.308	28230
810.45	28105
810.591	28105
810.733	27918
810.875	27705
811.016	27857
811.158	27751
811.299	27869
811.441	27994
811.582	28036
811.724	27793
811.865	27739
812.007	27770
812.148	27854
812.29	27914
812.431	28010
812.573	28253
812.714	28261
812.855	28390
812.997	28360
813.138	28691
813.279	28341
813.421	28356
813.562	28261
813.703	28055
813.845	27979
813.986	27705
814.127	27644
814.268	27473
814.41	27629
814.551	27564
814.692	27564
814.833	27393
814.974	27488
815.115	27405
815.256	27374
815.397	27359
815.539	27279
815.68	27245
815.821	27154
815.962	27237
816.103	27256
816.244	27074
816.385	26868
816.526	27119
816.666	26807
816.807	26750
816.948	26571
817.089	26667
817.23	26762
817.371	26602
817.512	26678
817.653	26594
817.793	26632
817.934	26670
818.075	26724
818.216	26587
818.356	26511
818.497	26393
818.638	26290
818.778	26511
818.919	26412
819.06	26343
819.2	26473
819.341	26511
819.481	26522
819.622	26644
819.762	26731
819.903	26788
820.043	26606
820.184	26530
820.324	26556
820.465	26716
820.605	26587
820.746	26617
820.886	26423
821.026	26564
821.167	26545
821.307	26549
821.447	26594
821.588	26438
821.728	26336
821.868	26221
822.008	25982
822.149	25860
822.289	25921
822.429	25761
822.569	25632
822.709	25670
822.849	25377
822.99	25301
823.13	25434
823.27	25365
823.41	25304
823.55	25156
823.69	25263
823.83	25335
823.97	25171
824.11	25114
824.25	24985
824.389	25228
824.529	25095
824.669	25000
824.809	25179
824.949	24992
825.089	25080
825.228	25126
825.368	24878
825.508	24844
825.648	24913
825.787	24924
825.927	24856
826.067	24928
826.206	24863
826.346	24916
826.485	24745
826.625	24951
826.765	24859
826.904	24829
827.044	24574
827.183	24601
827.323	24551
827.462	24700
827.601	24589
827.741	24490
827.88	24700
828.02	24380
828.159	24426
828.298	24665
828.437	24540
828.577	24365
828.716	24559
828.855	24536
828.994	24220
829.134	24270
829.273	24190
829.412	24209
829.551	24281
829.69	24174
829.829	24285
829.968	24205
830.107	24342
830.246	24186
830.385	24125
830.524	24216
830.663	24072
830.802	23984
830.941	23824
831.08	23756
831.219	23927
831.357	23893
831.496	24034
831.635	23813
831.774	23649
831.913	23729
832.051	23562
832.19	23547
832.329	23653
832.467	23505
832.606	23318
832.744	23455
832.883	23539
833.022	23391
833.16	23467
833.299	23406
833.437	23573
833.576	23505
833.714	23406
833.852	23581
833.991	23520
834.129	23467
834.267	23619
834.406	23448
834.544	23520
834.682	23459
834.821	23436
834.959	23627
835.097	23334
835.235	23474
835.373	23242
835.511	23421
835.65	23299
835.788	23269
835.926	23231
836.064	23067
836.202	23117
836.34	23307
836.478	23360
836.615	23239
836.753	23421
836.891	23299
837.029	23216
837.167	23170
837.305	23060
837.443	23113
837.58	23090
837.718	23143
837.856	23162
837.993	23014
838.131	23003
838.269	22961
838.406	23010
838.544	22919
838.681	22713
838.819	22740
838.956	22535
839.094	22523
839.231	22611
839.369	22691
839.506	22972
839.643	22660
839.781	22542
839.918	22512
840.055	22535
840.193	22535
840.33	22333
840.467	22344
840.604	22405
840.742	22569
840.879	22242
841.016	22459
841.153	22276
841.29	22466
841.427	22417
841.564	22466
841.701	22398
841.838	22314
841.975	22322
842.112	22306
842.249	22253
842.385	22059
842.522	22398
842.659	22280
842.796	22150
842.933	22101
843.069	22040
843.206	22021
843.343	22150
843.479	22154
843.616	22185
843.752	21873
843.889	21949
844.025	22090
844.162	21998
844.298	21994
844.435	21941
844.571	21819
844.708	21884
844.844	21956
844.98	22059
845.117	22090
845.253	21781
845.389	21656
845.525	21823
845.661	21732
845.798	21549
845.934	21591
846.07	21633
846.206	21587
846.342	21835
846.478	21515
846.614	21378
846.75	21321
846.886	21401
847.022	21447
847.158	21344
847.294	21283
847.429	21332
847.565	21302
847.701	21431
847.837	21119
847.972	21127
848.108	21176
848.244	21093
848.379	20986
848.515	20842
848.65	20963
848.786	20842
848.921	20868
849.057	21024
849.192	20925
849.328	20971
849.463	20864
849.598	20785
849.734	20762
849.869	20758
850.004	20648
850.14	20663
850.275	20621
850.41	20545
850.545	20583
850.68	20655
850.815	20541
850.95	20720
851.085	20918
851.22	20743
851.355	20621
851.49	20575
851.625	20587
851.76	20648
851.895	20602
852.03	20419
852.165	20590
852.299	20629
852.434	20590
852.569	20629
852.703	20617
852.838	20636
852.973	20629
853.107	20598
853.242	20579
853.376	20419
853.511	20313
853.645	20530
853.78	20564
853.914	20556
854.048	20427
854.183	20514
854.317	20408
854.451	20545
854.585	20457
854.72	20434
854.854	20609
854.988	20434
855.122	20412
855.256	20298
855.39	20415
855.524	20549
855.658	20450
855.792	20511
855.926	20442
856.06	20461
856.194	20537
856.327	20229
856.461	20362
856.595	20438
856.729	20412
856.862	20530
856.996	20419
857.13	20469
857.263	20533
857.397	20560
857.53	20419
857.664	20511
857.797	20488
857.931	20579
858.064	20339
858.197	20465
858.331	20400
858.464	20332
858.597	20240
858.731	20396
858.864	20370
858.997	20374
859.13	20499
859.263	20332
859.396	20454
859.529	20282
859.662	20400
859.795	20286
859.928	20305
860.061	20533
860.194	20522
860.327	20412
860.46	20492
860.592	20438
860.725	20450
860.858	20488
860.99	20347
861.123	20339
861.256	20320
861.388	20370
861.521	21024
861.653	20199
861.786	20183
861.918	20339
862.05	20366
862.183	20351
862.315	20332
862.447	20484
862.58	20358
862.712	20100
862.844	20252
862.976	20100
863.108	19989
863.24	20606
863.372	19989
863.504	19974
863.636	20084
863.768	20043
863.9	20081
864.032	20088
864.164	19974
864.296	20084
864.428	20161
864.559	20107
864.691	20183
864.823	20130
864.954	20100
865.086	20008
865.217	19883
865.349	19887
865.48	19967
865.612	19947
865.743	19947
865.875	19951
866.006	19947
866.137	19909
866.269	19765
866.4	19936
866.531	20012
866.662	19791
866.793	19875
866.924	19913
867.055	20008
867.186	20054
867.317	19951
867.448	19841
867.579	19928
867.71	19750
867.841	19753
867.972	19868
868.103	19879
868.233	19822
868.364	19913
868.495	20054
868.625	20111
868.756	20305
868.886	19963
869.017	20142
869.147	20343
869.278	20252
869.408	20084
869.539	20187
869.669	20259
869.799	20187
869.929	20244
870.06	20286
870.19	20480
870.32	20427
870.45	20518
870.58	20465
870.71	20507
870.84	20636
870.97	20549
871.1	20507
871.23	20735
871.36	20708
871.489	20667
871.619	20598
871.749	20571
871.879	20830
872.008	20845
872.138	20727
872.267	20785
872.397	20613
872.526	20492
872.656	20499
872.785	20530
872.915	20648
873.044	20994
873.173	20663
873.303	20743
873.432	20842
873.561	20792
873.69	20708
873.819	20693
873.948	20864
874.077	20750
874.206	20697
874.335	20834
874.464	20826
874.593	20986
874.722	20952
874.851	20929
874.979	21100
875.108	21123
875.237	20990
875.365	20819
875.494	20906
875.623	21081
875.751	21047
875.88	21154
876.008	21104
876.136	21245
876.265	21332
876.393	21583
876.521	21450
876.65	21382
876.778	21412
876.906	21332
877.034	21283
877.162	21348
877.29	21348
877.418	21374
877.546	21363
877.674	21340
877.802	21370
877.93	21279
878.058	21332
878.185	21294
878.313	21359
878.441	21408
878.568	21089
878.696	21207
878.824	21492
878.951	21405
879.079	21534
879.206	21633
879.333	21542
879.461	21386
879.588	21386
879.715	21515
879.842	21599
879.97	21401
880.097	21135
880.224	21203
880.351	21230
880.478	21245
880.605	21260
880.732	21195
880.859	21412
880.986	21207
881.112	21222
881.239	21180
881.366	20918
881.493	20918
881.619	20754
881.746	20899
881.872	20826
881.999	20743
882.125	20705
882.252	20781
882.378	20609
882.505	20979
882.631	20644
882.757	20583
882.883	20644
883.01	20366
883.136	20408
883.262	20408
883.388	20267
883.514	20526
883.64	20541
883.766	20389
883.892	20347
884.018	20412
884.143	20492
884.269	20621
884.395	20252
884.52	20153
884.646	20218
884.772	20065
884.897	19932
885.023	20237
885.148	20202
885.274	20290
885.399	20309
885.524	20214
885.65	20111
885.775	20229
885.9	20138
886.025	20233
886.15	20248
886.275	20069
886.4	20126
886.525	20138
886.65	20145
886.775	20035
886.9	20187
887.025	20362
887.149	20199
887.274	19894
887.399	19909
887.523	19849
887.648	19936
887.773	19723
887.897	19955
888.021	19997
888.146	19833
888.27	19970
888.395	19982
888.519	20035
888.643	19925
888.767	19959
888.891	19849
889.015	19670
889.139	19708
889.263	19761
889.387	19909
889.511	19959
889.635	19788
889.759	19647
889.883	19609
890.006	19696
890.13	19814
890.254	19552
890.377	19597
890.501	19518
890.624	19407
890.748	19537
890.871	19384
890.995	19297
891.118	19232
891.241	19270
891.364	19156
891.488	19476
891.611	19331
891.734	19304
891.857	19282
891.98	19225
892.103	19339
892.226	19312
892.349	19282
892.471	19095
892.594	19217
892.717	19324
892.839	19217
892.962	19266
893.085	19247
893.207	19213
893.33	19141
893.452	19244
893.575	19209
893.697	19213
893.819	19343
893.941	19415
894.064	19354
894.186	19160
894.308	19209
894.43	19285
894.552	19377
894.674	19285
894.796	19069
894.918	19156
895.04	19129
895.161	19244
895.283	19339
895.405	19236
895.526	19198
895.648	19285
895.769	19179
895.891	19183
896.012	19171
896.134	19232
896.255	19308
896.376	19236
896.498	19225
896.619	19301
896.74	19255
896.861	19335
896.982	19556
897.103	19655
897.224	19506
897.345	19514
897.466	19346
897.587	19567
897.708	19548
897.828	19460
897.949	19438
898.07	19369
898.19	19422
898.311	19563
898.431	19457
898.552	19445
898.672	19556
898.792	19609
898.913	19525
899.033	19362
899.153	19225
899.273	19080
899.393	19285
899.513	19247
899.633	19168
899.753	19206
899.873	19168
899.993	19206
900.113	19141
900.232	19126
900.352	19141
900.472	19038
900.591	18806
900.711	19076
900.83	18970
900.95	19088
901.069	19023
901.189	18962
901.308	18593
901.427	18490
901.546	18669
901.665	18684
901.784	18551
901.904	18483
902.023	18422
902.141	18228
902.26	18121
902.379	18224
902.498	18087
902.617	18015
902.735	18019
902.854	18015
902.973	17988
903.091	17809
903.21	17836
903.328	17676
903.446	17707
903.565	17532
903.683	17501
903.801	17501
903.919	17615
904.038	17539
904.156	17436
904.274	17391
904.392	17421
904.51	17421
904.627	17376
904.745	17459
904.863	17356
904.981	17258
905.098	17060
905.216	17113
905.334	17037
905.451	17033
905.569	17025
905.686	17006
905.803	17102
905.921	16889
906.038	16839
906.155	16694
906.272	16752
906.389	16782
906.506	16550
906.623	16618
906.74	16497
906.857	16542
906.974	16371
907.091	16592
907.208	16710
907.324	16565
907.441	16455
907.557	16413
907.674	16253
907.79	16185
907.907	16192
908.023	16272
908.139	16223
908.256	16177
908.372	16150
908.488	16109
908.604	16032
908.72	15960
908.836	16002
908.952	15884
909.068	15895
909.184	16055
909.3	15972
909.415	15861
909.531	15987
909.647	15720
909.762	15648
909.878	15637
909.993	15576
910.108	15675
910.224	15568
910.339	15618
910.454	15447
910.57	15428
910.685	15401
910.8	15720
910.915	15545
911.03	15538
911.145	15294
911.259	15165
911.374	15279
911.489	15218
911.604	15188
911.718	15005
911.833	15013
911.947	14838
912.062	14781
912.176	14868
912.291	14986
912.405	15013
912.519	15108
912.633	15131
912.748	14967
912.862	14944
912.976	14811
913.09	14648
913.204	14773
913.318	14788
913.431	14880
913.545	14864
913.659	14895
913.772	14769
913.886	14648
914	14670
914.113	14739
914.226	14750
914.34	14674
914.453	14556
914.566	14655
914.68	14537
914.793	14469
914.906	14339
915.019	14259
915.132	14229
915.245	14263
915.358	14358
915.47	14313
915.583	14290
915.696	14168
915.809	14419
915.921	14461
916.034	14157
916.146	14180
916.259	14039
916.371	14290
916.483	14218
916.595	14073
916.708	14149
916.82	14100
916.932	14005
917.044	14027
917.156	14145
917.268	13955
917.38	13932
917.491	14012
917.603	13997
917.715	13894
917.826	14100
917.938	14005
918.049	13776
918.161	13902
918.272	14024
918.384	14005
918.495	13879
918.606	13803
918.717	13658
918.828	13803
918.939	13772
919.05	13613
919.161	13715
919.272	13487
919.383	13582
919.494	13814
919.604	13871
919.715	13693
919.826	13677
919.936	13670
920.047	13894
920.157	13727
920.267	13898
920.378	13746
920.488	13582
920.598	13837
920.708	14001
920.818	13826
920.928	13883
921.038	13993
921.148	13955
921.258	13700
921.368	13563
921.477	13441
921.587	13350
921.697	13285
921.806	13514
921.916	13343
922.025	13168
922.134	13012
922.244	13046
922.353	13118
922.462	12867
922.571	12810
922.68	12802
922.789	12829
922.898	12734
923.007	12749
923.116	12814
923.224	12745
923.333	12677
923.442	12616
923.55	12631
923.659	12604
923.767	12684
923.876	12582
923.984	12604
924.092	12494
924.201	12555
924.309	12467
924.417	12486
924.525	12448
924.633	12490
924.741	13179
924.849	12209
924.956	12372
925.064	12235
925.172	12121
925.279	12121
925.387	12216
925.494	12300
925.602	12334
925.709	12258
925.816	12155
925.924	12155
926.031	12220
926.138	12194
926.245	12213
926.352	12076
926.459	12277
926.566	12251
926.673	12049
926.779	11942
926.886	12026
926.993	11939
927.099	11794
927.206	11809
927.312	11665
927.419	11775
927.525	11843
927.631	11828
927.737	11722
927.843	11726
927.95	11524
928.056	11585
928.162	11737
928.267	11707
928.373	12209
928.479	11767
928.585	11478
928.69	11688
928.796	11676
928.901	11497
929.007	11433
929.112	11497
929.218	11448
929.323	11345
929.428	11337
929.533	11459
929.638	11379
929.743	11356
929.848	11341
929.953	11318
930.058	11258
930.163	11159
930.267	11033
930.372	11231
930.477	11006
930.581	11280
930.685	11166
930.79	10995
930.894	10930
930.998	10949
931.103	11079
931.207	10672
931.311	10656
931.415	10599
931.519	10344
931.623	10276
