Data from test_V78500241_1761.txt Node
Date: Fri Mar 25 15:22:07 CST 2022
User: usil
Spectrometer: V785-0024
Trigger mode: 0
Integration Time (sec): 4.000000E-1
Scans to average: 1
Nonlinearity correction enabled: false
Boxcar width: 0
Storing dark spectrum: false
XAxis mode: Wavelengths
Number of Pixels in Spectrum: 1024
>>>>>Begin Spectral Data<<<<<
801.071	28036
801.214	27838
801.356	27580
801.499	27545
801.641	27515
801.783	27416
801.926	27511
802.068	27450
802.211	27466
802.353	27294
802.496	27195
802.638	27268
802.78	27146
802.923	27062
803.065	27074
803.208	27085
803.35	27119
803.492	27199
803.635	27370
803.777	27169
803.919	27367
804.061	27504
804.204	27310
804.346	27412
804.488	27203
804.63	27325
804.773	27222
804.915	27507
805.057	27435
805.199	27214
805.341	27386
805.483	27492
805.626	27515
805.768	27523
805.91	27386
806.052	27435
806.194	27393
806.336	27526
806.478	27507
806.62	27447
806.762	27576
806.904	27766
807.046	28070
807.188	27827
807.33	27838
807.472	27998
807.614	27899
807.756	27728
807.898	27622
808.04	27694
808.182	27660
808.324	27755
808.465	27907
808.607	27994
808.749	28112
808.891	28242
809.033	28143
809.174	28109
809.316	28112
809.458	28078
809.6	28147
809.741	28261
809.883	28166
810.025	28310
810.166	28512
810.308	28314
810.45	28367
810.591	28207
810.733	28120
810.875	28032
811.016	28067
811.158	27968
811.299	28150
811.441	28249
811.582	28162
811.724	28006
811.865	27922
812.007	28029
812.148	28021
812.29	28116
812.431	28314
812.573	28382
812.714	28386
812.855	28649
812.997	28698
813.138	28793
813.279	28725
813.421	28519
813.562	28512
813.703	28478
813.845	28314
813.986	27907
814.127	28002
814.268	27835
814.41	27960
814.551	27732
814.692	27861
814.833	27720
814.974	27713
815.115	27816
815.256	27682
815.397	27694
815.539	27759
815.68	27641
815.821	27447
815.962	27523
816.103	27606
816.244	27473
816.385	27283
816.526	27382
816.666	27119
816.807	27032
816.948	27135
817.089	27180
817.23	27123
817.371	27100
817.512	27081
817.653	27036
817.793	27013
817.934	27009
818.075	27093
818.216	27180
818.356	26990
818.497	27036
818.638	26864
818.778	26906
818.919	26769
819.06	26990
819.2	27020
819.341	27100
819.481	27020
819.622	27230
819.762	27348
819.903	27397
820.043	27173
820.184	27173
820.324	27306
820.465	27203
820.605	27058
820.746	27279
820.886	27074
821.026	27180
821.167	27237
821.307	27112
821.447	27089
821.588	26940
821.728	26933
821.868	26674
822.008	26602
822.149	26617
822.289	26594
822.429	26298
822.569	26210
822.709	26149
822.849	26195
822.99	25959
823.13	26035
823.27	25963
823.41	25849
823.55	25849
823.69	25955
823.83	25982
823.97	25791
824.11	25586
824.25	25708
824.389	25689
824.529	25753
824.669	25746
824.809	25727
824.949	25852
825.089	25761
825.228	25731
825.368	25525
825.508	25525
825.648	25594
825.787	25502
825.927	25677
826.067	25700
826.206	25468
826.346	25685
826.485	25635
826.625	25776
826.765	25563
826.904	25540
827.044	25381
827.183	25343
827.323	25324
827.462	25521
827.601	25335
827.741	25270
827.88	25259
828.02	25141
828.159	25228
828.298	25346
828.437	25373
828.577	25228
828.716	25392
828.855	25198
828.994	24935
829.134	25053
829.273	25114
829.412	24958
829.551	25072
829.69	24920
829.829	25061
829.968	25061
830.107	25133
830.246	25088
830.385	24996
830.524	24897
830.663	24833
830.802	24837
830.941	24540
831.08	24555
831.219	24544
831.357	24764
831.496	24840
831.635	24745
831.774	24555
831.913	24452
832.051	24509
832.19	24479
832.329	24395
832.467	24319
832.606	24304
832.744	24308
832.883	24342
833.022	24311
833.16	24277
833.299	24342
833.437	24338
833.576	24296
833.714	24281
833.852	24308
833.991	24490
834.129	24403
834.267	24361
834.406	24365
834.544	24388
834.682	24418
834.821	24311
834.959	24528
835.097	24277
835.235	24441
835.373	24471
835.511	24258
835.65	24133
835.788	24285
835.926	24072
836.064	23961
836.202	24083
836.34	24095
836.478	24163
836.615	24194
836.753	24239
836.891	24292
837.029	24235
837.167	24125
837.305	24030
837.443	24190
837.58	23988
837.718	24076
837.856	24072
837.993	23961
838.131	24022
838.269	23847
838.406	23973
838.544	23958
838.681	23665
838.819	23718
838.956	23490
839.094	23566
839.231	23535
839.369	23752
839.506	23866
839.643	23779
839.781	23512
839.918	23417
840.055	23531
840.193	23471
840.33	23486
840.467	23356
840.604	23490
840.742	23714
840.879	23349
841.016	23398
841.153	23269
841.29	23474
841.427	23307
841.564	23493
841.701	23326
841.838	23444
841.975	23349
842.112	23299
842.249	23216
842.385	23140
842.522	23337
842.659	23223
842.796	23102
842.933	23128
843.069	23143
843.206	23174
843.343	23216
843.479	23341
843.616	23178
843.752	22885
843.889	22881
844.025	23204
844.162	22961
844.298	23090
844.435	22885
844.571	22965
844.708	22961
844.844	23056
844.98	23121
845.117	23083
845.253	22881
845.389	22763
845.525	22835
845.661	22683
845.798	22839
845.934	22645
846.07	22675
846.206	22649
846.342	22820
846.478	22763
846.614	22611
846.75	22371
846.886	22523
847.022	22432
847.158	22478
847.294	22500
847.429	22497
847.565	22417
847.701	22622
847.837	22188
847.972	22101
848.108	22143
848.244	22348
848.379	22036
848.515	22010
848.65	21945
848.786	22010
848.921	22036
849.057	22223
849.192	22093
849.328	22135
849.463	22097
849.598	21850
849.734	21960
849.869	21846
850.004	21701
850.14	21728
850.275	21903
850.41	21705
850.545	21766
850.68	21743
850.815	21747
850.95	21759
851.085	22048
851.22	21804
851.355	21755
851.49	21770
851.625	21736
851.76	21717
851.895	21713
852.03	21709
852.165	21743
852.299	21728
852.434	21785
852.569	21808
852.703	21781
852.838	21789
852.973	21934
853.107	21861
853.242	21679
853.376	21648
853.511	21378
853.645	21549
853.78	21709
853.914	21545
854.048	21618
854.183	21431
854.317	21667
854.451	21857
854.585	21606
854.72	21526
854.854	21690
854.988	21610
855.122	21526
855.256	21450
855.39	21583
855.524	21523
855.658	21656
855.792	21633
855.926	21583
856.06	21679
856.194	21637
856.327	21557
856.461	21416
856.595	21564
856.729	21431
856.862	21717
856.996	21625
857.13	21644
857.263	21644
857.397	21564
857.53	21568
857.664	21633
857.797	21694
857.931	21747
858.064	21473
858.197	21698
858.331	21656
858.464	21477
858.597	21500
858.731	21648
858.864	21572
858.997	21511
859.13	21526
859.263	21603
859.396	21759
859.529	21507
859.662	21538
859.795	21591
859.928	21606
860.061	21759
860.194	21888
860.327	21667
860.46	21641
860.592	21797
860.725	21610
860.858	21850
860.99	21709
861.123	21580
861.256	21629
861.388	21561
861.521	22432
861.653	21462
861.786	21424
861.918	21431
862.05	21507
862.183	21454
862.315	21561
862.447	21534
862.58	21439
862.712	21310
862.844	21173
862.976	21355
863.108	21374
863.24	21675
863.372	21252
863.504	21287
863.636	21252
863.768	21344
863.9	21249
864.032	21146
864.164	21264
864.296	21230
864.428	21378
864.559	21443
864.691	21363
864.823	21298
864.954	21279
865.086	21199
865.217	21203
865.349	21085
865.48	21214
865.612	21211
865.743	21450
865.875	21241
866.006	21256
866.137	21161
866.269	21123
866.4	21195
866.531	21150
866.662	21108
866.793	21123
866.924	21119
867.055	21093
867.186	21127
867.317	21116
867.448	20967
867.579	21009
867.71	21047
867.841	21077
867.972	21096
868.103	21100
868.233	21036
868.364	21077
868.495	21294
868.625	21332
868.756	21496
868.886	21195
869.017	21450
869.147	21450
869.278	21428
869.408	21317
869.539	21344
869.669	21378
869.799	21359
869.929	21507
870.06	21435
870.19	21705
870.32	21644
870.45	21690
870.58	21759
870.71	21865
870.84	21766
870.97	21797
871.1	21778
871.23	21850
871.36	21888
871.489	21922
871.619	21983
871.749	21991
871.879	21975
872.008	22101
872.138	22032
872.267	21949
872.397	21850
872.526	21766
872.656	21755
872.785	21953
872.915	21953
873.044	22051
873.173	21956
873.303	22112
873.432	22032
873.561	22090
873.69	21975
873.819	22040
873.948	22150
874.077	22078
874.206	21960
874.335	21907
874.464	22063
874.593	22223
874.722	22109
874.851	22352
874.979	22192
875.108	22253
875.237	22150
875.365	22188
875.494	22147
875.623	22268
875.751	22242
875.88	22196
876.008	22371
876.136	22325
876.265	22573
876.393	22710
876.521	22691
876.65	22706
876.778	22664
876.906	22489
877.034	22580
877.162	22413
877.29	22535
877.418	22493
877.546	22504
877.674	22470
877.802	22462
877.93	22550
878.058	22500
878.185	22379
878.313	22398
878.441	22462
878.568	22303
878.696	22398
878.824	22599
878.951	22782
879.079	22702
879.206	22805
879.333	22713
879.461	22580
879.588	22679
879.715	22550
879.842	22767
879.97	22645
880.097	22363
880.224	22382
880.351	22516
880.478	22325
880.605	22379
880.732	22440
880.859	22702
880.986	22447
881.112	22390
881.239	22265
881.366	22128
881.493	22036
881.619	22040
881.746	21987
881.872	21861
881.999	21941
882.125	21991
882.252	21991
882.378	21857
882.505	21979
882.631	21751
882.757	21671
882.883	21789
883.01	21667
883.136	21557
883.262	21504
883.388	21386
883.514	21667
883.64	21690
883.766	21595
883.892	21359
884.018	21431
884.143	21644
884.269	21724
884.395	21321
884.52	21351
884.646	21279
884.772	21287
884.897	21199
885.023	21245
885.148	21374
885.274	21439
885.399	21374
885.524	21272
885.65	21393
885.775	21462
885.9	21214
886.025	21275
886.15	21329
886.275	21283
886.4	21119
886.525	21142
886.65	21260
886.775	21291
886.9	21466
887.025	21428
887.149	21279
887.274	21085
887.399	21070
887.523	20994
887.648	21055
887.773	20891
887.897	21013
888.021	21051
888.146	20960
888.27	21192
888.395	21047
888.519	21146
888.643	21058
888.767	20986
888.891	20914
889.015	20899
889.139	20762
889.263	20762
889.387	20853
889.511	21089
889.635	20998
889.759	20823
889.883	20746
890.006	20963
890.13	20880
890.254	20861
890.377	20743
890.501	20640
890.624	20571
890.748	20575
890.871	20412
890.995	20431
891.118	20457
891.241	20328
891.364	20370
891.488	20434
891.611	20309
891.734	20355
891.857	20434
891.98	20320
892.103	20358
892.226	20328
892.349	20275
892.471	20103
892.594	20385
892.717	20244
892.839	20301
892.962	20240
893.085	20332
893.207	20248
893.33	20199
893.452	20259
893.575	20473
893.697	20313
893.819	20473
893.941	20526
894.064	20370
894.186	20237
894.308	20119
894.43	20400
894.552	20434
894.674	20339
894.796	20218
894.918	20145
895.04	20237
895.161	20476
895.283	20381
895.405	20073
895.526	20233
895.648	20187
895.769	20347
895.891	20282
896.012	20252
896.134	20317
896.255	20202
896.376	20324
896.498	20256
896.619	20282
896.74	20267
896.861	20454
896.982	20598
897.103	20785
897.224	20579
897.345	20537
897.466	20507
897.587	20526
897.708	20575
897.828	20564
897.949	20480
898.07	20336
898.19	20514
898.311	20606
898.431	20499
898.552	20556
898.672	20629
898.792	20564
898.913	20514
899.033	20450
899.153	20324
899.273	20202
899.393	20351
899.513	20438
899.633	20294
899.753	20313
899.873	20130
899.993	20267
900.113	20084
900.232	20324
900.352	20221
900.472	20081
900.591	20069
900.711	20012
900.83	19890
900.95	20062
901.069	19955
901.189	19936
901.308	19670
901.427	19567
901.546	19506
901.665	19544
901.784	19712
901.904	19411
902.023	19324
902.141	19126
902.26	19152
902.379	19175
902.498	19114
902.617	19278
902.735	19126
902.854	19088
902.973	19091
903.091	18810
903.21	18772
903.328	18776
903.446	18757
903.565	18601
903.683	18623
903.801	18540
903.919	18559
904.038	18426
904.156	18266
904.274	18471
904.392	18330
904.51	18277
904.627	18338
904.745	18403
904.863	18471
904.981	18220
905.098	17984
905.216	17992
905.334	18064
905.451	17961
905.569	17973
905.686	18095
905.803	18076
905.921	17726
906.038	17961
906.155	17805
906.272	17680
906.389	17741
906.506	17585
906.623	17524
906.74	17516
906.857	17471
906.974	17425
907.091	17634
907.208	17653
907.324	17691
907.441	17463
907.557	17261
907.674	17337
907.79	17151
907.907	17315
908.023	17330
908.139	17315
908.256	17288
908.372	17242
908.488	17143
908.604	17151
908.72	16995
908.836	17033
908.952	17045
909.068	17014
909.184	17121
909.3	16972
909.415	16957
909.531	16999
909.647	16778
909.762	16778
909.878	16664
909.993	16675
910.108	16668
910.224	16634
910.339	16649
910.454	16519
910.57	16527
910.685	16462
910.8	16706
910.915	16710
911.03	16470
911.145	16341
911.259	16257
911.374	16348
911.489	16219
911.604	16200
911.718	15945
911.833	16032
911.947	15960
912.062	15808
912.176	15945
912.291	16036
912.405	15975
912.519	16230
912.633	16181
912.748	16059
912.862	16105
912.976	15941
913.09	15759
913.204	15736
913.318	15907
913.431	15819
913.545	15789
913.659	15937
913.772	15865
913.886	15709
914	15629
914.113	15759
914.226	15755
914.34	15816
914.453	15534
914.566	15732
914.68	15549
914.793	15450
914.906	15291
915.019	15214
915.132	15165
915.245	15226
915.358	15173
915.47	15241
915.583	15226
915.696	15283
915.809	15378
915.921	15397
916.034	15169
916.146	15161
916.259	15138
916.371	15241
916.483	15173
916.595	15085
916.708	15039
916.82	15047
916.932	15074
917.044	15024
917.156	15024
917.268	14868
917.38	14941
917.491	14910
917.603	14880
917.715	14941
917.826	14921
917.938	14762
918.049	14708
918.161	14830
918.272	14941
918.384	14971
918.495	14826
918.606	14674
918.717	14564
918.828	14556
918.939	14674
919.05	14533
919.161	14686
919.272	14480
919.383	14503
919.494	14644
919.604	14724
919.715	14606
919.826	14473
919.936	14678
920.047	14606
920.157	14613
920.267	14792
920.378	14667
920.488	14556
920.598	14724
920.708	14925
920.818	14594
920.928	14651
921.038	14937
921.148	14834
921.258	14564
921.368	14431
921.477	14366
921.587	14374
921.697	14191
921.806	14294
921.916	14138
922.025	14027
922.134	14001
922.244	13932
922.353	14088
922.462	13845
922.571	13795
922.68	13601
922.789	13495
922.898	13681
923.007	13506
923.116	13662
923.224	13666
923.333	13632
923.442	13483
923.55	13407
923.659	13464
923.767	13529
923.876	13381
923.984	13441
924.092	13362
924.201	13247
924.309	13270
924.417	13278
924.525	13244
924.633	13335
924.741	14027
924.849	13076
924.956	13236
925.064	13053
925.172	13046
925.279	12947
925.387	13088
925.494	13133
925.602	13168
925.709	13145
925.816	12890
925.924	12916
926.031	13046
926.138	12890
926.245	13004
926.352	12844
926.459	13031
926.566	12962
926.673	12894
926.779	12791
926.886	12764
926.993	12662
927.099	12555
927.206	12589
927.312	12566
927.419	12658
927.525	12566
927.631	12578
927.737	12464
927.843	12369
927.95	12289
928.056	12448
928.162	12410
928.267	12525
928.373	13034
928.479	12479
928.585	12277
928.69	12410
928.796	12365
928.901	12289
929.007	12190
929.112	12232
929.218	12270
929.323	12197
929.428	12114
929.533	12224
929.638	12038
929.743	12114
929.848	12106
929.953	12068
930.058	11958
930.163	11794
930.267	11821
930.372	11904
930.477	11847
930.581	11996
930.685	11863
930.79	11688
930.894	11649
930.998	11653
931.103	11832
931.207	11440
931.311	11280
931.415	11288
931.519	11128
931.623	11121
