Data from test_V78500241_1878.txt Node
Date: Fri Mar 25 15:22:55 CST 2022
User: usil
Spectrometer: V785-0024
Trigger mode: 0
Integration Time (sec): 4.000000E-1
Scans to average: 1
Nonlinearity correction enabled: false
Boxcar width: 0
Storing dark spectrum: false
XAxis mode: Wavelengths
Number of Pixels in Spectrum: 1024
>>>>>Begin Spectral Data<<<<<
801.071	27823
801.214	27804
801.356	27614
801.499	27625
801.641	27549
801.783	27473
801.926	27488
802.068	27469
802.211	27492
802.353	27332
802.496	27157
802.638	27051
802.78	27157
802.923	26998
803.065	26960
803.208	26933
803.35	27058
803.492	27351
803.635	27302
803.777	27226
803.919	27291
804.061	27614
804.204	27367
804.346	27096
804.488	27142
804.63	27268
804.773	27233
804.915	27138
805.057	27447
805.199	27336
805.341	27351
805.483	27530
805.626	27447
805.768	27214
805.91	27367
806.052	27420
806.194	27233
806.336	27382
806.478	27462
806.62	27397
806.762	27504
806.904	27660
807.046	28021
807.188	27835
807.33	27823
807.472	27876
807.614	27854
807.756	27812
807.898	27564
808.04	27576
808.182	27580
808.324	27785
808.465	27641
808.607	27861
808.749	28150
808.891	28200
809.033	28082
809.174	28025
809.316	27975
809.458	27953
809.6	27907
809.741	28036
809.883	28211
810.025	28394
810.166	28211
810.308	28303
810.45	28226
810.591	28147
810.733	28078
810.875	28010
811.016	27911
811.158	27876
811.299	28169
811.441	28135
811.582	28082
811.724	27987
811.865	28082
812.007	27960
812.148	28021
812.29	28097
812.431	28291
812.573	28394
812.714	28451
812.855	28565
812.997	28675
813.138	28755
813.279	28634
813.421	28656
813.562	28519
813.703	28337
813.845	28226
813.986	28017
814.127	27808
814.268	27701
814.41	27793
814.551	27667
814.692	27720
814.833	27648
814.974	27686
815.115	27842
815.256	27564
815.397	27595
815.539	27667
815.68	27561
815.821	27458
815.962	27450
816.103	27485
816.244	27313
816.385	27176
816.526	27275
816.666	27062
816.807	26963
816.948	27089
817.089	26948
817.23	26948
817.371	27017
817.512	26971
817.653	26960
817.793	26880
817.934	26975
818.075	27036
818.216	27036
818.356	26899
818.497	26823
818.638	26845
818.778	26773
818.919	26678
819.06	26720
819.2	26937
819.341	27028
819.481	26906
819.622	27013
819.762	27431
819.903	27252
820.043	27123
820.184	27138
820.324	27074
820.465	27058
820.605	27001
820.746	27032
820.886	26899
821.026	27096
821.167	27047
821.307	27066
821.447	27001
821.588	26910
821.728	26720
821.868	26674
822.008	26438
822.149	26476
822.289	26495
822.429	26248
822.569	26206
822.709	26218
822.849	26149
822.99	25890
823.13	25822
823.27	25826
823.41	25837
823.55	25704
823.69	25894
823.83	25628
823.97	25708
824.11	25681
824.25	25582
824.389	25594
824.529	25719
824.669	25575
824.809	25746
824.949	25727
825.089	25753
825.228	25689
825.368	25487
825.508	25487
825.648	25586
825.787	25415
825.927	25674
826.067	25472
826.206	25510
826.346	25578
826.485	25491
826.625	25453
826.765	25556
826.904	25495
827.044	25274
827.183	25255
827.323	25091
827.462	25225
827.601	25118
827.741	25179
827.88	25247
828.02	25091
828.159	25168
828.298	25251
828.437	25350
828.577	25183
828.716	25263
828.855	25152
828.994	24886
829.134	24951
829.273	24871
829.412	24943
829.551	24890
829.69	24848
829.829	24856
829.968	25069
830.107	24947
830.246	24973
830.385	24954
830.524	24715
830.663	24810
830.802	24639
830.941	24604
831.08	24585
831.219	24639
831.357	24612
831.496	24681
831.635	24483
831.774	24502
831.913	24353
832.051	24296
832.19	24486
832.329	24384
832.467	24376
832.606	24239
832.744	24216
832.883	24144
833.022	24152
833.16	24098
833.299	24228
833.437	24296
833.576	24308
833.714	24346
833.852	24334
833.991	24277
834.129	24243
834.267	24285
834.406	24213
834.544	24330
834.682	24228
834.821	24247
834.959	24452
835.097	24167
835.235	24372
835.373	24205
835.511	24213
835.65	24038
835.788	24155
835.926	24034
836.064	23954
836.202	23904
836.34	24148
836.478	24129
836.615	24072
836.753	24053
836.891	24338
837.029	24140
837.167	24045
837.305	24125
837.443	24095
837.58	23897
837.718	23893
837.856	24007
837.993	23931
838.131	24018
838.269	23737
838.406	24003
838.544	23737
838.681	23680
838.819	23630
838.956	23551
839.094	23391
839.231	23608
839.369	23665
839.506	23714
839.643	23638
839.781	23436
839.918	23356
840.055	23455
840.193	23425
840.33	23425
840.467	23406
840.604	23478
840.742	23558
840.879	23162
841.016	23322
841.153	23254
841.29	23539
841.427	23315
841.564	23486
841.701	23311
841.838	23341
841.975	23220
842.112	23227
842.249	23155
842.385	23136
842.522	23341
842.659	23174
842.796	23212
842.933	23064
843.069	23018
843.206	22984
843.343	23208
843.479	23075
843.616	22976
843.752	22938
843.889	22843
844.025	23060
844.162	22972
844.298	23014
844.435	22991
844.571	22790
844.708	22869
844.844	23124
844.98	22991
845.117	22934
845.253	22797
845.389	22873
845.525	22790
845.661	22744
845.798	22550
845.934	22569
846.07	22550
846.206	22500
846.342	22771
846.478	22573
846.614	22424
846.75	22295
846.886	22226
847.022	22462
847.158	22356
847.294	22344
847.429	22329
847.565	22337
847.701	22485
847.837	22276
847.972	22021
848.108	22032
848.244	22093
848.379	22074
848.515	21956
848.65	21983
848.786	21907
848.921	21930
849.057	22097
849.192	22029
849.328	22017
849.463	21880
849.598	21960
849.734	21895
849.869	21842
850.004	21793
850.14	21591
850.275	21671
850.41	21603
850.545	21823
850.68	21679
850.815	21732
850.95	21701
851.085	21888
851.22	21880
851.355	21778
851.49	21641
851.625	21698
851.76	21751
851.895	21701
852.03	21576
852.165	21709
852.299	21743
852.434	21816
852.569	21781
852.703	21698
852.838	21671
852.973	21869
853.107	21934
853.242	21739
853.376	21564
853.511	21374
853.645	21496
853.78	21694
853.914	21477
854.048	21428
854.183	21477
854.317	21561
854.451	21778
854.585	21447
854.72	21515
854.854	21492
854.988	21496
855.122	21447
855.256	21416
855.39	21507
855.524	21572
855.658	21622
855.792	21412
855.926	21595
856.06	21545
856.194	21587
856.327	21530
856.461	21466
856.595	21481
856.729	21473
856.862	21652
856.996	21629
857.13	21610
857.263	21606
857.397	21705
857.53	21530
857.664	21618
857.797	21637
857.931	21781
858.064	21644
858.197	21656
858.331	21553
858.464	21583
858.597	21393
858.731	21568
858.864	21660
858.997	21599
859.13	21595
859.263	21542
859.396	21736
859.529	21492
859.662	21488
859.795	21424
859.928	21526
860.061	21717
860.194	21762
860.327	21557
860.46	21724
860.592	21679
860.725	21774
860.858	21629
860.99	21564
861.123	21515
861.256	21515
861.388	21447
861.521	22200
861.653	21473
861.786	21386
861.918	21351
862.05	21424
862.183	21443
862.315	21481
862.447	21393
862.58	21496
862.712	21348
862.844	21249
862.976	21348
863.108	21291
863.24	21595
863.372	21108
863.504	21363
863.636	21264
863.768	21272
863.9	21249
864.032	21154
864.164	21340
864.296	21283
864.428	21336
864.559	21340
864.691	21389
864.823	21306
864.954	21184
865.086	21199
865.217	21165
865.349	21108
865.48	21268
865.612	21184
865.743	21370
865.875	21214
866.006	21146
866.137	21142
866.269	21157
866.4	21123
866.531	21211
866.662	21017
866.793	21112
866.924	21104
867.055	21062
867.186	20963
867.317	21116
867.448	20994
867.579	21081
867.71	21039
867.841	20967
867.972	21226
868.103	21085
868.233	20979
868.364	21104
868.495	21161
868.625	21355
868.756	21496
868.886	21363
869.017	21386
869.147	21439
869.278	21405
869.408	21389
869.539	21329
869.669	21420
869.799	21408
869.929	21542
870.06	21306
870.19	21644
870.32	21606
870.45	21720
870.58	21720
870.71	21747
870.84	21816
870.97	21713
871.1	21759
871.23	21922
871.36	21918
871.489	21873
871.619	21960
871.749	21968
871.879	21911
872.008	21998
872.138	22021
872.267	21911
872.397	21781
872.526	21701
872.656	21717
872.785	21713
872.915	21941
873.044	21918
873.173	21899
873.303	22063
873.432	21888
873.561	22074
873.69	21998
873.819	22074
873.948	21937
874.077	21937
874.206	21953
874.335	21945
874.464	22010
874.593	22196
874.722	22101
874.851	22284
874.979	22162
875.108	22299
875.237	22143
875.365	22078
875.494	22139
875.623	22322
875.751	22124
875.88	22200
876.008	22215
876.136	22306
876.265	22580
876.393	22733
876.521	22675
876.65	22641
876.778	22634
876.906	22527
877.034	22409
877.162	22557
877.29	22481
877.418	22489
877.546	22637
877.674	22615
877.802	22428
877.93	22542
878.058	22382
878.185	22386
878.313	22542
878.441	22424
878.568	22398
878.696	22432
878.824	22546
878.951	22634
879.079	22664
879.206	22672
879.333	22698
879.461	22500
879.588	22641
879.715	22694
879.842	22748
879.97	22653
880.097	22291
880.224	22382
880.351	22371
880.478	22318
880.605	22238
880.732	22306
880.859	22538
880.986	22329
881.112	22280
881.239	22314
881.366	22021
881.493	22017
881.619	21979
881.746	21907
881.872	22010
881.999	21823
882.125	21956
882.252	21907
882.378	21861
882.505	21991
882.631	21728
882.757	21629
882.883	21705
883.01	21595
883.136	21629
883.262	21515
883.388	21443
883.514	21641
883.64	21739
883.766	21466
883.892	21405
884.018	21412
884.143	21462
884.269	21671
884.395	21287
884.52	21150
884.646	21264
884.772	21188
884.897	21157
885.023	21199
885.148	21367
885.274	21473
885.399	21317
885.524	21104
885.65	21237
885.775	21329
885.9	21165
886.025	21268
886.15	21363
886.275	21180
886.4	21188
886.525	21032
886.65	21123
886.775	21104
886.9	21279
887.025	21363
887.149	21222
887.274	21001
887.399	20982
887.523	20986
887.648	20982
887.773	20960
887.897	21043
888.021	21184
888.146	21062
888.27	21013
888.395	21192
888.519	21085
888.643	21047
888.767	21058
888.891	20838
889.015	20944
889.139	20849
889.263	20750
889.387	20929
889.511	21032
889.635	21036
889.759	20682
889.883	20663
890.006	20861
890.13	20872
890.254	20746
890.377	20758
890.501	20552
890.624	20446
890.748	20583
890.871	20492
890.995	20351
891.118	20298
891.241	20362
891.364	20298
891.488	20552
891.611	20396
891.734	20465
891.857	20438
891.98	20408
892.103	20374
892.226	20336
892.349	20218
892.471	20115
892.594	20366
892.717	20366
892.839	20278
892.962	20172
893.085	20206
893.207	20233
893.33	20153
893.452	20069
893.575	20233
893.697	20225
893.819	20419
893.941	20564
894.064	20442
894.186	20263
894.308	20115
894.43	20393
894.552	20434
894.674	20351
894.796	20210
894.918	20237
895.04	20290
895.161	20294
895.283	20355
895.405	20172
895.526	20248
895.648	20237
895.769	20332
895.891	20275
896.012	20374
896.134	20237
896.255	20210
896.376	20259
896.498	20278
896.619	20229
896.74	20183
896.861	20434
896.982	20625
897.103	20663
897.224	20488
897.345	20431
897.466	20328
897.587	20526
897.708	20602
897.828	20454
897.949	20377
898.07	20267
898.19	20461
898.311	20545
898.431	20533
898.552	20389
898.672	20415
898.792	20629
898.913	20476
899.033	20339
899.153	20248
899.273	20126
899.393	20229
899.513	20282
899.633	20126
899.753	20320
899.873	20210
899.993	20259
900.113	20103
900.232	20153
900.352	20088
900.472	20024
900.591	19959
900.711	20001
900.83	19902
900.95	19974
901.069	20035
901.189	19928
901.308	19666
901.427	19571
901.546	19518
901.665	19529
901.784	19575
901.904	19426
902.023	19441
902.141	19114
902.26	19156
902.379	19137
902.498	19004
902.617	19042
902.735	19175
902.854	18973
902.973	18996
903.091	18757
903.21	18802
903.328	18890
903.446	18738
903.565	18589
903.683	18528
903.801	18437
903.919	18456
904.038	18612
904.156	18418
904.274	18429
904.392	18311
904.51	18311
904.627	18311
904.745	18486
904.863	18353
904.981	18098
905.098	17980
905.216	18030
905.334	18026
905.451	17923
905.569	17920
905.686	17999
905.803	17870
905.921	17855
906.038	17866
906.155	17786
906.272	17661
906.389	17672
906.506	17505
906.623	17486
906.74	17528
906.857	17345
906.974	17467
907.091	17566
907.208	17630
907.324	17592
907.441	17493
907.557	17261
907.674	17235
907.79	17162
907.907	17185
908.023	17345
908.139	17231
908.256	17136
908.372	17071
908.488	17045
908.604	17003
908.72	16923
908.836	17014
908.952	16938
909.068	17052
909.184	16987
909.3	16900
909.415	16930
909.531	16908
909.647	16767
909.762	16672
909.878	16702
909.993	16698
910.108	16679
910.224	16641
910.339	16660
910.454	16500
910.57	16508
910.685	16394
910.8	16618
910.915	16660
911.03	16424
911.145	16211
911.259	16299
911.374	16257
911.489	16147
911.604	16109
911.718	16078
911.833	15994
911.947	15838
912.062	15918
912.176	15991
912.291	15934
912.405	16067
912.519	16116
912.633	16200
912.748	16002
912.862	15972
912.976	15823
913.09	15762
913.204	15770
913.318	15759
913.431	15857
913.545	16002
913.659	15941
913.772	15720
913.886	15648
914	15614
914.113	15637
914.226	15641
914.34	15644
914.453	15504
914.566	15553
914.68	15542
914.793	15443
914.906	15287
915.019	15241
915.132	15233
915.245	15260
915.358	15233
915.47	15214
915.583	15291
915.696	15214
915.809	15291
915.921	15306
916.034	15245
916.146	15085
916.259	15081
916.371	15272
916.483	15218
916.595	15055
916.708	15108
916.82	14990
916.932	15005
917.044	14971
917.156	15051
917.268	14914
917.38	14933
917.491	14902
917.603	14906
917.715	14849
917.826	14956
917.938	14754
918.049	14750
918.161	14830
918.272	14967
918.384	14925
918.495	14861
918.606	14724
918.717	14629
918.828	14587
918.939	14625
919.05	14511
919.161	14541
919.272	14431
919.383	14400
919.494	14617
919.604	14807
919.715	14594
919.826	14632
919.936	14552
920.047	14674
920.157	14564
920.267	14670
920.378	14613
920.488	14492
920.598	14701
920.708	14838
920.818	14651
920.928	14678
921.038	14918
921.148	14876
921.258	14438
921.368	14503
921.477	14415
921.587	14282
921.697	14210
921.806	14305
921.916	14168
922.025	14050
922.134	13989
922.244	13871
922.353	13940
922.462	13875
922.571	13696
922.68	13651
922.789	13578
922.898	13616
923.007	13537
923.116	13582
923.224	13594
923.333	13540
923.442	13445
923.55	13422
923.659	13510
923.767	13605
923.876	13331
923.984	13388
924.092	13354
924.201	13392
924.309	13324
924.417	13282
924.525	13236
924.633	13263
924.741	14187
924.849	13099
924.956	13270
925.064	13057
925.172	12985
925.279	12943
925.387	12989
925.494	12996
925.602	13141
925.709	13091
925.816	12920
925.924	12996
926.031	13042
926.138	12920
926.245	13023
926.352	12825
926.459	12981
926.566	13114
926.673	12901
926.779	12779
926.886	12719
926.993	12620
927.099	12616
927.206	12616
927.312	12532
927.419	12555
927.525	12635
927.631	12544
927.737	12433
927.843	12475
927.95	12228
928.056	12422
928.162	12433
928.267	12551
928.373	13000
928.479	12494
928.585	12209
928.69	12308
928.796	12384
928.901	12228
929.007	12167
929.112	12247
929.218	12239
929.323	12068
929.428	12076
929.533	12213
929.638	12045
929.743	12068
929.848	12125
929.953	12102
930.058	11885
930.163	11737
930.267	11847
930.372	11961
930.477	11760
930.581	11935
930.685	11783
930.79	11657
930.894	11745
930.998	11688
931.103	11805
931.207	11490
931.311	11353
931.415	11303
931.519	11117
931.623	11102
