Data from test_V78500241_608.txt Node
Date: Fri Mar 25 15:14:05 CST 2022
User: usil
Spectrometer: V785-0024
Trigger mode: 0
Integration Time (sec): 4.000000E-1
Scans to average: 1
Nonlinearity correction enabled: false
Boxcar width: 0
Storing dark spectrum: false
XAxis mode: Wavelengths
Number of Pixels in Spectrum: 1024
>>>>>Begin Spectral Data<<<<<
801.071	27633
801.214	27572
801.356	27355
801.499	27317
801.641	27195
801.783	27161
801.926	27161
802.068	27313
802.211	26990
802.353	27028
802.496	26849
802.638	26819
802.78	26845
802.923	26800
803.065	26762
803.208	26674
803.35	26746
803.492	26849
803.635	26982
803.777	26956
803.919	26918
804.061	27237
804.204	26902
804.346	26899
804.488	26830
804.63	27005
804.773	26781
804.915	27013
805.057	27039
805.199	26956
805.341	27108
805.483	27173
805.626	26940
805.768	26861
805.91	27096
806.052	27024
806.194	26986
806.336	27237
806.478	27165
806.62	27165
806.762	27161
806.904	27302
807.046	27416
807.188	27545
807.33	27561
807.472	27504
807.614	27359
807.756	27382
807.898	27374
808.04	27317
808.182	27313
808.324	27313
808.465	27279
808.607	27466
808.749	27644
808.891	27709
809.033	27888
809.174	27888
809.316	27698
809.458	27774
809.6	27705
809.741	27838
809.883	27911
810.025	27991
810.166	28093
810.308	28017
810.45	28044
810.591	27869
810.733	27812
810.875	27736
811.016	27656
811.158	27679
811.299	27720
811.441	27918
811.582	28032
811.724	27633
811.865	27812
812.007	27553
812.148	27625
812.29	27701
812.431	27827
812.573	28112
812.714	28295
812.855	28207
812.997	28459
813.138	28428
813.279	28485
813.421	28287
813.562	28417
813.703	28112
813.845	28029
813.986	27717
814.127	27443
814.268	27462
814.41	27408
814.551	27393
814.692	27420
814.833	27298
814.974	27306
815.115	27443
815.256	27188
815.397	27435
815.539	27313
815.68	27176
815.821	27161
815.962	27199
816.103	27272
816.244	27165
816.385	26979
816.526	26853
816.666	26845
816.807	26609
816.948	26727
817.089	26937
817.23	26754
817.371	26716
817.512	26777
817.653	26746
817.793	26560
817.934	26659
818.075	26712
818.216	26674
818.356	26674
818.497	26606
818.638	26381
818.778	26442
818.919	26480
819.06	26393
819.2	26735
819.341	26686
819.481	26724
819.622	26956
819.762	26986
819.903	26826
820.043	26819
820.184	26895
820.324	26868
820.465	26857
820.605	26667
820.746	26693
820.886	26777
821.026	26864
821.167	26731
821.307	26800
821.447	26872
821.588	26667
821.728	26556
821.868	26328
822.008	26225
822.149	26210
822.289	26214
822.429	25856
822.569	25894
822.709	25917
822.849	25723
822.99	25662
823.13	25639
823.27	25620
823.41	25457
823.55	25521
823.69	25590
823.83	25590
823.97	25544
824.11	25316
824.25	25259
824.389	25282
824.529	25502
824.669	25354
824.809	25544
824.949	25453
825.089	25453
825.228	25350
825.368	25088
825.508	25354
825.648	25343
825.787	25240
825.927	25293
826.067	25160
826.206	25137
826.346	25221
826.485	25213
826.625	25289
826.765	25225
826.904	25221
827.044	25023
827.183	24992
827.323	24932
827.462	24920
827.601	24966
827.741	24916
827.88	24951
828.02	24738
828.159	24985
828.298	24897
828.437	25000
828.577	24947
828.716	25050
828.855	24985
828.994	24745
829.134	24753
829.273	24601
829.412	24688
829.551	24578
829.69	24521
829.829	24681
829.968	24757
830.107	24684
830.246	24502
830.385	24623
830.524	24563
830.663	24452
830.802	24460
830.941	24205
831.08	24194
831.219	24357
831.357	24254
831.496	24403
831.635	24182
831.774	24095
831.913	24186
832.051	24117
832.19	23992
832.329	24072
832.467	23889
832.606	23916
832.744	23961
832.883	23961
833.022	23961
833.16	23984
833.299	24072
833.437	23977
833.576	23961
833.714	23889
833.852	24007
833.991	24102
834.129	24076
834.267	24152
834.406	24038
834.544	24114
834.682	24095
834.821	23992
834.959	24087
835.097	23863
835.235	24045
835.373	23908
835.511	23942
835.65	23836
835.788	23809
835.926	23737
836.064	23604
836.202	23649
836.34	23786
836.478	23878
836.615	23714
836.753	23764
836.891	23863
837.029	23980
837.167	23718
837.305	23805
837.443	23726
837.58	23684
837.718	23764
837.856	23710
837.993	23589
838.131	23562
838.269	23509
838.406	23638
838.544	23528
838.681	23246
838.819	23315
838.956	23261
839.094	23204
839.231	23250
839.369	23250
839.506	23630
839.643	23398
839.781	23193
839.918	23071
840.055	23124
840.193	23124
840.33	23029
840.467	22965
840.604	23079
840.742	23345
840.879	22972
841.016	22961
841.153	22809
841.29	23140
841.427	23075
841.564	23098
841.701	23052
841.838	22968
841.975	22972
842.112	22938
842.249	22854
842.385	22683
842.522	23003
842.659	22748
842.796	22786
842.933	22900
843.069	22820
843.206	22683
843.343	22953
843.479	22873
843.616	22797
843.752	22561
843.889	22607
844.025	22759
844.162	22577
844.298	22698
844.435	22653
844.571	22607
844.708	22592
844.844	22713
844.98	22710
845.117	22706
845.253	22656
845.389	22455
845.525	22519
845.661	22322
845.798	22409
845.934	22329
846.07	22284
846.206	22504
846.342	22447
846.478	22379
846.614	22139
846.75	21983
846.886	22063
847.022	22181
847.158	22044
847.294	22124
847.429	22116
847.565	21899
847.701	22314
847.837	21838
847.972	21751
848.108	21884
848.244	21930
848.379	21728
848.515	21667
848.65	21682
848.786	21633
848.921	21568
849.057	21686
849.192	21709
849.328	21736
849.463	21610
849.598	21561
849.734	21580
849.869	21599
850.004	21378
850.14	21538
850.275	21511
850.41	21355
850.545	21340
850.68	21241
850.815	21435
850.95	21405
851.085	21622
851.22	21515
851.355	21447
851.49	21420
851.625	21329
851.76	21268
851.895	21222
852.03	21226
852.165	21393
852.299	21317
852.434	21553
852.569	21538
852.703	21504
852.838	21530
852.973	21595
853.107	21557
853.242	21340
853.376	21477
853.511	21112
853.645	21252
853.78	21222
853.914	21218
854.048	21332
854.183	21321
854.317	21199
854.451	21511
854.585	21268
854.72	21150
854.854	21283
854.988	21230
855.122	21279
855.256	21169
855.39	21199
855.524	21458
855.658	21233
855.792	21252
855.926	21264
856.06	21241
856.194	21458
856.327	21256
856.461	21150
856.595	21100
856.729	21275
856.862	21405
856.996	21298
857.13	21298
857.263	21264
857.397	21317
857.53	21336
857.664	21279
857.797	21222
857.931	21363
858.064	21256
858.197	21428
858.331	21298
858.464	21176
858.597	21203
858.731	21119
858.864	21370
858.997	21188
859.13	21218
859.263	21154
859.396	21256
859.529	21180
859.662	21058
859.795	21154
859.928	21241
860.061	21287
860.194	21405
860.327	21348
860.46	21233
860.592	21397
860.725	21454
860.858	21279
860.99	21298
861.123	21108
861.256	21146
861.388	21169
861.521	22059
861.653	21176
861.786	21047
861.918	21062
862.05	21173
862.183	21116
862.315	21218
862.447	21188
862.58	21055
862.712	20929
862.844	20902
862.976	21020
863.108	21013
863.24	21389
863.372	20868
863.504	20804
863.636	21039
863.768	20906
863.9	21013
864.032	20914
864.164	20834
864.296	20986
864.428	20998
864.559	21058
864.691	21020
864.823	20994
864.954	20868
865.086	20944
865.217	20773
865.349	20811
865.48	20979
865.612	20811
865.743	20929
865.875	20842
866.006	20876
866.137	20864
866.269	20826
866.4	20750
866.531	20750
866.662	20686
866.793	20670
866.924	20811
867.055	20944
867.186	20861
867.317	20689
867.448	20731
867.579	20697
867.71	20655
867.841	20788
867.972	20785
868.103	20727
868.233	20746
868.364	20872
868.495	20883
868.625	21062
868.756	21135
868.886	20849
869.017	21013
869.147	21043
869.278	21074
869.408	21093
869.539	21077
869.669	21188
869.799	21028
869.929	21138
870.06	21146
870.19	21310
870.32	21256
870.45	21256
870.58	21397
870.71	21424
870.84	21439
870.97	21325
871.1	21382
871.23	21637
871.36	21610
871.489	21492
871.619	21660
871.749	21583
871.879	21736
872.008	21781
872.138	21576
872.267	21496
872.397	21462
872.526	21389
872.656	21416
872.785	21542
872.915	21614
873.044	21846
873.173	21701
873.303	21690
873.432	21652
873.561	21793
873.69	21686
873.819	21610
873.948	21713
874.077	21614
874.206	21648
874.335	21614
874.464	21793
874.593	21949
874.722	21819
874.851	21861
874.979	21800
875.108	21934
875.237	21766
875.365	21800
875.494	21922
875.623	21770
875.751	21869
875.88	21880
876.008	22078
876.136	21998
876.265	22215
876.393	22382
876.521	22303
876.65	22306
876.778	22291
876.906	22261
877.034	22207
877.162	22291
877.29	22154
877.418	22215
877.546	22276
877.674	22265
877.802	22272
877.93	22265
878.058	22185
878.185	21968
878.313	22101
878.441	22131
878.568	22048
878.696	22162
878.824	22150
878.951	22303
879.079	22295
879.206	22607
879.333	22421
879.461	22257
879.588	22192
879.715	22375
879.842	22523
879.97	22318
880.097	21994
880.224	22010
880.351	22120
880.478	21899
880.605	21915
880.732	22051
880.859	22291
880.986	22036
881.112	21987
881.239	21907
881.366	21747
881.493	21717
881.619	21660
881.746	21648
881.872	21587
881.999	21599
882.125	21523
882.252	21641
882.378	21447
882.505	21644
882.631	21504
882.757	21351
882.883	21359
883.01	21424
883.136	21435
883.262	21135
883.388	21028
883.514	21363
883.64	21355
883.766	21249
883.892	21058
884.018	21077
884.143	21176
884.269	21260
884.395	21093
884.52	20914
884.646	20941
884.772	20861
884.897	20914
885.023	21055
885.148	21028
885.274	21074
885.399	21119
885.524	20876
885.65	20979
885.775	21032
885.9	20842
886.025	21142
886.15	21100
886.275	20857
886.4	20819
886.525	20921
886.65	20933
886.775	20800
886.9	21047
887.025	21142
887.149	20902
887.274	20716
887.399	20705
887.523	20701
887.648	20629
887.773	20575
887.897	20636
888.021	20636
888.146	20674
888.27	20811
888.395	20845
888.519	20754
888.643	20804
888.767	20819
888.891	20689
889.015	20629
889.139	20587
889.263	20530
889.387	20621
889.511	20769
889.635	20659
889.759	20381
889.883	20461
890.006	20450
890.13	20575
890.254	20362
890.377	20427
890.501	20248
890.624	20229
890.748	20240
890.871	20180
890.995	20134
891.118	20084
891.241	20187
891.364	20168
891.488	20168
891.611	20115
891.734	20149
891.857	20176
891.98	20138
892.103	20248
892.226	20126
892.349	19997
892.471	19890
892.594	19856
892.717	20062
892.839	19967
892.962	20081
893.085	20134
893.207	19989
893.33	19830
893.452	19944
893.575	20020
893.697	19974
893.819	20161
893.941	20237
894.064	20092
894.186	20012
894.308	19890
894.43	20054
894.552	20096
894.674	20058
894.796	19814
894.918	19947
895.04	19940
895.161	19986
895.283	20050
895.405	19902
895.526	19898
895.648	19913
895.769	20073
895.891	20012
896.012	20046
896.134	20073
896.255	20024
896.376	20046
896.498	19993
896.619	20039
896.74	19944
896.861	20073
896.982	20313
897.103	20427
897.224	20214
897.345	20244
897.466	20050
897.587	20290
897.708	20324
897.828	20267
897.949	20069
898.07	20012
898.19	20237
898.311	20206
898.431	20214
898.552	20202
898.672	20336
898.792	20240
898.913	20202
899.033	20161
899.153	20149
899.273	19959
899.393	20001
899.513	20050
899.633	19871
899.753	19967
899.873	19898
899.993	20092
900.113	19830
900.232	19875
900.352	19887
900.472	19784
900.591	19681
900.711	19769
900.83	19788
900.95	19818
901.069	19963
901.189	19559
901.308	19377
901.427	19354
901.546	19282
901.665	19350
901.784	19354
901.904	19114
902.023	19084
902.141	18977
902.26	18909
902.379	18973
902.498	18890
902.617	18852
902.735	18878
902.854	18833
902.973	18738
903.091	18601
903.21	18513
903.328	18593
903.446	18338
903.565	18304
903.683	18323
903.801	18216
903.919	18338
904.038	18285
904.156	18106
904.274	18174
904.392	18125
904.51	18015
904.627	18083
904.745	18144
904.863	18121
904.981	17912
905.098	17748
905.216	17729
905.334	17798
905.451	17695
905.569	17691
905.686	17832
905.803	17710
905.921	17604
906.038	17604
906.155	17528
906.272	17471
906.389	17493
906.506	17235
906.623	17322
906.74	17303
906.857	17208
906.974	17265
907.091	17341
907.208	17452
907.324	17345
907.441	17235
907.557	17147
907.674	17060
907.79	16995
907.907	16961
908.023	17006
908.139	17071
908.256	16976
908.372	16862
908.488	16866
908.604	16786
908.72	16774
908.836	16835
908.952	16698
909.068	16797
909.184	16816
909.3	16812
909.415	16691
909.531	16725
909.647	16516
909.762	16523
909.878	16455
909.993	16527
910.108	16333
910.224	16402
910.339	16405
910.454	16253
910.57	16287
910.685	16185
910.8	16455
910.915	16432
911.03	16230
911.145	16093
911.259	16105
911.374	15983
911.489	15880
911.604	15869
911.718	15907
911.833	15751
911.947	15679
912.062	15656
912.176	15736
912.291	15720
912.405	15797
912.519	15994
912.633	15991
912.748	15812
912.862	15728
912.976	15564
913.09	15523
913.204	15500
913.318	15641
913.431	15625
913.545	15614
913.659	15739
913.772	15587
913.886	15526
914	15268
914.113	15530
914.226	15477
914.34	15496
914.453	15230
914.566	15447
914.68	15351
914.793	15142
914.906	15131
915.019	15081
915.132	15017
915.245	14975
915.358	15077
915.47	14960
915.583	15089
915.696	15112
915.809	15157
915.921	15116
916.034	14921
916.146	14887
916.259	14937
916.371	15070
916.483	14956
916.595	14762
916.708	14819
916.82	14777
916.932	14712
917.044	14823
917.156	14754
917.268	14693
917.38	14705
917.491	14674
917.603	14667
917.715	14697
917.826	14819
917.938	14583
918.049	14461
918.161	14659
918.272	14785
918.384	14636
918.495	14617
918.606	14434
918.717	14400
918.828	14385
918.939	14514
919.05	14358
919.161	14377
919.272	14187
919.383	14427
919.494	14514
919.604	14602
919.715	14480
919.826	14328
919.936	14427
920.047	14408
920.157	14438
920.267	14655
920.378	14457
920.488	14358
920.598	14522
920.708	14651
920.818	14541
920.928	14518
921.038	14648
921.148	14583
921.258	14355
921.368	14248
921.477	14130
921.587	14138
921.697	14024
921.806	14130
921.916	14073
922.025	13898
922.134	13830
922.244	13651
922.353	13731
922.462	13609
922.571	13537
922.68	13426
922.789	13373
922.898	13419
923.007	13407
923.116	13400
923.224	13460
923.333	13381
923.442	13415
923.55	13251
923.659	13289
923.767	13396
923.876	13190
923.984	13232
924.092	13179
924.201	13221
924.309	13152
924.417	13206
924.525	13122
924.633	13103
924.741	13944
924.849	12943
924.956	13050
925.064	12852
925.172	12787
925.279	12821
925.387	12802
925.494	12878
925.602	12958
925.709	12897
925.816	12837
925.924	12867
926.031	12920
926.138	12783
926.245	12829
926.352	12719
926.459	12837
926.566	12871
926.673	12673
926.779	12658
926.886	12555
926.993	12506
927.099	12471
927.206	12422
927.312	12418
927.419	12418
927.525	12380
927.631	12376
927.737	12304
927.843	12353
927.95	12194
928.056	12239
928.162	12281
928.267	12418
928.373	12913
928.479	12365
928.585	12133
928.69	12258
928.796	12201
928.901	12136
929.007	11931
929.112	12095
929.218	12007
929.323	11984
929.428	11996
929.533	12079
929.638	11878
929.743	11817
929.848	11939
929.953	11950
930.058	11828
930.163	11611
930.267	11699
930.372	11756
930.477	11653
930.581	11908
930.685	11688
930.79	11535
930.894	11600
930.998	11539
931.103	11729
931.207	11288
931.311	11223
931.415	11155
931.519	10927
931.623	11025
