Data from test_V78500241_1926.txt Node
Date: Fri Mar 25 15:23:16 CST 2022
User: usil
Spectrometer: V785-0024
Trigger mode: 0
Integration Time (sec): 4.000000E-1
Scans to average: 1
Nonlinearity correction enabled: false
Boxcar width: 0
Storing dark spectrum: false
XAxis mode: Wavelengths
Number of Pixels in Spectrum: 1024
>>>>>Begin Spectral Data<<<<<
801.071	27755
801.214	27713
801.356	27431
801.499	27351
801.641	27272
801.783	27169
801.926	27329
802.068	27294
802.211	27264
802.353	27214
802.496	27077
802.638	26940
802.78	26956
802.923	26765
803.065	26746
803.208	26796
803.35	26826
803.492	27173
803.635	27058
803.777	27093
803.919	27214
804.061	27382
804.204	27142
804.346	27176
804.488	26902
804.63	27108
804.773	27028
804.915	26990
805.057	27180
805.199	26929
805.341	27089
805.483	27275
805.626	27272
805.768	27218
805.91	27298
806.052	27218
806.194	27116
806.336	27336
806.478	27279
806.62	27161
806.762	27245
806.904	27557
807.046	27720
807.188	27679
807.33	27686
807.472	27610
807.614	27496
807.756	27538
807.898	27526
808.04	27435
808.182	27553
808.324	27458
808.465	27583
808.607	27732
808.749	27854
808.891	27918
809.033	27922
809.174	27903
809.316	27694
809.458	27888
809.6	27861
809.741	27975
809.883	28017
810.025	28120
810.166	28177
810.308	28143
810.45	28082
810.591	28074
810.733	27937
810.875	27850
811.016	27736
811.158	27686
811.299	27945
811.441	28025
811.582	27934
811.724	27884
811.865	27960
812.007	27755
812.148	27755
812.29	27941
812.431	28086
812.573	28211
812.714	28196
812.855	28287
812.997	28443
813.138	28615
813.279	28478
813.421	28284
813.562	28230
813.703	28074
813.845	28074
813.986	27747
814.127	27759
814.268	27561
814.41	27660
814.551	27538
814.692	27793
814.833	27469
814.974	27534
815.115	27656
815.256	27473
815.397	27568
815.539	27485
815.68	27439
815.821	27310
815.962	27458
816.103	27233
816.244	27135
816.385	27058
816.526	27165
816.666	26944
816.807	26697
816.948	26914
817.089	27096
817.23	26861
817.371	26861
817.512	26857
817.653	26689
817.793	26716
817.934	26773
818.075	26823
818.216	26785
818.356	26883
818.497	26644
818.638	26549
818.778	26545
818.919	26602
819.06	26587
819.2	26644
819.341	26720
819.481	26891
819.622	26971
819.762	27222
819.903	27154
820.043	27089
820.184	26891
820.324	26864
820.465	26982
820.605	26948
820.746	26975
820.886	26887
821.026	26921
821.167	26902
821.307	27005
821.447	26868
821.588	26724
821.728	26705
821.868	26453
822.008	26305
822.149	26332
822.289	26278
822.429	25883
822.569	26035
822.709	26092
822.849	25784
822.99	25849
823.13	25742
823.27	25856
823.41	25689
823.55	25502
823.69	25529
823.83	25582
823.97	25605
824.11	25316
824.25	25251
824.389	25460
824.529	25582
824.669	25434
824.809	25586
824.949	25491
825.089	25578
825.228	25533
825.368	25350
825.508	25274
825.648	25358
825.787	25324
825.927	25354
826.067	25301
826.206	25221
826.346	25403
826.485	25403
826.625	25301
826.765	25468
826.904	25365
827.044	25183
827.183	24992
827.323	25031
827.462	25072
827.601	25042
827.741	25019
827.88	24985
828.02	24920
828.159	25008
828.298	25053
828.437	25027
828.577	24989
828.716	25137
828.855	24939
828.994	24791
829.134	24757
829.273	24760
829.412	24840
829.551	24654
829.69	24658
829.829	24817
829.968	24829
830.107	24783
830.246	24795
830.385	24768
830.524	24661
830.663	24585
830.802	24509
830.941	24292
831.08	24323
831.219	24369
831.357	24460
831.496	24601
831.635	24308
831.774	24311
831.913	24365
832.051	24171
832.19	24163
832.329	24292
832.467	23999
832.606	23939
832.744	23904
832.883	23973
833.022	24041
833.16	24117
833.299	24098
833.437	24163
833.576	24117
833.714	24201
833.852	24155
833.991	24110
834.129	24098
834.267	24197
834.406	24163
834.544	24121
834.682	24064
834.821	24026
834.959	24292
835.097	24026
835.235	24049
835.373	24068
835.511	24064
835.65	23946
835.788	23992
835.926	23668
836.064	23707
836.202	23756
836.34	23885
836.478	24053
836.615	23859
836.753	24007
836.891	23912
837.029	24007
837.167	23874
837.305	23916
837.443	23802
837.58	23714
837.718	23847
837.856	23733
837.993	23695
838.131	23710
838.269	23551
838.406	23672
838.544	23630
838.681	23398
838.819	23383
838.956	23200
839.094	23303
839.231	23261
839.369	23421
839.506	23786
839.643	23585
839.781	23242
839.918	23292
840.055	23269
840.193	23227
840.33	23189
840.467	23147
840.604	23341
840.742	23459
840.879	23041
841.016	23124
841.153	22972
841.29	23353
841.427	23231
841.564	23189
841.701	23174
841.838	22995
841.975	23014
842.112	23060
842.249	22892
842.385	22889
842.522	23162
842.659	22987
842.796	23025
842.933	22908
843.069	22957
843.206	22892
843.343	22953
843.479	23006
843.616	22869
843.752	22740
843.889	22759
844.025	22786
844.162	22759
844.298	22660
844.435	22599
844.571	22691
844.708	22801
844.844	22831
844.98	22877
845.117	22736
845.253	22733
845.389	22459
845.525	22603
845.661	22550
845.798	22409
845.934	22493
846.07	22371
846.206	22474
846.342	22573
846.478	22386
846.614	22249
846.75	22139
846.886	22200
847.022	22128
847.158	22204
847.294	22128
847.429	22158
847.565	22139
847.701	22504
847.837	22021
847.972	21831
848.108	21880
848.244	22090
848.379	21888
848.515	21842
848.65	21800
848.786	21770
848.921	21789
849.057	21781
849.192	21918
849.328	21816
849.463	21682
849.598	21751
849.734	21603
849.869	21622
850.004	21599
850.14	21622
850.275	21500
850.41	21435
850.545	21450
850.68	21633
850.815	21526
850.95	21526
851.085	21797
851.22	21675
851.355	21587
851.49	21458
851.625	21625
851.76	21545
851.895	21401
852.03	21397
852.165	21416
852.299	21523
852.434	21610
852.569	21462
852.703	21321
852.838	21564
852.973	21629
853.107	21671
853.242	21553
853.376	21355
853.511	21291
853.645	21279
853.78	21351
853.914	21363
854.048	21329
854.183	21310
854.317	21389
854.451	21428
854.585	21306
854.72	21298
854.854	21488
854.988	21313
855.122	21378
855.256	21283
855.39	21355
855.524	21473
855.658	21462
855.792	21386
855.926	21397
856.06	21393
856.194	21435
856.327	21321
856.461	21237
856.595	21329
856.729	21397
856.862	21447
856.996	21496
857.13	21329
857.263	21405
857.397	21477
857.53	21405
857.664	21359
857.797	21317
857.931	21420
858.064	21431
858.197	21473
858.331	21344
858.464	21260
858.597	21233
858.731	21405
858.864	21306
858.997	21218
859.13	21416
859.263	21389
859.396	21420
859.529	21348
859.662	21275
859.795	21351
859.928	21321
860.061	21405
860.194	21564
860.327	21283
860.46	21439
860.592	21507
860.725	21454
860.858	21549
860.99	21310
861.123	21317
861.256	21173
861.388	21348
861.521	22067
861.653	21192
861.786	21062
861.918	21222
862.05	21252
862.183	21252
862.315	21313
862.447	21268
862.58	21302
862.712	21081
862.844	21020
862.976	21108
863.108	21150
863.24	21622
863.372	21005
863.504	21013
863.636	21112
863.768	21157
863.9	21089
864.032	20956
864.164	20967
864.296	21161
864.428	21218
864.559	21100
864.691	21096
864.823	21161
864.954	21123
865.086	21013
865.217	20891
865.349	20819
865.48	21104
865.612	21047
865.743	21192
865.875	20785
866.006	20914
866.137	21043
866.269	20933
866.4	21028
866.531	20918
866.662	20887
866.793	21001
866.924	20918
867.055	20830
867.186	20960
867.317	20887
867.448	20815
867.579	20849
867.71	20826
867.841	20735
867.972	21024
868.103	20857
868.233	20861
868.364	20925
868.495	21017
868.625	21093
868.756	21275
868.886	21123
869.017	21173
869.147	21310
869.278	21287
869.408	21260
869.539	20990
869.669	21211
869.799	21142
869.929	21268
870.06	21150
870.19	21405
870.32	21367
870.45	21549
870.58	21466
870.71	21618
870.84	21568
870.97	21641
871.1	21466
871.23	21728
871.36	21755
871.489	21682
871.619	21720
871.749	21701
871.879	21724
872.008	21747
872.138	21606
872.267	21656
872.397	21549
872.526	21443
872.656	21595
872.785	21637
872.915	21732
873.044	21850
873.173	21591
873.303	21884
873.432	21827
873.561	21804
873.69	21819
873.819	21797
873.948	21873
874.077	21766
874.206	21690
874.335	21686
874.464	21812
874.593	22063
874.722	22025
874.851	22029
874.979	22109
875.108	22078
875.237	21831
875.365	21816
875.494	21972
875.623	22070
875.751	22006
875.88	22067
876.008	22070
876.136	22036
876.265	22314
876.393	22363
876.521	22500
876.65	22436
876.778	22402
876.906	22386
877.034	22348
877.162	22306
877.29	22344
877.418	22314
877.546	22363
877.674	22333
877.802	22402
877.93	22375
878.058	22333
878.185	22101
878.313	22253
878.441	22314
878.568	22192
878.696	22424
878.824	22337
878.951	22306
879.079	22485
879.206	22630
879.333	22394
879.461	22379
879.588	22527
879.715	22474
879.842	22577
879.97	22417
880.097	22112
880.224	22150
880.351	22158
880.478	22181
880.605	22215
880.732	22169
880.859	22405
880.986	22185
881.112	22226
881.239	22055
881.366	21846
881.493	21850
881.619	21720
881.746	21804
881.872	21732
881.999	21751
882.125	21538
882.252	21762
882.378	21762
882.505	21892
882.631	21603
882.757	21412
882.883	21545
883.01	21504
883.136	21294
883.262	21230
883.388	21214
883.514	21458
883.64	21405
883.766	21317
883.892	21188
884.018	21184
884.143	21310
884.269	21405
884.395	21176
884.52	21036
884.646	21055
884.772	20990
884.897	21028
885.023	21081
885.148	21218
885.274	21222
885.399	21195
885.524	21100
885.65	21085
885.775	21214
885.9	21093
886.025	21146
886.15	21211
886.275	21051
886.4	20960
886.525	21043
886.65	21001
886.775	21051
886.9	21252
887.025	21359
887.149	21062
887.274	20971
887.399	20781
887.523	20758
887.648	20773
887.773	20670
887.897	20986
888.021	20895
888.146	20750
888.27	20986
888.395	20982
888.519	20861
888.643	20895
888.767	20788
888.891	20705
889.015	20598
889.139	20712
889.263	20625
889.387	20712
889.511	20864
889.635	20773
889.759	20552
889.883	20545
890.006	20625
890.13	20746
890.254	20598
890.377	20564
890.501	20537
890.624	20381
890.748	20442
890.871	20347
890.995	20149
891.118	20115
891.241	20142
891.364	20336
891.488	20324
891.611	20298
891.734	20210
891.857	20138
891.98	20195
892.103	20161
892.226	20252
892.349	20172
892.471	20035
892.594	20020
892.717	20100
892.839	20100
892.962	20145
893.085	20092
893.207	20119
893.33	20119
893.452	20103
893.575	20058
893.697	20043
893.819	20309
893.941	20221
894.064	20202
894.186	20001
894.308	19928
894.43	20183
894.552	20332
894.674	20214
894.796	20062
894.918	19989
895.04	20046
895.161	20111
895.283	20187
895.405	20035
895.526	20016
895.648	20164
895.769	20153
895.891	20145
896.012	20077
896.134	20183
896.255	20130
896.376	20084
896.498	20168
896.619	20153
896.74	20081
896.861	20149
896.982	20503
897.103	20651
897.224	20267
897.345	20320
897.466	20271
897.587	20256
897.708	20404
897.828	20290
897.949	20259
898.07	20161
898.19	20278
898.311	20427
898.431	20214
898.552	20400
898.672	20332
898.792	20358
898.913	20298
899.033	20248
899.153	20115
899.273	20043
899.393	20069
899.513	20084
899.633	20031
899.753	20161
899.873	20039
899.993	20191
900.113	19928
900.232	19989
900.352	19989
900.472	19951
900.591	19837
900.711	19890
900.83	19811
900.95	19883
901.069	19898
901.189	19757
901.308	19487
901.427	19422
901.546	19392
901.665	19362
901.784	19438
901.904	19236
902.023	19164
902.141	18863
902.26	19015
902.379	19019
902.498	18852
902.617	18859
902.735	19057
902.854	18935
902.973	18787
903.091	18658
903.21	18589
903.328	18585
903.446	18574
903.565	18437
903.683	18467
903.801	18300
903.919	18327
904.038	18395
904.156	18194
904.274	18311
904.392	18152
904.51	18232
904.627	18186
904.745	18270
904.863	18197
904.981	18007
905.098	17935
905.216	17851
905.334	17809
905.451	17935
905.569	17897
905.686	17931
905.803	17874
905.921	17539
906.038	17817
906.155	17726
906.272	17619
906.389	17638
906.506	17383
906.623	17421
906.74	17303
906.857	17273
906.974	17337
907.091	17448
907.208	17554
907.324	17326
907.441	17242
907.557	17296
907.674	17117
907.79	17075
907.907	17197
908.023	17086
908.139	17162
908.256	17155
908.372	17048
908.488	16953
908.604	16881
908.72	16706
908.836	16828
908.952	16801
909.068	16896
909.184	16862
909.3	16896
909.415	16866
909.531	16805
909.647	16550
909.762	16485
909.878	16474
909.993	16535
910.108	16516
910.224	16409
910.339	16440
910.454	16310
910.57	16390
910.685	16253
910.8	16550
910.915	16478
911.03	16291
911.145	16192
911.259	16185
911.374	16109
911.489	16036
911.604	16051
911.718	15873
911.833	15873
911.947	15739
912.062	15747
912.176	15819
912.291	15835
912.405	15827
912.519	15968
912.633	15934
912.748	15953
912.862	15892
912.976	15690
913.09	15542
913.204	15606
913.318	15724
913.431	15808
913.545	15793
913.659	15774
913.772	15667
913.886	15599
914	15477
914.113	15507
914.226	15515
914.34	15538
914.453	15370
914.566	15477
914.68	15306
914.793	15287
914.906	15116
915.019	15089
915.132	15089
915.245	15020
915.358	15009
915.47	15116
915.583	15070
915.696	15104
915.809	15077
915.921	15233
916.034	15123
916.146	15032
916.259	14982
916.371	15074
916.483	14941
916.595	14834
916.708	14960
916.82	14967
916.932	14952
917.044	14864
917.156	14887
917.268	14686
917.38	14804
917.491	14746
917.603	14807
917.715	14864
917.826	14895
917.938	14682
918.049	14636
918.161	14697
918.272	14781
918.384	14823
918.495	14621
918.606	14610
918.717	14499
918.828	14465
918.939	14617
919.05	14339
919.161	14507
919.272	14259
919.383	14377
919.494	14492
919.604	14689
919.715	14514
919.826	14351
919.936	14480
920.047	14499
920.157	14499
920.267	14579
920.378	14526
920.488	14419
920.598	14632
920.708	14746
920.818	14556
920.928	14522
921.038	14739
921.148	14708
921.258	14358
921.368	14263
921.477	14180
921.587	14229
921.697	14119
921.806	14286
921.916	14054
922.025	13906
922.134	13822
922.244	13731
922.353	13799
922.462	13753
922.571	13723
922.68	13533
922.789	13419
922.898	13548
923.007	13403
923.116	13533
923.224	13533
923.333	13441
923.442	13407
923.55	13377
923.659	13285
923.767	13400
923.876	13244
923.984	13308
924.092	13187
924.201	13175
924.309	13232
924.417	13236
924.525	13152
924.633	13164
924.741	14145
924.849	12973
924.956	13164
925.064	12973
925.172	12856
925.279	12878
925.387	12970
925.494	12932
925.602	12989
925.709	13004
925.816	12829
925.924	12837
926.031	12924
926.138	12886
926.245	12901
926.352	12688
926.459	12878
926.566	12913
926.673	12757
926.779	12627
926.886	12612
926.993	12585
927.099	12597
927.206	12456
927.312	12403
927.419	12490
927.525	12490
927.631	12452
927.737	12395
927.843	12273
927.95	12247
928.056	12194
928.162	12277
928.267	12281
928.373	12840
928.479	12346
928.585	12133
928.69	12228
928.796	12216
928.901	12232
929.007	12121
929.112	12254
929.218	12091
929.323	12022
929.428	12007
929.533	12155
929.638	11980
929.743	12045
929.848	12064
929.953	12007
930.058	11840
930.163	11733
930.267	11718
930.372	11889
930.477	11661
930.581	11931
930.685	11760
930.79	11649
930.894	11638
930.998	11596
931.103	11699
931.207	11395
931.311	11277
931.415	11170
931.519	11003
931.623	10930
