Data from test_V78500241_2756.txt Node
Date: Fri Mar 25 15:29:03 CST 2022
User: usil
Spectrometer: V785-0024
Trigger mode: 0
Integration Time (sec): 4.000000E-1
Scans to average: 1
Nonlinearity correction enabled: false
Boxcar width: 0
Storing dark spectrum: false
XAxis mode: Wavelengths
Number of Pixels in Spectrum: 1024
>>>>>Begin Spectral Data<<<<<
801.071	27131
801.214	27058
801.356	26697
801.499	26598
801.641	26499
801.783	26583
801.926	26545
802.068	26465
802.211	26575
802.353	26499
802.496	26370
802.638	26332
802.78	26130
802.923	26199
803.065	26069
803.208	26115
803.35	26187
803.492	26275
803.635	26343
803.777	26263
803.919	26381
804.061	26708
804.204	26412
804.346	26309
804.488	26225
804.63	26298
804.773	26180
804.915	26370
805.057	26393
805.199	26313
805.341	26503
805.483	26374
805.626	26446
805.768	26320
805.91	26522
806.052	26476
806.194	26225
806.336	26625
806.478	26412
806.62	26347
806.762	26488
806.904	26701
807.046	26857
807.188	26956
807.33	26975
807.472	26948
807.614	26800
807.756	26735
807.898	26530
808.04	26598
808.182	26583
808.324	26758
808.465	26796
808.607	26819
808.749	26921
808.891	26982
809.033	27127
809.174	27096
809.316	27062
809.458	27051
809.6	26807
809.741	27214
809.883	27165
810.025	27207
810.166	27367
810.308	27275
810.45	27272
810.591	27157
810.733	26918
810.875	27066
811.016	26861
811.158	26883
811.299	27169
811.441	27218
811.582	27146
811.724	27005
811.865	26967
812.007	26910
812.148	27017
812.29	26948
812.431	27096
812.573	27367
812.714	27332
812.855	27416
812.997	27538
813.138	27766
813.279	27599
813.421	27606
813.562	27420
813.703	27325
813.845	27085
813.986	26815
814.127	26693
814.268	26609
814.41	26625
814.551	26651
814.692	26682
814.833	26625
814.974	26689
815.115	26587
815.256	26488
815.397	26503
815.539	26503
815.68	26526
815.821	26199
815.962	26431
816.103	26412
816.244	26202
816.385	26111
816.526	26218
816.666	25997
816.807	25833
816.948	25947
817.089	25811
817.23	25902
817.371	25780
817.512	25845
817.653	25871
817.793	25738
817.934	25875
818.075	25894
818.216	25940
818.356	25753
818.497	25727
818.638	25750
818.778	25670
818.919	25651
819.06	25769
819.2	25765
819.341	25807
819.481	26005
819.622	26043
819.762	26168
819.903	26065
820.043	25997
820.184	26035
820.324	25887
820.465	26039
820.605	26069
820.746	26073
820.886	25868
821.026	26103
821.167	25860
821.307	25963
821.447	25849
821.588	25776
821.728	25620
821.868	25597
822.008	25308
822.149	25373
822.289	25289
822.429	25004
822.569	25034
822.709	25171
822.849	24848
822.99	24798
823.13	24821
823.27	24852
823.41	24738
823.55	24639
823.69	24741
823.83	24681
823.97	24627
824.11	24536
824.25	24502
824.389	24441
824.529	24498
824.669	24494
824.809	24635
824.949	24589
825.089	24597
825.228	24612
825.368	24251
825.508	24391
825.648	24410
825.787	24540
825.927	24429
826.067	24361
826.206	24372
826.346	24399
826.485	24483
826.625	24365
826.765	24525
826.904	24445
827.044	24292
827.183	24194
827.323	24053
827.462	24117
827.601	24087
827.741	24034
827.88	23992
828.02	24057
828.159	23992
828.298	24068
828.437	24068
828.577	24049
828.716	24194
828.855	24049
828.994	23809
829.134	23878
829.273	23786
829.412	23657
829.551	23661
829.69	23790
829.829	23790
829.968	23851
830.107	23870
830.246	23695
830.385	23718
830.524	23608
830.663	23623
830.802	23501
830.941	23406
831.08	23395
831.219	23429
831.357	23307
831.496	23570
831.635	23512
831.774	23128
831.913	23341
832.051	23204
832.19	23121
832.329	23212
832.467	23033
832.606	23033
832.744	22995
832.883	23014
833.022	22984
833.16	23090
833.299	23124
833.437	23094
833.576	23064
833.714	23113
833.852	23239
833.991	23185
834.129	23162
834.267	23181
834.406	23143
834.544	23147
834.682	22976
834.821	23113
834.959	23223
835.097	23113
835.235	23223
835.373	23136
835.511	23098
835.65	22972
835.788	23029
835.926	22843
836.064	22744
836.202	22721
836.34	22881
836.478	23060
836.615	22908
836.753	22972
836.891	23086
837.029	22987
837.167	22934
837.305	22919
837.443	22889
837.58	22790
837.718	22854
837.856	22809
837.993	22869
838.131	22805
838.269	22736
838.406	22801
838.544	22626
838.681	22443
838.819	22497
838.956	22154
839.094	22276
839.231	22363
839.369	22344
839.506	22831
839.643	22618
839.781	22344
839.918	22131
840.055	22333
840.193	22344
840.33	22284
840.467	22238
840.604	22299
840.742	22557
840.879	22124
841.016	22223
841.153	22173
841.29	22310
841.427	22124
841.564	22188
841.701	22200
841.838	22181
841.975	22139
842.112	22169
842.249	22002
842.385	22067
842.522	22276
842.659	22082
842.796	22036
842.933	21994
843.069	22070
843.206	21918
843.343	22116
843.479	22040
843.616	21968
843.752	21743
843.889	21785
844.025	21941
844.162	21747
844.298	21835
844.435	21766
844.571	21701
844.708	21793
844.844	21899
844.98	21793
845.117	21850
845.253	21561
845.389	21656
845.525	21644
845.661	21644
845.798	21530
845.934	21538
846.07	21412
846.206	21405
846.342	21652
846.478	21477
846.614	21233
846.75	21264
846.886	21214
847.022	21176
847.158	21294
847.294	21188
847.429	21241
847.565	21203
847.701	21412
847.837	21039
847.972	21001
848.108	21047
848.244	20918
848.379	20902
848.515	20811
848.65	20746
848.786	20834
848.921	20876
849.057	20887
849.192	20944
849.328	20933
849.463	20815
849.598	20731
849.734	20735
849.869	20667
850.004	20636
850.14	20651
850.275	20492
850.41	20533
850.545	20644
850.68	20556
850.815	20606
850.95	20609
851.085	20720
851.22	20708
851.355	20613
851.49	20629
851.625	20663
851.76	20476
851.895	20598
852.03	20598
852.165	20503
852.299	20625
852.434	20686
852.569	20617
852.703	20587
852.838	20617
852.973	20663
853.107	20678
853.242	20556
853.376	20450
853.511	20267
853.645	20415
853.78	20545
853.914	20469
854.048	20450
854.183	20404
854.317	20317
854.451	20651
854.585	20389
854.72	20374
854.854	20412
854.988	20267
855.122	20450
855.256	20298
855.39	20434
855.524	20568
855.658	20408
855.792	20454
855.926	20480
856.06	20473
856.194	20507
856.327	20393
856.461	20427
856.595	20271
856.729	20301
856.862	20552
856.996	20446
857.13	20530
857.263	20564
857.397	20590
857.53	20419
857.664	20427
857.797	20488
857.931	20446
858.064	20427
858.197	20545
858.331	20415
858.464	20320
858.597	20294
858.731	20370
858.864	20358
858.997	20320
859.13	20393
859.263	20442
859.396	20419
859.529	20473
859.662	20267
859.795	20336
859.928	20469
860.061	20465
860.194	20625
860.327	20419
860.46	20328
860.592	20366
860.725	20602
860.858	20545
860.99	20362
861.123	20366
861.256	20457
861.388	20381
861.521	20963
861.653	20210
861.786	20210
861.918	20256
862.05	20294
862.183	20377
862.315	20442
862.447	20434
862.58	20476
862.712	20267
862.844	20145
862.976	20343
863.108	20301
863.24	20606
863.372	20039
863.504	20157
863.636	20142
863.768	20290
863.9	20157
864.032	20046
864.164	20122
864.296	20130
864.428	20149
864.559	20263
864.691	20195
864.823	20206
864.954	20145
865.086	20107
865.217	19967
865.349	20115
865.48	20008
865.612	20005
865.743	20100
865.875	20050
866.006	19993
866.137	20103
866.269	19974
866.4	19967
866.531	19871
866.662	20027
866.793	20005
866.924	20001
867.055	20100
867.186	20081
867.317	19875
867.448	19898
867.579	19841
867.71	19830
867.841	19776
867.972	19993
868.103	20001
868.233	20058
868.364	19894
868.495	20062
868.625	20221
868.756	20305
868.886	20084
869.017	20183
869.147	20248
869.278	20298
869.408	20161
869.539	20206
869.669	20423
869.799	20237
869.929	20347
870.06	20237
870.19	20446
870.32	20564
870.45	20530
870.58	20617
870.71	20716
870.84	20705
870.97	20575
871.1	20625
871.23	20807
871.36	20868
871.489	20781
871.619	20788
871.749	20906
871.879	20838
872.008	20868
872.138	20819
872.267	20838
872.397	20682
872.526	20670
872.656	20655
872.785	20731
872.915	20849
873.044	20906
873.173	20963
873.303	20868
873.432	20872
873.561	20952
873.69	20876
873.819	20899
873.948	20830
874.077	20823
874.206	20819
874.335	20891
874.464	20975
874.593	21051
874.722	21089
874.851	21119
874.979	21207
875.108	21226
875.237	21009
875.365	21001
875.494	20994
875.623	21157
875.751	21024
875.88	21104
876.008	21252
876.136	21264
876.265	21408
876.393	21610
876.521	21507
876.65	21633
876.778	21416
876.906	21359
877.034	21496
877.162	21412
877.29	21420
877.418	21496
877.546	21351
877.674	21507
877.802	21496
877.93	21519
878.058	21469
878.185	21298
878.313	21492
878.441	21469
878.568	21214
878.696	21302
878.824	21386
878.951	21557
879.079	21549
879.206	21686
879.333	21443
879.461	21458
879.588	21599
879.715	21576
879.842	21759
879.97	21580
880.097	21249
880.224	21291
880.351	21264
880.478	21222
880.605	21291
880.732	21252
880.859	21428
880.986	21294
881.112	21348
881.239	21173
881.366	20963
881.493	21020
881.619	20868
881.746	20853
881.872	20963
881.999	20697
882.125	20750
882.252	20849
882.378	20765
882.505	20998
882.631	20720
882.757	20552
882.883	20598
883.01	20659
883.136	20617
883.262	20552
883.388	20492
883.514	20640
883.64	20648
883.766	20438
883.892	20427
884.018	20336
884.143	20480
884.269	20526
884.395	20336
884.52	20145
884.646	20153
884.772	20157
884.897	20084
885.023	20252
885.148	20286
885.274	20328
885.399	20278
885.524	20221
885.65	20278
885.775	20229
885.9	20100
886.025	20358
886.15	20195
886.275	20199
886.4	20046
886.525	20130
886.65	20153
886.775	20069
886.9	20225
887.025	20393
887.149	20180
887.274	20012
887.399	19997
887.523	20027
887.648	19883
887.773	19818
887.897	19993
888.021	20111
888.146	19982
888.27	20065
888.395	20024
888.519	20001
888.643	19917
888.767	19940
888.891	19852
889.015	19875
889.139	19780
889.263	19875
889.387	19887
889.511	19906
889.635	19932
889.759	19715
889.883	19807
890.006	19849
890.13	19849
890.254	19761
890.377	19693
890.501	19605
890.624	19343
890.748	19616
890.871	19419
890.995	19396
891.118	19384
891.241	19396
891.364	19301
891.488	19388
891.611	19365
891.734	19354
891.857	19506
891.98	19320
892.103	19480
892.226	19464
892.349	19274
892.471	19137
892.594	19301
892.717	19339
892.839	19278
892.962	19263
893.085	19480
893.207	19206
893.33	19213
893.452	19263
893.575	19354
893.697	19274
893.819	19468
893.941	19552
894.064	19586
894.186	19179
894.308	19221
894.43	19339
894.552	19453
894.674	19407
894.796	19320
894.918	19289
895.04	19213
895.161	19358
895.283	19343
895.405	19282
895.526	19453
895.648	19297
895.769	19301
895.891	19343
896.012	19343
896.134	19362
896.255	19354
896.376	19187
896.498	19274
896.619	19354
896.74	19293
896.861	19365
896.982	19750
897.103	19700
897.224	19609
897.345	19628
897.466	19464
897.587	19529
897.708	19662
897.828	19670
897.949	19411
898.07	19445
898.19	19514
898.311	19685
898.431	19384
898.552	19529
898.672	19571
898.792	19613
898.913	19628
899.033	19460
899.153	19362
899.273	19247
899.393	19297
899.513	19247
899.633	19324
899.753	19354
899.873	19187
899.993	19324
900.113	19152
900.232	19289
900.352	19274
900.472	19084
900.591	19008
900.711	19164
900.83	19114
900.95	19221
901.069	19278
901.189	18989
901.308	18760
901.427	18768
901.546	18760
901.665	18700
901.784	18692
901.904	18513
902.023	18475
902.141	18262
902.26	18243
902.379	18357
902.498	18346
902.617	18270
902.735	18296
902.854	18277
902.973	18129
903.091	17790
903.21	17931
903.328	17843
903.446	17836
903.565	17748
903.683	17737
903.801	17718
903.919	17589
904.038	17714
904.156	17589
904.274	17516
904.392	17448
904.51	17387
904.627	17440
904.745	17501
904.863	17577
904.981	17315
905.098	17098
905.216	17159
905.334	17155
905.451	17216
905.569	17117
905.686	17151
905.803	17105
905.921	16968
906.038	16999
906.155	16927
906.272	16866
906.389	16866
906.506	16702
906.623	16736
906.74	16672
906.857	16653
906.974	16546
907.091	16828
907.208	16736
907.324	16573
907.441	16691
907.557	16481
907.674	16474
907.79	16382
907.907	16367
908.023	16459
908.139	16497
908.256	16360
908.372	16303
908.488	16333
908.604	16284
908.72	16200
908.836	16166
908.952	16071
909.068	16181
909.184	16219
909.3	16185
909.415	16204
909.531	16128
909.647	15823
909.762	15854
909.878	15884
909.993	15884
910.108	15842
910.224	15816
910.339	15846
910.454	15614
910.57	15713
910.685	15660
910.8	15903
910.915	15865
911.03	15644
911.145	15485
911.259	15428
911.374	15507
911.489	15454
911.604	15374
911.718	15287
911.833	15222
911.947	15108
912.062	15039
912.176	15226
912.291	15275
912.405	15237
912.519	15462
912.633	15344
912.748	15287
912.862	15142
912.976	14982
913.09	14921
913.204	15020
913.318	15081
913.431	15108
913.545	15070
913.659	15013
913.772	14948
913.886	14952
914	14952
914.113	14910
914.226	14937
914.34	14944
914.453	14750
914.566	14861
914.68	14705
914.793	14670
914.906	14598
915.019	14412
915.132	14370
915.245	14454
915.358	14549
915.47	14473
915.583	14476
915.696	14419
915.809	14613
915.921	14636
916.034	14423
916.146	14404
916.259	14336
916.371	14423
916.483	14465
916.595	14294
916.708	14286
916.82	14343
916.932	14275
917.044	14275
917.156	14233
917.268	14161
917.38	14123
917.491	13970
917.603	14252
917.715	14202
917.826	14221
917.938	14119
918.049	13917
918.161	14145
918.272	14290
918.384	14267
918.495	14058
918.606	14008
918.717	13913
918.828	13837
918.939	13974
919.05	13871
919.161	13932
919.272	13776
919.383	13814
919.494	13982
919.604	14130
919.715	13940
919.826	13791
919.936	13864
920.047	13974
920.157	13917
920.267	14157
920.378	13875
920.488	13875
920.598	14073
920.708	14084
920.818	14031
920.928	13993
921.038	14107
921.148	14142
921.258	13841
921.368	13860
921.477	13624
921.587	13674
921.697	13518
921.806	13643
921.916	13548
922.025	13415
922.134	13354
922.244	13198
922.353	13285
922.462	13247
922.571	13171
922.68	12947
922.789	12989
922.898	12947
923.007	12977
923.116	12981
923.224	12958
923.333	12928
923.442	12844
923.55	12760
923.659	12848
923.767	12829
923.876	12703
923.984	12867
924.092	12764
924.201	12722
924.309	12692
924.417	12745
924.525	12673
924.633	12654
924.741	13537
924.849	12475
924.956	12677
925.064	12441
925.172	12365
925.279	12403
925.387	12448
925.494	12429
925.602	12528
925.709	12574
925.816	12327
925.924	12384
926.031	12414
926.138	12327
926.245	12376
926.352	12270
926.459	12422
926.566	12422
926.673	12205
926.779	12239
926.886	12201
926.993	12057
927.099	12034
927.206	12019
927.312	11992
927.419	11969
927.525	12030
927.631	11992
927.737	11942
927.843	11832
927.95	11741
928.056	11794
928.162	11726
928.267	11840
928.373	12452
928.479	11805
928.585	11688
928.69	11805
928.796	11798
928.901	11684
929.007	11562
929.112	11699
929.218	11649
929.323	11615
929.428	11539
929.533	11699
929.638	11497
929.743	11543
929.848	11562
929.953	11554
930.058	11376
930.163	11265
930.267	11227
930.372	11353
930.477	11197
930.581	11395
930.685	11311
930.79	11189
930.894	11162
930.998	11083
931.103	11227
931.207	10854
931.311	10824
931.415	10733
931.519	10588
931.623	10649
