Data from test_V78500241_3601.txt Node
Date: Fri Mar 25 15:34:55 CST 2022
User: usil
Spectrometer: V785-0024
Trigger mode: 0
Integration Time (sec): 4.000000E-1
Scans to average: 1
Nonlinearity correction enabled: false
Boxcar width: 0
Storing dark spectrum: false
XAxis mode: Wavelengths
Number of Pixels in Spectrum: 1024
>>>>>Begin Spectral Data<<<<<
801.071	27230
801.214	27203
801.356	27112
801.499	26975
801.641	26975
801.783	26876
801.926	26910
802.068	27001
802.211	26834
802.353	26686
802.496	26613
802.638	26518
802.78	26571
802.923	26252
803.065	26396
803.208	26347
803.35	26488
803.492	26716
803.635	26693
803.777	26617
803.919	26609
804.061	26975
804.204	26617
804.346	26613
804.488	26568
804.63	26594
804.773	26461
804.915	26579
805.057	26754
805.199	26613
805.341	26701
805.483	26712
805.626	26724
805.768	26492
805.91	26636
806.052	26792
806.194	26724
806.336	26925
806.478	26807
806.62	26735
806.762	26826
806.904	26948
807.046	27260
807.188	27070
807.33	27119
807.472	27123
807.614	27138
807.756	27036
807.898	27077
808.04	26891
808.182	27024
808.324	27062
808.465	27066
808.607	27135
808.749	27416
808.891	27504
809.033	27431
809.174	27466
809.316	27336
809.458	27344
809.6	27275
809.741	27500
809.883	27466
810.025	27542
810.166	27679
810.308	27717
810.45	27671
810.591	27507
810.733	27466
810.875	27386
811.016	27370
811.158	27173
811.299	27454
811.441	27447
811.582	27545
811.724	27310
811.865	27279
812.007	27408
812.148	27408
812.29	27351
812.431	27469
812.573	27671
812.714	27789
812.855	27816
812.997	27907
813.138	28021
813.279	27907
813.421	27804
813.562	27941
813.703	27610
813.845	27610
813.986	27180
814.127	27024
814.268	27112
814.41	27013
814.551	27036
814.692	27157
814.833	26971
814.974	27017
815.115	27127
815.256	26849
815.397	26960
815.539	26796
815.68	26735
815.821	26705
815.962	26686
816.103	26724
816.244	26781
816.385	26609
816.526	26514
816.666	26480
816.807	26267
816.948	26191
817.089	26313
817.23	26294
817.371	26267
817.512	26240
817.653	26271
817.793	26244
817.934	26168
818.075	26278
818.216	26237
818.356	26278
818.497	26084
818.638	26005
818.778	25932
818.919	25940
819.06	26103
819.2	26294
819.341	26138
819.481	26355
819.622	26404
819.762	26514
819.903	26450
820.043	26484
820.184	26434
820.324	26457
820.465	26286
820.605	26396
820.746	26332
820.886	26275
821.026	26431
821.167	26442
821.307	26526
821.447	26263
821.588	26347
821.728	26096
821.868	25875
822.008	25776
822.149	25788
822.289	25685
822.429	25460
822.569	25422
822.709	25411
822.849	25221
822.99	25255
823.13	25171
823.27	25122
823.41	24951
823.55	24935
823.69	25012
823.83	25080
823.97	24985
824.11	24863
824.25	24646
824.389	24833
824.529	25000
824.669	24901
824.809	25038
824.949	24878
825.089	25046
825.228	24966
825.368	24745
825.508	24757
825.648	24848
825.787	24848
825.927	24700
826.067	24779
826.206	24703
826.346	24753
826.485	24848
826.625	24703
826.765	24798
826.904	24821
827.044	24570
827.183	24555
827.323	24422
827.462	24464
827.601	24460
827.741	24395
827.88	24448
828.02	24216
828.159	24513
828.298	24456
828.437	24429
828.577	24407
828.716	24692
828.855	24384
828.994	24171
829.134	24159
829.273	24171
829.412	24011
829.551	24102
829.69	24251
829.829	24213
829.968	24308
830.107	24216
830.246	24319
830.385	24102
830.524	24003
830.663	24060
830.802	23893
830.941	23775
831.08	23752
831.219	23809
831.357	23885
831.496	24091
831.635	23798
831.774	23665
831.913	23687
832.051	23547
832.19	23558
832.329	23566
832.467	23592
832.606	23478
832.744	23493
832.883	23490
833.022	23368
833.16	23455
833.299	23585
833.437	23459
833.576	23558
833.714	23493
833.852	23642
833.991	23592
834.129	23680
834.267	23729
834.406	23615
834.544	23634
834.682	23539
834.821	23600
834.959	23619
835.097	23436
835.235	23684
835.373	23589
835.511	23535
835.65	23402
835.788	23383
835.926	23410
836.064	23083
836.202	23151
836.34	23337
836.478	23429
836.615	23440
836.753	23417
836.891	23463
837.029	23406
837.167	23364
837.305	23353
837.443	23288
837.58	23231
837.718	23299
837.856	23292
837.993	23094
838.131	23303
838.269	23044
838.406	23216
838.544	23105
838.681	22904
838.819	22881
838.956	22721
839.094	22740
839.231	22881
839.369	22854
839.506	23235
839.643	23006
839.781	22771
839.918	22637
840.055	22691
840.193	22641
840.33	22607
840.467	22561
840.604	22725
840.742	22957
840.879	22542
841.016	22615
841.153	22535
841.29	22759
841.427	22580
841.564	22755
841.701	22744
841.838	22565
841.975	22554
842.112	22641
842.249	22485
842.385	22478
842.522	22649
842.659	22489
842.796	22360
842.933	22546
843.069	22409
843.206	22428
843.343	22512
843.479	22417
843.616	22363
843.752	22268
843.889	22265
844.025	22402
844.162	22226
844.298	22394
844.435	22185
844.571	22234
844.708	22268
844.844	22409
844.98	22314
845.117	22223
845.253	22143
845.389	22048
845.525	22192
845.661	22017
845.798	22025
845.934	21998
846.07	21907
846.206	21968
846.342	22021
846.478	21987
846.614	21686
846.75	21660
846.886	21709
847.022	21930
847.158	21743
847.294	21804
847.429	21819
847.565	21736
847.701	21964
847.837	21443
847.972	21439
848.108	21507
848.244	21420
848.379	21325
848.515	21321
848.65	21108
848.786	21351
848.921	21157
849.057	21317
849.192	21332
849.328	21336
849.463	21195
849.598	21169
849.734	21161
849.869	21154
850.004	20990
850.14	21028
850.275	21104
850.41	20975
850.545	20880
850.68	21062
850.815	21108
850.95	21020
851.085	21203
851.22	21074
851.355	21062
851.49	21024
851.625	21024
851.76	20948
851.895	20895
852.03	20906
852.165	21020
852.299	21013
852.434	21165
852.569	21017
852.703	21066
852.838	21104
852.973	21169
853.107	21226
853.242	20944
853.376	20769
853.511	20750
853.645	20887
853.78	20979
853.914	20899
854.048	20739
854.183	20876
854.317	20918
854.451	21161
854.585	20838
854.72	20960
854.854	20899
854.988	20834
855.122	20921
855.256	20765
855.39	20842
855.524	20902
855.658	20902
855.792	20925
855.926	20762
856.06	20960
856.194	20914
856.327	20765
856.461	20792
856.595	20739
856.729	20849
856.862	20853
856.996	20944
857.13	20883
857.263	21055
857.397	21085
857.53	20864
857.664	20906
857.797	21017
857.931	21009
858.064	20876
858.197	20982
858.331	20967
858.464	20811
858.597	20724
858.731	20815
858.864	20819
858.997	20838
859.13	20800
859.263	20880
859.396	20864
859.529	20830
859.662	20758
859.795	20617
859.928	20857
860.061	21005
860.194	21024
860.327	20914
860.46	20842
860.592	21013
860.725	20979
860.858	20990
860.99	20880
861.123	20891
861.256	20864
861.388	20777
861.521	21671
861.653	20777
861.786	20636
861.918	20674
862.05	20777
862.183	20758
862.315	20845
862.447	20849
862.58	20834
862.712	20655
862.844	20583
862.976	20564
863.108	20686
863.24	20986
863.372	20495
863.504	20644
863.636	20518
863.768	20587
863.9	20655
864.032	20499
864.164	20537
864.296	20689
864.428	20811
864.559	20632
864.691	20606
864.823	20655
864.954	20606
865.086	20461
865.217	20541
865.349	20343
865.48	20469
865.612	20381
865.743	20629
865.875	20427
866.006	20503
866.137	20545
866.269	20511
866.4	20484
866.531	20461
866.662	20408
866.793	20408
866.924	20370
867.055	20469
867.186	20408
867.317	20415
867.448	20313
867.579	20385
867.71	20324
867.841	20313
867.972	20495
868.103	20347
868.233	20408
868.364	20488
868.495	20484
868.625	20655
868.756	20682
868.886	20587
869.017	20708
869.147	20849
869.278	20781
869.408	20777
869.539	20746
869.669	20796
869.799	20754
869.929	20708
870.06	20754
870.19	20960
870.32	20891
870.45	21074
870.58	20986
870.71	21100
870.84	21211
870.97	21135
871.1	21055
871.23	21165
871.36	21268
871.489	21272
871.619	21218
871.749	21344
871.879	21397
872.008	21435
872.138	21252
872.267	21241
872.397	21184
872.526	20986
872.656	21165
872.785	21131
872.915	21260
873.044	21359
873.173	21302
873.303	21367
873.432	21245
873.561	21302
873.69	21329
873.819	21264
873.948	21386
874.077	21180
874.206	21272
874.335	21294
874.464	21477
874.593	21534
874.722	21447
874.851	21534
874.979	21523
875.108	21526
875.237	21519
875.365	21515
875.494	21530
875.623	21682
875.751	21477
875.88	21519
876.008	21591
876.136	21739
876.265	21979
876.393	21998
876.521	22070
876.65	22116
876.778	21930
876.906	21846
877.034	21934
877.162	21888
877.29	21797
877.418	21975
877.546	21842
877.674	21865
877.802	21865
877.93	21915
878.058	21831
878.185	21884
878.313	21895
878.441	21831
878.568	21736
878.696	21720
878.824	21854
878.951	22006
879.079	21998
879.206	22078
879.333	21998
879.461	21994
879.588	21941
879.715	22040
879.842	22166
879.97	21937
880.097	21709
880.224	21641
880.351	21755
880.478	21648
880.605	21583
880.732	21713
880.859	21975
880.986	21781
881.112	21732
881.239	21633
881.366	21564
881.493	21260
881.619	21252
881.746	21363
881.872	21336
881.999	21313
882.125	21176
882.252	21325
882.378	21283
882.505	21310
882.631	21131
882.757	21074
882.883	21089
883.01	20944
883.136	21009
883.262	20807
883.388	20918
883.514	20982
883.64	21043
883.766	20933
883.892	20762
884.018	20830
884.143	20925
884.269	21005
884.395	20826
884.52	20549
884.646	20686
884.772	20556
884.897	20575
885.023	20826
885.148	20625
885.274	20815
885.399	20739
885.524	20640
885.65	20621
885.775	20617
885.9	20583
886.025	20705
886.15	20686
886.275	20541
886.4	20450
886.525	20587
886.65	20522
886.775	20575
886.9	20659
887.025	20811
887.149	20629
887.274	20324
887.399	20385
887.523	20450
887.648	20336
887.773	20336
887.897	20434
888.021	20492
888.146	20465
888.27	20556
888.395	20476
888.519	20351
888.643	20541
888.767	20442
888.891	20332
889.015	20267
889.139	20202
889.263	20218
889.387	20347
889.511	20408
889.635	20328
889.759	20244
889.883	20271
890.006	20210
890.13	20298
890.254	20214
890.377	20172
890.501	20050
890.624	19875
890.748	20050
890.871	19887
890.995	19772
891.118	19765
891.241	19780
891.364	19746
891.488	19967
891.611	19742
891.734	19693
891.857	19845
891.98	19890
892.103	19818
892.226	19803
892.349	19757
892.471	19613
892.594	19803
892.717	19647
892.839	19639
892.962	19674
893.085	19734
893.207	19742
893.33	19578
893.452	19666
893.575	19658
893.697	19765
893.819	19932
893.941	19841
894.064	19860
894.186	19670
894.308	19639
894.43	19791
894.552	19902
894.674	19856
894.796	19704
894.918	19670
895.04	19742
895.161	19753
895.283	19814
895.405	19674
895.526	19750
895.648	19685
895.769	19791
895.891	19742
896.012	19715
896.134	19723
896.255	19689
896.376	19628
896.498	19742
896.619	19704
896.74	19795
896.861	19776
896.982	20012
897.103	20096
897.224	20016
897.345	19902
897.466	19776
897.587	19936
897.708	20138
897.828	19951
897.949	19883
898.07	19894
898.19	19784
898.311	19913
898.431	19791
898.552	19814
898.672	19986
898.792	19951
898.913	19944
899.033	19677
899.153	19689
899.273	19670
899.393	19666
899.513	19753
899.633	19772
899.753	19727
899.873	19567
899.993	19727
900.113	19624
900.232	19658
900.352	19685
900.472	19460
900.591	19483
900.711	19605
900.83	19487
900.95	19514
901.069	19586
901.189	19415
901.308	19198
901.427	19027
901.546	18958
901.665	19069
901.784	19031
901.904	18954
902.023	18817
902.141	18673
902.26	18585
902.379	18673
902.498	18574
902.617	18475
902.735	18597
902.854	18475
902.973	18437
903.091	18281
903.21	18239
903.328	18247
903.446	18182
903.565	18121
903.683	18026
903.801	17988
903.919	18049
904.038	17950
904.156	17843
904.274	17832
904.392	17649
904.51	17851
904.627	17779
904.745	17889
904.863	17843
904.981	17649
905.098	17520
905.216	17501
905.334	17570
905.451	17486
905.569	17398
905.686	17532
905.803	17524
905.921	17288
906.038	17387
906.155	17356
906.272	17239
906.389	17185
906.506	17090
906.623	17041
906.74	17029
906.857	16987
906.974	16862
907.091	17086
907.208	17193
907.324	17090
907.441	17003
907.557	16820
907.674	16683
907.79	16710
907.907	16839
908.023	16812
908.139	16786
908.256	16767
908.372	16740
908.488	16672
908.604	16379
908.72	16474
908.836	16413
908.952	16428
909.068	16519
909.184	16622
909.3	16478
909.415	16470
909.531	16459
909.647	16280
909.762	16261
909.878	16128
909.993	16135
910.108	16219
910.224	16188
910.339	16143
910.454	16109
910.57	16010
910.685	16025
910.8	16234
910.915	16139
911.03	15854
911.145	15831
911.259	15797
911.374	15797
911.489	15701
911.604	15705
911.718	15572
911.833	15447
911.947	15507
912.062	15469
912.176	15557
912.291	15530
912.405	15557
912.519	15732
912.633	15675
912.748	15610
912.862	15523
912.976	15370
913.09	15287
913.204	15332
913.318	15382
913.431	15473
913.545	15477
913.659	15382
913.772	15386
913.886	15268
914	15131
914.113	15154
914.226	15256
914.34	15291
914.453	15116
914.566	15294
914.68	15009
914.793	15017
914.906	14849
915.019	14842
915.132	14689
915.245	14781
915.358	14872
915.47	14857
915.583	14788
915.696	14853
915.809	14956
915.921	14941
916.034	14792
916.146	14663
916.259	14731
916.371	14769
916.483	14773
916.595	14667
916.708	14632
916.82	14613
916.932	14583
917.044	14560
917.156	14480
917.268	14617
917.38	14492
917.491	14457
917.603	14495
917.715	14560
917.826	14648
917.938	14431
918.049	14374
918.161	14511
918.272	14579
918.384	14503
918.495	14396
918.606	14343
918.717	14286
918.828	14263
918.939	14355
919.05	14161
919.161	14218
919.272	13978
919.383	14084
919.494	14221
919.604	14434
919.715	14298
919.826	14065
919.936	14172
920.047	14358
920.157	14187
920.267	14404
920.378	14267
920.488	14206
920.598	14415
920.708	14533
920.818	14377
920.928	14286
921.038	14541
921.148	14511
921.258	14172
921.368	14111
921.477	14062
921.587	13951
921.697	13875
921.806	14069
921.916	13879
922.025	13681
922.134	13647
922.244	13613
922.353	13582
922.462	13529
922.571	13449
922.68	13324
922.789	13304
922.898	13358
923.007	13236
923.116	13289
923.224	13225
923.333	13247
923.442	13110
923.55	13133
923.659	13133
923.767	13168
923.876	13031
923.984	13145
924.092	12985
924.201	13065
924.309	12958
924.417	12943
924.525	12905
924.633	13004
924.741	13913
924.849	12821
924.956	12897
925.064	12681
925.172	12726
925.279	12700
925.387	12719
925.494	12749
925.602	12886
925.709	12684
925.816	12582
925.924	12696
926.031	12787
926.138	12635
926.245	12601
926.352	12559
926.459	12646
926.566	12700
926.673	12639
926.779	12479
926.886	12407
926.993	12369
927.099	12308
927.206	12239
927.312	12216
927.419	12216
927.525	12239
927.631	12296
927.737	12155
927.843	12049
927.95	11973
928.056	12117
928.162	12129
928.267	12182
928.373	12677
928.479	12060
928.585	11965
928.69	12049
928.796	12045
928.901	12026
929.007	11783
929.112	11935
929.218	11916
929.323	11897
929.428	11847
929.533	11942
929.638	11790
929.743	11771
929.848	11805
929.953	11828
930.058	11611
930.163	11471
930.267	11452
930.372	11657
930.477	11512
930.581	11668
930.685	11509
930.79	11364
930.894	11459
930.998	11395
931.103	11543
931.207	11140
931.311	11079
931.415	10949
931.519	10847
931.623	10801
