Data from test_V78500241_2076.txt Node
Date: Fri Mar 25 15:24:18 CST 2022
User: usil
Spectrometer: V785-0024
Trigger mode: 0
Integration Time (sec): 4.000000E-1
Scans to average: 1
Nonlinearity correction enabled: false
Boxcar width: 0
Storing dark spectrum: false
XAxis mode: Wavelengths
Number of Pixels in Spectrum: 1024
>>>>>Begin Spectral Data<<<<<
801.071	27846
801.214	27861
801.356	27580
801.499	27507
801.641	27435
801.783	27393
801.926	27355
802.068	27256
802.211	27329
802.353	27252
802.496	27127
802.638	27043
802.78	27032
802.923	26910
803.065	26838
803.208	26823
803.35	26956
803.492	27036
803.635	27150
803.777	26967
803.919	27237
804.061	27431
804.204	27283
804.346	27089
804.488	27146
804.63	27154
804.773	27173
804.915	27344
805.057	27294
805.199	27138
805.341	27173
805.483	27241
805.626	27222
805.768	27321
805.91	27325
806.052	27443
806.194	27268
806.336	27447
806.478	27287
806.62	27336
806.762	27382
806.904	27473
807.046	27911
807.188	27675
807.33	27656
807.472	27816
807.614	27717
807.756	27724
807.898	27496
808.04	27595
808.182	27595
808.324	27523
808.465	27690
808.607	27819
808.749	27968
808.891	28025
809.033	28154
809.174	27914
809.316	27930
809.458	27888
809.6	27778
809.741	27960
809.883	28021
810.025	28299
810.166	28173
810.308	28226
810.45	28120
810.591	27960
810.733	27884
810.875	27972
811.016	27816
811.158	27751
811.299	28021
811.441	27953
811.582	28131
811.724	27941
811.865	27960
812.007	27690
812.148	27972
812.29	27911
812.431	28086
812.573	28242
812.714	28322
812.855	28382
812.997	28493
813.138	28557
813.279	28577
813.421	28443
813.562	28409
813.703	28219
813.845	28192
813.986	27869
814.127	27717
814.268	27694
814.41	27644
814.551	27526
814.692	27838
814.833	27450
814.974	27641
815.115	27660
815.256	27507
815.397	27427
815.539	27526
815.68	27302
815.821	27332
815.962	27424
816.103	27431
816.244	27313
816.385	27222
816.526	27032
816.666	27081
816.807	26781
816.948	26990
817.089	26857
817.23	26895
817.371	26925
817.512	26876
817.653	26906
817.793	26918
817.934	26758
818.075	26849
818.216	26804
818.356	26788
818.497	26735
818.638	26575
818.778	26609
818.919	26602
819.06	26613
819.2	26845
819.341	26834
819.481	26963
819.622	27020
819.762	27272
819.903	27051
820.043	27081
820.184	26994
820.324	27036
820.465	27051
820.605	26967
820.746	26861
820.886	26823
821.026	26998
821.167	26895
821.307	27108
821.447	26864
821.588	26861
821.728	26606
821.868	26579
822.008	26347
822.149	26290
822.289	26317
822.429	26081
822.569	26084
822.709	26164
822.849	25795
822.99	25799
823.13	25807
823.27	25856
823.41	25552
823.55	25613
823.69	25734
823.83	25750
823.97	25590
824.11	25556
824.25	25430
824.389	25502
824.529	25575
824.669	25499
824.809	25495
824.949	25704
825.089	25556
825.228	25616
825.368	25247
825.508	25483
825.648	25449
825.787	25415
825.927	25438
826.067	25308
826.206	25343
826.346	25331
826.485	25232
826.625	25221
826.765	25556
826.904	25453
827.044	25194
827.183	25107
827.323	25160
827.462	25160
827.601	25148
827.741	25065
827.88	25069
828.02	25103
828.159	24985
828.298	25065
828.437	25031
828.577	24962
828.716	25202
828.855	25141
828.994	24688
829.134	24722
829.273	24772
829.412	24734
829.551	24692
829.69	24791
829.829	24939
829.968	24871
830.107	24783
830.246	24757
830.385	24658
830.524	24692
830.663	24585
830.802	24437
830.941	24243
831.08	24403
831.219	24486
831.357	24547
831.496	24585
831.635	24410
831.774	24296
831.913	24365
832.051	24148
832.19	24049
832.329	24159
832.467	24076
832.606	24038
832.744	24049
832.883	24091
833.022	24015
833.16	23999
833.299	24125
833.437	23973
833.576	24186
833.714	24049
833.852	24102
833.991	24167
834.129	24224
834.267	24076
834.406	24007
834.544	24102
834.682	24095
834.821	24117
834.959	24235
835.097	23885
835.235	24110
835.373	24098
835.511	24079
835.65	24041
835.788	23992
835.926	23786
836.064	23737
836.202	23680
836.34	23847
836.478	24243
836.615	24018
836.753	23992
836.891	24003
837.029	23908
837.167	23817
837.305	23824
837.443	23863
837.58	23752
837.718	23824
837.856	23805
837.993	23707
838.131	23672
838.269	23642
838.406	23657
838.544	23634
838.681	23372
838.819	23261
838.956	23197
839.094	23261
839.231	23223
839.369	23398
839.506	23703
839.643	23402
839.781	23140
839.918	23216
840.055	23220
840.193	23269
840.33	23162
840.467	23102
840.604	23265
840.742	23398
840.879	22995
841.016	23018
841.153	23006
841.29	23265
841.427	23071
841.564	23155
841.701	23121
841.838	23067
841.975	23064
842.112	23067
842.249	22896
842.385	22923
842.522	23204
842.659	22866
842.796	22805
842.933	22866
843.069	22900
843.206	22889
843.343	23018
843.479	22812
843.616	22927
843.752	22733
843.889	22694
844.025	22869
844.162	22634
844.298	22881
844.435	22649
844.571	22592
844.708	22786
844.844	22835
844.98	22816
845.117	22790
845.253	22649
845.389	22550
845.525	22622
845.661	22489
845.798	22455
845.934	22455
846.07	22344
846.206	22466
846.342	22561
846.478	22417
846.614	22207
846.75	22128
846.886	22154
847.022	22207
847.158	22150
847.294	22154
847.429	22181
847.565	22154
847.701	22261
847.837	21960
847.972	21869
848.108	22006
848.244	21998
848.379	21808
848.515	21724
848.65	21686
848.786	21736
848.921	21637
849.057	21720
849.192	21922
849.328	21663
849.463	21713
849.598	21610
849.734	21595
849.869	21614
850.004	21568
850.14	21519
850.275	21507
850.41	21332
850.545	21401
850.68	21363
850.815	21568
850.95	21477
851.085	21838
851.22	21663
851.355	21629
851.49	21526
851.625	21515
851.76	21511
851.895	21389
852.03	21450
852.165	21553
852.299	21633
852.434	21576
852.569	21530
852.703	21595
852.838	21557
852.973	21823
853.107	21599
853.242	21420
853.376	21325
853.511	21382
853.645	21256
853.78	21420
853.914	21370
854.048	21298
854.183	21469
854.317	21336
854.451	21435
854.585	21336
854.72	21336
854.854	21401
854.988	21348
855.122	21355
855.256	21226
855.39	21329
855.524	21367
855.658	21348
855.792	21424
855.926	21424
856.06	21389
856.194	21359
856.327	21340
856.461	21332
856.595	21329
856.729	21336
856.862	21549
856.996	21435
857.13	21466
857.263	21382
857.397	21401
857.53	21462
857.664	21291
857.797	21462
857.931	21439
858.064	21298
858.197	21420
858.331	21294
858.464	21447
858.597	21287
858.731	21313
858.864	21298
858.997	21306
859.13	21382
859.263	21386
859.396	21439
859.529	21351
859.662	21329
859.795	21287
859.928	21405
860.061	21481
860.194	21553
860.327	21370
860.46	21359
860.592	21408
860.725	21435
860.858	21412
860.99	21310
861.123	21310
861.256	21294
861.388	21325
861.521	22067
861.653	21135
861.786	21108
861.918	21184
862.05	21325
862.183	21252
862.315	21294
862.447	21249
862.58	21348
862.712	21119
862.844	21203
862.976	21241
863.108	21173
863.24	21405
863.372	20971
863.504	21051
863.636	21127
863.768	21039
863.9	21188
864.032	21032
864.164	21055
864.296	21062
864.428	21226
864.559	21218
864.691	21100
864.823	21024
864.954	21047
865.086	21020
865.217	21043
865.349	20883
865.48	20899
865.612	20967
865.743	20971
865.875	20986
866.006	20979
866.137	20868
866.269	20925
866.4	20960
866.531	20982
866.662	20750
866.793	20933
866.924	20807
867.055	20838
867.186	20967
867.317	20883
867.448	20868
867.579	20834
867.71	20845
867.841	20811
867.972	20918
868.103	20937
868.233	20887
868.364	20899
868.495	20982
868.625	21146
868.756	21226
868.886	21051
869.017	21062
869.147	21313
869.278	21207
869.408	21104
869.539	21176
869.669	21180
869.799	21176
869.929	21275
870.06	21302
870.19	21386
870.32	21401
870.45	21492
870.58	21538
870.71	21671
870.84	21614
870.97	21378
871.1	21610
871.23	21568
871.36	21728
871.489	21667
871.619	21652
871.749	21751
871.879	21842
872.008	21880
872.138	21709
872.267	21720
872.397	21629
872.526	21545
872.656	21515
872.785	21549
872.915	21736
873.044	21865
873.173	21648
873.303	21778
873.432	21816
873.561	21915
873.69	21781
873.819	21690
873.948	21709
874.077	21800
874.206	21709
874.335	21739
874.464	21911
874.593	22051
874.722	21778
874.851	21983
874.979	22074
875.108	21930
875.237	21934
875.365	21831
875.494	21895
875.623	22013
875.751	21857
875.88	22006
876.008	22112
876.136	22128
876.265	22299
876.393	22390
876.521	22333
876.65	22440
876.778	22287
876.906	22371
877.034	22356
877.162	22318
877.29	22268
877.418	22280
877.546	22310
877.674	22322
877.802	22226
877.93	22177
878.058	22192
878.185	22276
878.313	22234
878.441	22295
878.568	22131
878.696	22272
878.824	22337
878.951	22424
879.079	22432
879.206	22656
879.333	22459
879.461	22375
879.588	22497
879.715	22417
879.842	22706
879.97	22276
880.097	22128
880.224	22162
880.351	22158
880.478	22226
880.605	22078
880.732	22048
880.859	22356
880.986	22086
881.112	22211
881.239	22051
881.366	21884
881.493	21785
881.619	21606
881.746	21671
881.872	21644
881.999	21736
882.125	21663
882.252	21800
882.378	21686
882.505	21679
882.631	21523
882.757	21405
882.883	21428
883.01	21389
883.136	21256
883.262	21256
883.388	21230
883.514	21401
883.64	21367
883.766	21420
883.892	21233
884.018	21230
884.143	21199
884.269	21340
884.395	21112
884.52	20971
884.646	21085
884.772	20918
884.897	21009
885.023	21081
885.148	21150
885.274	21199
885.399	21135
885.524	21176
885.65	21028
885.775	21074
885.9	21077
886.025	21237
886.15	21093
886.275	21020
886.4	20929
886.525	20967
886.65	20902
886.775	20986
886.9	21173
887.025	21154
887.149	21020
887.274	20830
887.399	20804
887.523	20796
887.648	20750
887.773	20758
887.897	20910
888.021	20895
888.146	20823
888.27	20857
888.395	20918
888.519	20921
888.643	20792
888.767	20754
888.891	20739
889.015	20636
889.139	20716
889.263	20659
889.387	20724
889.511	20773
889.635	20762
889.759	20583
889.883	20659
890.006	20609
890.13	20746
890.254	20503
890.377	20564
890.501	20347
890.624	20305
890.748	20412
890.871	20206
890.995	20218
891.118	20096
891.241	20298
891.364	20214
891.488	20404
891.611	20164
891.734	20145
891.857	20271
891.98	20252
892.103	20115
892.226	20187
892.349	20062
892.471	19951
892.594	20043
892.717	20107
892.839	19947
892.962	20054
893.085	20043
893.207	20107
893.33	20031
893.452	20031
893.575	20096
893.697	20077
893.819	20191
893.941	20298
894.064	20199
894.186	20001
894.308	20039
894.43	20221
894.552	20214
894.674	20145
894.796	20020
894.918	20130
895.04	19947
895.161	20126
895.283	20096
895.405	20043
895.526	20153
895.648	20005
895.769	20065
895.891	20142
896.012	20126
896.134	20043
896.255	20248
896.376	19967
896.498	20062
896.619	20195
896.74	20122
896.861	20073
896.982	20484
897.103	20461
897.224	20332
897.345	20343
897.466	20252
897.587	20298
897.708	20518
897.828	20377
897.949	20180
898.07	20031
898.19	20328
898.311	20381
898.431	20187
898.552	20275
898.672	20298
898.792	20454
898.913	20358
899.033	20103
899.153	20172
899.273	19993
899.393	20027
899.513	20084
899.633	20084
899.753	20138
899.873	19951
899.993	20130
900.113	19993
900.232	20115
900.352	19970
900.472	19769
900.591	19837
900.711	19799
900.83	19788
900.95	19845
901.069	19845
901.189	19734
901.308	19472
901.427	19453
901.546	19422
901.665	19499
901.784	19365
901.904	19213
902.023	19255
902.141	18966
902.26	19027
902.379	19000
902.498	18844
902.617	18916
902.735	18947
902.854	18977
902.973	18810
903.091	18692
903.21	18494
903.328	18517
903.446	18475
903.565	18445
903.683	18365
903.801	18407
903.919	18426
904.038	18334
904.156	18136
904.274	18205
904.392	18190
904.51	18152
904.627	18171
904.745	18224
904.863	18289
904.981	17927
905.098	17931
905.216	17916
905.334	17847
905.451	17832
905.569	17908
905.686	17828
905.803	17878
905.921	17619
906.038	17653
906.155	17653
906.272	17585
906.389	17486
906.506	17452
906.623	17341
906.74	17326
906.857	17303
906.974	17448
907.091	17414
907.208	17516
907.324	17425
907.441	17303
907.557	17185
907.674	17174
907.79	17022
907.907	17006
908.023	17170
908.139	17170
908.256	17064
908.372	16980
908.488	16999
908.604	16854
908.72	16820
908.836	16942
908.952	16763
909.068	16847
909.184	16805
909.3	16801
909.415	16744
909.531	16755
909.647	16489
909.762	16485
909.878	16504
909.993	16531
910.108	16508
910.224	16424
910.339	16470
910.454	16440
910.57	16299
910.685	16333
910.8	16428
910.915	16455
911.03	16238
911.145	16154
911.259	16131
911.374	16086
911.489	16017
911.604	16021
911.718	15850
911.833	15835
911.947	15808
912.062	15713
912.176	15747
912.291	15953
912.405	15884
912.519	16017
912.633	16029
912.748	15953
912.862	15827
912.976	15633
913.09	15534
913.204	15610
913.318	15686
913.431	15720
913.545	15880
913.659	15766
913.772	15648
913.886	15485
914	15458
914.113	15507
914.226	15538
914.34	15561
914.453	15374
914.566	15469
914.68	15382
914.793	15386
914.906	15218
915.019	15047
915.132	15074
915.245	15104
915.358	15180
915.47	15058
915.583	15085
915.696	15097
915.809	15272
915.921	15233
916.034	15116
916.146	14925
916.259	14948
916.371	15032
916.483	15005
916.595	14804
916.708	14895
916.82	14952
916.932	14857
917.044	14861
917.156	14872
917.268	14914
917.38	14781
917.491	14769
917.603	14659
917.715	14758
917.826	14864
917.938	14678
918.049	14602
918.161	14617
918.272	14845
918.384	14697
918.495	14705
918.606	14469
918.717	14389
918.828	14617
918.939	14602
919.05	14415
919.161	14446
919.272	14218
919.383	14381
919.494	14533
919.604	14655
919.715	14568
919.826	14267
919.936	14438
920.047	14556
920.157	14412
920.267	14602
920.378	14377
920.488	14377
920.598	14655
920.708	14762
920.818	14499
920.928	14587
921.038	14773
921.148	14731
921.258	14457
921.368	14324
921.477	14221
921.587	14153
921.697	14024
921.806	14119
921.916	14065
922.025	13864
922.134	13845
922.244	13830
922.353	13917
922.462	13643
922.571	13670
922.68	13613
922.789	13506
922.898	13495
923.007	13396
923.116	13567
923.224	13499
923.333	13476
923.442	13411
923.55	13312
923.659	13259
923.767	13434
923.876	13343
923.984	13327
924.092	13232
924.201	13236
924.309	13202
924.417	13183
924.525	13152
924.633	13072
924.741	13894
924.849	12981
924.956	13122
925.064	12932
925.172	12825
925.279	12894
925.387	12920
925.494	12981
925.602	13004
925.709	12890
925.816	12745
925.924	12935
926.031	13000
926.138	12802
926.245	12886
926.352	12711
926.459	12875
926.566	12837
926.673	12764
926.779	12673
926.886	12658
926.993	12471
927.099	12407
927.206	12391
927.312	12410
927.419	12528
927.525	12395
927.631	12483
927.737	12376
927.843	12285
927.95	12205
928.056	12304
928.162	12308
928.267	12277
928.373	12894
928.479	12350
928.585	12175
928.69	12235
928.796	12277
928.901	12068
929.007	12041
929.112	12129
929.218	12110
929.323	12083
929.428	11988
929.533	12091
929.638	11931
929.743	11954
929.848	12011
929.953	11969
930.058	11832
930.163	11646
930.267	11680
930.372	11908
930.477	11714
930.581	11889
930.685	11699
930.79	11623
930.894	11695
930.998	11589
931.103	11611
931.207	11452
931.311	11254
931.415	11216
931.519	11006
931.623	10927
