Data from test_V78500241_3199.txt Node
Date: Fri Mar 25 15:32:08 CST 2022
User: usil
Spectrometer: V785-0024
Trigger mode: 0
Integration Time (sec): 4.000000E-1
Scans to average: 1
Nonlinearity correction enabled: false
Boxcar width: 0
Storing dark spectrum: false
XAxis mode: Wavelengths
Number of Pixels in Spectrum: 1024
>>>>>Begin Spectral Data<<<<<
801.071	26971
801.214	26857
801.356	26739
801.499	26830
801.641	26587
801.783	26564
801.926	26609
802.068	26545
802.211	26446
802.353	26495
802.496	26271
802.638	26259
802.78	26214
802.923	26012
803.065	25970
803.208	25909
803.35	26107
803.492	26298
803.635	26278
803.777	26191
803.919	26355
804.061	26571
804.204	26549
804.346	26301
804.488	26054
804.63	26122
804.773	26214
804.915	26149
805.057	26434
805.199	26290
805.341	26233
805.483	26400
805.626	26358
805.768	26210
805.91	26499
806.052	26434
806.194	26305
806.336	26431
806.478	26336
806.62	26301
806.762	26537
806.904	26629
807.046	26883
807.188	26933
807.33	26914
807.472	26990
807.614	26720
807.756	26929
807.898	26530
808.04	26453
808.182	26663
808.324	26518
808.465	26659
808.607	26743
808.749	27051
808.891	27203
809.033	27020
809.174	27055
809.316	26956
809.458	27009
809.6	26918
809.741	27039
809.883	27142
810.025	27207
810.166	27169
810.308	27138
810.45	27192
810.591	27195
810.733	26887
810.875	27047
811.016	26853
811.158	26925
811.299	27055
811.441	27077
811.582	27013
811.724	26929
811.865	26883
812.007	27028
812.148	26773
812.29	27108
812.431	27131
812.573	27222
812.714	27325
812.855	27336
812.997	27564
813.138	27686
813.279	27538
813.421	27504
813.562	27431
813.703	27199
813.845	27131
813.986	26918
814.127	26746
814.268	26583
814.41	26758
814.551	26514
814.692	26708
814.833	26499
814.974	26606
815.115	26564
815.256	26518
815.397	26594
815.539	26545
815.68	26358
815.821	26298
815.962	26434
816.103	26423
816.244	26301
816.385	26126
816.526	26206
816.666	25917
816.807	25811
816.948	25993
817.089	25932
817.23	25803
817.371	25864
817.512	25788
817.653	25837
817.793	25780
817.934	25864
818.075	25963
818.216	25868
818.356	25784
818.497	25772
818.638	25426
818.778	25575
818.919	25514
819.06	25605
819.2	25761
819.341	25860
819.481	25917
819.622	25989
819.762	26218
819.903	25978
820.043	26054
820.184	25902
820.324	25925
820.465	26119
820.605	26031
820.746	25887
820.886	25795
821.026	25947
821.167	26024
821.307	25928
821.447	25795
821.588	25868
821.728	25479
821.868	25407
822.008	25327
822.149	25396
822.289	25293
822.429	25099
822.569	24920
822.709	25072
822.849	24817
822.99	24905
823.13	24726
823.27	24776
823.41	24612
823.55	24570
823.69	24730
823.83	24703
823.97	24646
824.11	24380
824.25	24296
824.389	24342
824.529	24540
824.669	24426
824.809	24479
824.949	24582
825.089	24433
825.228	24547
825.368	24273
825.508	24334
825.648	24281
825.787	24346
825.927	24399
826.067	24216
826.206	24369
826.346	24361
826.485	24338
826.625	24433
826.765	24490
826.904	24483
827.044	24148
827.183	23973
827.323	24045
827.462	24083
827.601	24060
827.741	24018
827.88	24030
828.02	23920
828.159	23908
828.298	24098
828.437	24076
828.577	24007
828.716	24140
828.855	23999
828.994	23718
829.134	23707
829.273	23767
829.412	23722
829.551	23691
829.69	23687
829.829	23771
829.968	23783
830.107	23752
830.246	23771
830.385	23802
830.524	23627
830.663	23520
830.802	23570
830.941	23220
831.08	23326
831.219	23425
831.357	23444
831.496	23684
831.635	23250
831.774	23311
831.913	23258
832.051	23166
832.19	23052
832.329	23227
832.467	23048
832.606	22938
832.744	23029
832.883	22908
833.022	22957
833.16	23079
833.299	23052
833.437	23128
833.576	22984
833.714	22976
833.852	23277
833.991	23197
834.129	23147
834.267	23200
834.406	23048
834.544	23102
834.682	23159
834.821	22991
834.959	23242
835.097	23174
835.235	23159
835.373	23159
835.511	23105
835.65	22877
835.788	22927
835.926	22816
836.064	22839
836.202	22869
836.34	22980
836.478	23025
836.615	23064
836.753	22934
836.891	23113
837.029	23037
837.167	22820
837.305	22949
837.443	22900
837.58	22900
837.718	22847
837.856	22763
837.993	22717
838.131	22793
838.269	22615
838.406	22634
838.544	22656
838.681	22462
838.819	22413
838.956	22318
839.094	22280
839.231	22325
839.369	22474
839.506	22672
839.643	22557
839.781	22276
839.918	22211
840.055	22303
840.193	22219
840.33	22196
840.467	22333
840.604	22284
840.742	22398
840.879	22192
841.016	22223
841.153	21987
841.29	22265
841.427	22219
841.564	22131
841.701	22166
841.838	22173
841.975	22006
842.112	22101
842.249	22109
842.385	22086
842.522	22185
842.659	22124
842.796	22010
842.933	21930
843.069	21846
843.206	21953
843.343	21998
843.479	21869
843.616	22017
843.752	21804
843.889	21819
844.025	21895
844.162	21724
844.298	21873
844.435	21747
844.571	21629
844.708	21800
844.844	22013
844.98	21739
845.117	21785
845.253	21641
845.389	21629
845.525	21595
845.661	21663
845.798	21492
845.934	21523
846.07	21500
846.206	21496
846.342	21686
846.478	21504
846.614	21355
846.75	21272
846.886	21226
847.022	21298
847.158	21192
847.294	21283
847.429	21325
847.565	21252
847.701	21545
847.837	20944
847.972	20975
848.108	21013
848.244	21028
848.379	20857
848.515	20826
848.65	20762
848.786	20800
848.921	20815
849.057	20876
849.192	20883
849.328	20811
849.463	20788
849.598	20796
849.734	20663
849.869	20613
850.004	20663
850.14	20655
850.275	20712
850.41	20579
850.545	20583
850.68	20568
850.815	20560
850.95	20617
851.085	20830
851.22	20762
851.355	20678
851.49	20625
851.625	20609
851.76	20579
851.895	20530
852.03	20522
852.165	20537
852.299	20568
852.434	20678
852.569	20511
852.703	20613
852.838	20621
852.973	20693
853.107	20568
853.242	20473
853.376	20503
853.511	20355
853.645	20381
853.78	20469
853.914	20385
854.048	20366
854.183	20492
854.317	20419
854.451	20617
854.585	20514
854.72	20415
854.854	20556
854.988	20362
855.122	20434
855.256	20309
855.39	20396
855.524	20488
855.658	20495
855.792	20454
855.926	20377
856.06	20473
856.194	20419
856.327	20381
856.461	20267
856.595	20366
856.729	20389
856.862	20564
856.996	20412
857.13	20579
857.263	20522
857.397	20541
857.53	20412
857.664	20423
857.797	20575
857.931	20503
858.064	20484
858.197	20571
858.331	20454
858.464	20351
858.597	20339
858.731	20450
858.864	20454
858.997	20419
859.13	20396
859.263	20469
859.396	20545
859.529	20419
859.662	20328
859.795	20423
859.928	20461
860.061	20568
860.194	20575
860.327	20594
860.46	20438
860.592	20541
860.725	20678
860.858	20549
860.99	20480
861.123	20408
861.256	20381
861.388	20324
861.521	21074
861.653	20259
861.786	20084
861.918	20275
862.05	20187
862.183	20400
862.315	20393
862.447	20400
862.58	20320
862.712	20187
862.844	20183
862.976	20294
863.108	20229
863.24	20484
863.372	20054
863.504	20096
863.636	20046
863.768	20218
863.9	20100
864.032	20161
864.164	20077
864.296	20206
864.428	20168
864.559	20187
864.691	20278
864.823	20122
864.954	20153
865.086	20058
865.217	20046
865.349	20027
865.48	20126
865.612	19974
865.743	20229
865.875	20012
866.006	20157
866.137	19989
866.269	20043
866.4	20046
866.531	20050
866.662	19837
866.793	19928
866.924	19947
867.055	19974
867.186	20119
867.317	19925
867.448	19845
867.579	19982
867.71	19955
867.841	19947
867.972	19955
868.103	19955
868.233	20012
868.364	20020
868.495	20107
868.625	20157
868.756	20324
868.886	20115
869.017	20142
869.147	20221
869.278	20278
869.408	20229
869.539	20180
869.669	20366
869.799	20271
869.929	20263
870.06	20336
870.19	20473
870.32	20484
870.45	20552
870.58	20621
870.71	20750
870.84	20701
870.97	20556
871.1	20556
871.23	20781
871.36	20895
871.489	20773
871.619	20765
871.749	20807
871.879	20895
872.008	20952
872.138	20849
872.267	20758
872.397	20648
872.526	20708
872.656	20834
872.785	20682
872.915	20941
873.044	20967
873.173	20887
873.303	20834
873.432	20921
873.561	21009
873.69	20918
873.819	20773
873.948	20880
874.077	20880
874.206	20689
874.335	20853
874.464	21024
874.593	21089
874.722	21100
874.851	21165
874.979	21024
875.108	21089
875.237	20982
875.365	21043
875.494	21032
875.623	21226
875.751	21085
875.88	21150
876.008	21233
876.136	21214
876.265	21462
876.393	21637
876.521	21458
876.65	21587
876.778	21477
876.906	21545
877.034	21412
877.162	21557
877.29	21469
877.418	21500
877.546	21466
877.674	21412
877.802	21329
877.93	21447
878.058	21542
878.185	21348
878.313	21466
878.441	21355
878.568	21268
878.696	21458
878.824	21557
878.951	21564
879.079	21663
879.206	21800
879.333	21667
879.461	21424
879.588	21633
879.715	21633
879.842	21599
879.97	21534
880.097	21291
880.224	21291
880.351	21272
880.478	21298
880.605	21180
880.732	21317
880.859	21515
880.986	21329
881.112	21218
881.239	21249
881.366	20937
881.493	21104
881.619	20880
881.746	20933
881.872	20815
881.999	20891
882.125	20743
882.252	20842
882.378	20849
882.505	20971
882.631	20735
882.757	20533
882.883	20750
883.01	20609
883.136	20514
883.262	20431
883.388	20457
883.514	20648
883.64	20640
883.766	20495
883.892	20370
884.018	20370
884.143	20499
884.269	20651
884.395	20286
884.52	20183
884.646	20263
884.772	20069
884.897	20176
885.023	20263
885.148	20320
885.274	20282
885.399	20309
885.524	20210
885.65	20259
885.775	20233
885.9	20187
886.025	20263
886.15	20244
886.275	20256
886.4	20134
886.525	20161
886.65	20145
886.775	20161
886.9	20393
887.025	20469
887.149	20176
887.274	20020
887.399	20069
887.523	20050
887.648	19978
887.773	19890
887.897	20073
888.021	19959
888.146	20012
888.27	20001
888.395	20107
888.519	20039
888.643	20005
888.767	19997
888.891	19887
889.015	19845
889.139	19894
889.263	19731
889.387	19959
889.511	20065
889.635	20096
889.759	19753
889.883	19746
890.006	19795
890.13	19936
890.254	19765
890.377	19772
890.501	19662
890.624	19506
890.748	19552
890.871	19510
890.995	19472
891.118	19464
891.241	19392
891.364	19388
891.488	19392
891.611	19419
891.734	19491
891.857	19502
891.98	19358
892.103	19441
892.226	19415
892.349	19381
892.471	19282
892.594	19289
892.717	19240
892.839	19289
892.962	19270
893.085	19343
893.207	19396
893.33	19266
893.452	19244
893.575	19320
893.697	19228
893.819	19403
893.941	19521
894.064	19419
894.186	19293
894.308	19126
894.43	19377
894.552	19472
894.674	19343
894.796	19175
894.918	19346
895.04	19225
895.161	19362
895.283	19396
895.405	19278
895.526	19316
895.648	19316
895.769	19422
895.891	19407
896.012	19434
896.134	19392
896.255	19343
896.376	19297
896.498	19354
896.619	19411
896.74	19339
896.861	19282
896.982	19620
897.103	19704
897.224	19601
897.345	19571
897.466	19354
897.587	19499
897.708	19552
897.828	19563
897.949	19533
898.07	19407
898.19	19491
898.311	19548
898.431	19514
898.552	19594
898.672	19655
898.792	19731
898.913	19651
899.033	19533
899.153	19354
899.273	19312
899.393	19434
899.513	19331
899.633	19308
899.753	19316
899.873	19445
899.993	19308
900.113	19293
900.232	19373
900.352	19251
900.472	19221
900.591	19065
900.711	19012
900.83	19019
900.95	19061
901.069	19175
901.189	19050
901.308	18894
901.427	18661
901.546	18642
901.665	18623
901.784	18722
901.904	18483
902.023	18483
902.141	18369
902.26	18350
902.379	18300
902.498	18251
902.617	18220
902.735	18194
902.854	18216
902.973	18133
903.091	17973
903.21	17885
903.328	17832
903.446	17817
903.565	17764
903.683	17684
903.801	17558
903.919	17726
904.038	17680
904.156	17535
904.274	17585
904.392	17543
904.51	17471
904.627	17562
904.745	17623
904.863	17577
904.981	17379
905.098	17197
905.216	17147
905.334	17265
905.451	17178
905.569	17124
905.686	17212
905.803	17239
905.921	16862
906.038	17071
906.155	16961
906.272	16797
906.389	16843
906.506	16797
906.623	16694
906.74	16729
906.857	16535
906.974	16668
907.091	16763
907.208	16797
907.324	16824
907.441	16733
907.557	16481
907.674	16451
907.79	16318
907.907	16478
908.023	16436
908.139	16531
908.256	16295
908.372	16257
908.488	16299
908.604	16272
908.72	16090
908.836	16265
908.952	16150
909.068	16185
909.184	16287
909.3	16078
909.415	16253
909.531	16177
909.647	15838
909.762	15991
909.878	15903
909.993	15987
910.108	15926
910.224	15850
910.339	15808
910.454	15705
910.57	15644
910.685	15686
910.8	15846
910.915	15827
911.03	15660
911.145	15519
911.259	15439
911.374	15428
911.489	15397
911.604	15207
911.718	15184
911.833	15256
911.947	15173
912.062	15116
912.176	15302
912.291	15237
912.405	15127
912.519	15408
912.633	15412
912.748	15264
912.862	15192
912.976	15074
913.09	15001
913.204	15036
913.318	15001
913.431	15077
913.545	15176
913.659	15180
913.772	15013
913.886	14887
914	14891
914.113	14960
914.226	15062
914.34	14906
914.453	14697
914.566	14921
914.68	14921
914.793	14678
914.906	14499
915.019	14575
915.132	14469
915.245	14530
915.358	14587
915.47	14526
915.583	14495
915.696	14617
915.809	14617
915.921	14579
916.034	14541
916.146	14434
916.259	14412
916.371	14465
916.483	14541
916.595	14278
916.708	14351
916.82	14286
916.932	14431
917.044	14298
917.156	14298
917.268	14202
917.38	14187
917.491	14244
917.603	14176
917.715	14187
917.826	14355
917.938	14256
918.049	14077
918.161	14115
918.272	14259
918.384	14305
918.495	14202
918.606	14031
918.717	13868
918.828	13986
918.939	14005
919.05	14005
919.161	13913
919.272	13826
919.383	13818
919.494	14035
919.604	14126
919.715	13959
919.826	13826
919.936	13894
920.047	13986
920.157	13909
920.267	14126
920.378	13887
920.488	13928
920.598	14062
920.708	14275
920.818	14168
920.928	14111
921.038	14206
921.148	14183
921.258	13860
921.368	13757
921.477	13700
921.587	13746
921.697	13590
921.806	13719
921.916	13533
922.025	13426
922.134	13308
922.244	13331
922.353	13411
922.462	13221
922.571	13202
922.68	13069
922.789	13053
922.898	12985
923.007	12970
923.116	12981
923.224	12947
923.333	13012
923.442	12886
923.55	12886
923.659	12817
923.767	12928
923.876	12757
923.984	12871
924.092	12760
924.201	12821
924.309	12722
924.417	12802
924.525	12741
924.633	12658
924.741	13738
924.849	12509
924.956	12627
925.064	12525
925.172	12330
925.279	12426
925.387	12521
925.494	12540
925.602	12551
925.709	12403
925.816	12300
925.924	12395
926.031	12517
926.138	12376
926.245	12464
926.352	12277
926.459	12429
926.566	12513
926.673	12330
926.779	12167
926.886	12220
926.993	12114
927.099	12060
927.206	12030
927.312	11946
927.419	12079
927.525	12022
927.631	12060
927.737	11874
927.843	11920
927.95	11764
928.056	11912
928.162	11897
928.267	11961
928.373	12464
928.479	11927
928.585	11691
928.69	11802
928.796	11859
928.901	11688
929.007	11520
929.112	11764
929.218	11676
929.323	11623
929.428	11604
929.533	11790
929.638	11497
929.743	11604
929.848	11478
929.953	11600
930.058	11505
930.163	11216
930.267	11296
930.372	11425
930.477	11318
930.581	11509
930.685	11398
930.79	11204
930.894	11242
930.998	11193
931.103	11269
931.207	10980
931.311	10904
931.415	10725
931.519	10618
931.623	10508
