Data from test_V78500241_2576.txt Node
Date: Fri Mar 25 15:27:47 CST 2022
User: usil
Spectrometer: V785-0024
Trigger mode: 0
Integration Time (sec): 4.000000E-1
Scans to average: 1
Nonlinearity correction enabled: false
Boxcar width: 0
Storing dark spectrum: false
XAxis mode: Wavelengths
Number of Pixels in Spectrum: 1024
>>>>>Begin Spectral Data<<<<<
801.071	27310
801.214	27211
801.356	26975
801.499	26975
801.641	26811
801.783	26857
801.926	26887
802.068	26883
802.211	26826
802.353	26705
802.496	26343
802.638	26552
802.78	26503
802.923	26343
803.065	26389
803.208	26381
803.35	26358
803.492	26621
803.635	26720
803.777	26552
803.919	26724
804.061	26975
804.204	26735
804.346	26552
804.488	26556
804.63	26659
804.773	26461
804.915	26686
805.057	26788
805.199	26549
805.341	26708
805.483	26773
805.626	26712
805.768	26739
805.91	26727
806.052	26716
806.194	26743
806.336	26910
806.478	26933
806.62	26701
806.762	27009
806.904	27062
807.046	27214
807.188	27135
807.33	27298
807.472	27226
807.614	27116
807.756	27096
807.898	27085
808.04	26899
808.182	26994
808.324	27055
808.465	27146
808.607	27112
808.749	27401
808.891	27359
809.033	27515
809.174	27431
809.316	27294
809.458	27249
809.6	27306
809.741	27492
809.883	27431
810.025	27625
810.166	27515
810.308	27690
810.45	27568
810.591	27511
810.733	27401
810.875	27306
811.016	27192
811.158	27287
811.299	27348
811.441	27610
811.582	27496
811.724	27511
811.865	27211
812.007	27306
812.148	27176
812.29	27477
812.431	27412
812.573	27660
812.714	27663
812.855	27827
812.997	27827
813.138	27873
813.279	28002
813.421	27869
813.562	27743
813.703	27564
813.845	27587
813.986	27241
814.127	27226
814.268	26948
814.41	26971
814.551	27013
814.692	27005
814.833	26887
814.974	26914
815.115	27058
815.256	26853
815.397	26883
815.539	26834
815.68	26735
815.821	26724
815.962	26754
816.103	26842
816.244	26571
816.385	26670
816.526	26514
816.666	26278
816.807	26221
816.948	26343
817.089	26339
817.23	26191
817.371	26206
817.512	26149
817.653	26111
817.793	26298
817.934	26206
818.075	26199
818.216	26210
818.356	26305
818.497	26130
818.638	25875
818.778	26103
818.919	25974
819.06	26012
819.2	26134
819.341	26248
819.481	26301
819.622	26587
819.762	26511
819.903	26469
820.043	26568
820.184	26347
820.324	26267
820.465	26358
820.605	26431
820.746	26404
820.886	26210
821.026	26187
821.167	26377
821.307	26343
821.447	26271
821.588	26142
821.728	25947
821.868	25917
822.008	25849
822.149	25811
822.289	25799
822.429	25540
822.569	25502
822.709	25426
822.849	25278
822.99	25343
823.13	25225
823.27	25244
823.41	25000
823.55	25057
823.69	25175
823.83	24977
823.97	25019
824.11	24909
824.25	24878
824.389	24943
824.529	25057
824.669	24848
824.809	24985
824.949	25008
825.089	25072
825.228	24825
825.368	24730
825.508	24677
825.648	24726
825.787	24833
825.927	24798
826.067	24623
826.206	24760
826.346	24909
826.485	24882
826.625	24909
826.765	24837
826.904	24776
827.044	24589
827.183	24593
827.323	24471
827.462	24760
827.601	24525
827.741	24403
827.88	24498
828.02	24410
828.159	24479
828.298	24536
828.437	24498
828.577	24448
828.716	24563
828.855	24319
828.994	24224
829.134	24205
829.273	24384
829.412	24136
829.551	24190
829.69	24087
829.829	24273
829.968	24403
830.107	24239
830.246	24213
830.385	24159
830.524	24030
830.663	24011
830.802	23874
830.941	23824
831.08	23783
831.219	23908
831.357	23916
831.496	24030
831.635	23805
831.774	23733
831.913	23904
832.051	23672
832.19	23649
832.329	23577
832.467	23414
832.606	23490
832.744	23509
832.883	23474
833.022	23539
833.16	23421
833.299	23623
833.437	23585
833.576	23562
833.714	23646
833.852	23676
833.991	23592
834.129	23703
834.267	23619
834.406	23585
834.544	23577
834.682	23570
834.821	23646
834.959	23657
835.097	23455
835.235	23623
835.373	23668
835.511	23551
835.65	23478
835.788	23478
835.926	23322
836.064	23261
836.202	23284
836.34	23486
836.478	23543
836.615	23334
836.753	23395
836.891	23402
837.029	23505
837.167	23353
837.305	23345
837.443	23417
837.58	23349
837.718	23277
837.856	23379
837.993	23261
838.131	23299
838.269	23094
838.406	23258
838.544	22999
838.681	23048
838.819	22923
838.956	22839
839.094	22759
839.231	22877
839.369	22881
839.506	23246
839.643	22896
839.781	22717
839.918	22717
840.055	22782
840.193	22641
840.33	22626
840.467	22679
840.604	22774
840.742	23079
840.879	22531
841.016	22687
841.153	22592
841.29	22740
841.427	22729
841.564	22759
841.701	22793
841.838	22565
841.975	22599
842.112	22577
842.249	22573
842.385	22459
842.522	22759
842.659	22577
842.796	22398
842.933	22459
843.069	22402
843.206	22325
843.343	22569
843.479	22561
843.616	22413
843.752	22295
843.889	22242
844.025	22356
844.162	22090
844.298	22333
844.435	22226
844.571	22044
844.708	22200
844.844	22409
844.98	22398
845.117	22265
845.253	22101
845.389	21953
845.525	22150
845.661	22086
845.798	22063
845.934	22128
846.07	21838
846.206	21975
846.342	22070
846.478	21983
846.614	21751
846.75	21694
846.886	21614
847.022	21755
847.158	21789
847.294	21751
847.429	21724
847.565	21705
847.701	21949
847.837	21424
847.972	21416
848.108	21481
848.244	21595
848.379	21435
848.515	21283
848.65	21283
848.786	21313
848.921	21195
849.057	21389
849.192	21226
849.328	21291
849.463	21370
849.598	21195
849.734	21283
849.869	21154
850.004	20956
850.14	21112
850.275	21005
850.41	20944
850.545	21028
850.68	21047
850.815	21005
850.95	21058
851.085	21230
851.22	21165
851.355	21039
851.49	21009
851.625	20994
851.76	21036
851.895	21112
852.03	20971
852.165	21043
852.299	21077
852.434	21184
852.569	21089
852.703	20998
852.838	21127
852.973	21195
853.107	21192
853.242	21089
853.376	20891
853.511	20781
853.645	20781
853.78	21013
853.914	20952
854.048	20895
854.183	20845
854.317	20872
854.451	21066
854.585	20769
854.72	20804
854.854	20994
854.988	20849
855.122	20910
855.256	20815
855.39	20785
855.524	21070
855.658	20982
855.792	20891
855.926	20902
856.06	20758
856.194	20986
856.327	20876
856.461	20750
856.595	20807
856.729	20838
856.862	20937
856.996	20967
857.13	20994
857.263	21070
857.397	20921
857.53	20830
857.664	20975
857.797	20975
857.931	21013
858.064	20902
858.197	21074
858.331	20758
858.464	20796
858.597	20765
858.731	20880
858.864	20861
858.997	20792
859.13	20861
859.263	20929
859.396	20921
859.529	20785
859.662	20826
859.795	20838
859.928	20857
860.061	21039
860.194	21051
860.327	21020
860.46	20998
860.592	20941
860.725	20921
860.858	21024
860.99	20845
861.123	20838
861.256	20982
861.388	20849
861.521	21595
861.653	20739
861.786	20743
861.918	20609
862.05	20800
862.183	20948
862.315	20842
862.447	20830
862.58	20830
862.712	20602
862.844	20651
862.976	20629
863.108	20697
863.24	21089
863.372	20587
863.504	20511
863.636	20632
863.768	20720
863.9	20587
864.032	20484
864.164	20469
864.296	20621
864.428	20686
864.559	20663
864.691	20754
864.823	20632
864.954	20537
865.086	20594
865.217	20571
865.349	20442
865.48	20507
865.612	20571
865.743	20651
865.875	20446
866.006	20400
866.137	20507
866.269	20393
866.4	20412
866.531	20488
866.662	20461
866.793	20423
866.924	20434
867.055	20492
867.186	20503
867.317	20431
867.448	20343
867.579	20514
867.71	20286
867.841	20339
867.972	20412
868.103	20381
868.233	20556
868.364	20495
868.495	20579
868.625	20636
868.756	20731
868.886	20545
869.017	20602
869.147	20781
869.278	20746
869.408	20708
869.539	20651
869.669	20891
869.799	20754
869.929	20899
870.06	20735
870.19	20990
870.32	21005
870.45	20956
870.58	21100
870.71	21180
870.84	21252
870.97	21123
871.1	21157
871.23	21302
871.36	21332
871.489	21226
871.619	21233
871.749	21245
871.879	21291
872.008	21428
872.138	21283
872.267	21260
872.397	21199
872.526	21135
872.656	21100
872.785	21161
872.915	21233
873.044	21382
873.173	21291
873.303	21321
873.432	21515
873.561	21424
873.69	21283
873.819	21237
873.948	21351
874.077	21268
874.206	21306
874.335	21195
874.464	21351
874.593	21507
874.722	21469
874.851	21458
874.979	21523
875.108	21580
875.237	21450
875.365	21355
875.494	21507
875.623	21599
875.751	21507
875.88	21488
876.008	21728
876.136	21682
876.265	21922
876.393	21991
876.521	22044
876.65	22032
876.778	21911
876.906	21880
877.034	21854
877.162	21842
877.29	21739
877.418	21926
877.546	21975
877.674	21842
877.802	21842
877.93	21835
878.058	21842
878.185	21823
878.313	21861
878.441	21778
878.568	21774
878.696	21766
878.824	21956
878.951	22021
879.079	21926
879.206	22181
879.333	22048
879.461	21918
879.588	21937
879.715	22101
879.842	22211
879.97	21831
880.097	21835
880.224	21686
880.351	21701
880.478	21808
880.605	21633
880.732	21686
880.859	21850
880.986	21739
881.112	21743
881.239	21610
881.366	21526
881.493	21412
881.619	21294
881.746	21389
881.872	21283
881.999	21287
882.125	21218
882.252	21275
882.378	21127
882.505	21370
882.631	21157
882.757	21070
882.883	21074
883.01	21001
883.136	20979
883.262	20815
883.388	20815
883.514	20990
883.64	21096
883.766	20861
883.892	20697
884.018	20815
884.143	20899
884.269	20941
884.395	20724
884.52	20632
884.646	20560
884.772	20629
884.897	20556
885.023	20659
885.148	20682
885.274	20701
885.399	20762
885.524	20678
885.65	20636
885.775	20689
885.9	20514
886.025	20788
886.15	20735
886.275	20533
886.4	20503
886.525	20644
886.65	20511
886.775	20670
886.9	20697
887.025	20921
887.149	20659
887.274	20419
887.399	20419
887.523	20309
887.648	20339
887.773	20259
887.897	20427
888.021	20480
888.146	20317
888.27	20522
888.395	20537
888.519	20393
888.643	20298
888.767	20450
888.891	20294
889.015	20161
889.139	20286
889.263	20172
889.387	20202
889.511	20412
889.635	20309
889.759	20263
889.883	20130
890.006	20145
890.13	20286
890.254	20172
890.377	20081
890.501	20031
890.624	19936
890.748	20115
890.871	19883
890.995	19788
891.118	19704
891.241	19791
891.364	19731
891.488	19913
891.611	19753
891.734	19837
891.857	19917
891.98	19712
892.103	19951
892.226	19833
892.349	19776
892.471	19586
892.594	19746
892.717	19662
892.839	19647
892.962	19753
893.085	19795
893.207	19719
893.33	19677
893.452	19719
893.575	19795
893.697	19700
893.819	19784
893.941	20027
894.064	19864
894.186	19635
894.308	19655
894.43	19769
894.552	19780
894.674	19784
894.796	19514
894.918	19765
895.04	19712
895.161	19803
895.283	19719
895.405	19635
895.526	19655
895.648	19635
895.769	19651
895.891	19685
896.012	19708
896.134	19693
896.255	19662
896.376	19639
896.498	19674
896.619	19776
896.74	19597
896.861	19757
896.982	19997
897.103	20187
897.224	20050
897.345	19936
897.466	19909
897.587	19951
897.708	20084
897.828	19959
897.949	19807
898.07	19689
898.19	19887
898.311	20031
898.431	19772
898.552	19875
898.672	20046
898.792	20005
898.913	19887
899.033	19814
899.153	19799
899.273	19559
899.393	19658
899.513	19677
899.633	19677
899.753	19738
899.873	19742
899.993	19704
900.113	19677
900.232	19639
900.352	19514
900.472	19499
900.591	19365
900.711	19506
900.83	19407
900.95	19597
901.069	19419
901.189	19255
901.308	19110
901.427	19027
901.546	19004
901.665	19107
901.784	19019
901.904	18947
902.023	18875
902.141	18658
902.26	18719
902.379	18574
902.498	18646
902.617	18635
902.735	18673
902.854	18464
902.973	18422
903.091	18300
903.21	18292
903.328	18121
903.446	18110
903.565	18026
903.683	18049
903.801	17946
903.919	18038
904.038	17946
904.156	17920
904.274	17939
904.392	17855
904.51	17809
904.627	17912
904.745	17851
904.863	17885
904.981	17703
905.098	17448
905.216	17577
905.334	17433
905.451	17440
905.569	17398
905.686	17436
905.803	17452
905.921	17311
906.038	17395
906.155	17299
906.272	17181
906.389	17136
906.506	17094
906.623	17159
906.74	17006
906.857	16858
906.974	16862
907.091	17052
907.208	17166
907.324	17109
907.441	16911
907.557	16850
907.674	16801
907.79	16782
907.907	16733
908.023	16717
908.139	16771
908.256	16744
908.372	16577
908.488	16763
908.604	16565
908.72	16402
908.836	16485
908.952	16443
909.068	16489
909.184	16535
909.3	16440
909.415	16500
909.531	16409
909.647	16257
909.762	16196
909.878	16200
909.993	16120
910.108	16207
910.224	16154
910.339	16185
910.454	16040
910.57	15998
910.685	15808
910.8	16310
910.915	16173
911.03	16025
911.145	15861
911.259	15774
911.374	15857
911.489	15816
911.604	15789
911.718	15603
911.833	15584
911.947	15511
912.062	15473
912.176	15648
912.291	15679
912.405	15591
912.519	15770
912.633	15732
912.748	15591
912.862	15584
912.976	15500
913.09	15264
913.204	15332
913.318	15287
913.431	15336
913.545	15420
913.659	15412
913.772	15272
913.886	15287
914	15203
914.113	15317
914.226	15329
914.34	15199
914.453	14960
914.566	15192
914.68	15085
914.793	15024
914.906	14788
915.019	14853
915.132	14750
915.245	14834
915.358	14758
915.47	14758
915.583	14746
915.696	14914
915.809	14845
915.921	14979
916.034	14788
916.146	14667
916.259	14743
916.371	14788
916.483	14697
916.595	14526
916.708	14640
916.82	14640
916.932	14537
917.044	14556
917.156	14412
917.268	14362
917.38	14514
917.491	14454
917.603	14499
917.715	14480
917.826	14530
917.938	14381
918.049	14305
918.161	14393
918.272	14503
918.384	14446
918.495	14370
918.606	14221
918.717	14191
918.828	14202
918.939	14282
919.05	14157
919.161	14225
919.272	14077
919.383	14084
919.494	14275
919.604	14476
919.715	14183
919.826	14191
919.936	14107
920.047	14256
920.157	14130
920.267	14298
920.378	14168
920.488	14164
920.598	14343
920.708	14419
920.818	14332
920.928	14324
921.038	14454
921.148	14442
921.258	14210
921.368	14084
921.477	13883
921.587	13871
921.697	13822
921.806	13955
921.916	13837
922.025	13552
922.134	13575
922.244	13544
922.353	13514
922.462	13460
922.571	13407
922.68	13320
922.789	13164
922.898	13194
923.007	13152
923.116	13240
923.224	13225
923.333	13228
923.442	13061
923.55	13023
923.659	13088
923.767	13145
923.876	12981
923.984	13034
924.092	13034
924.201	12928
924.309	12981
924.417	12993
924.525	12886
924.633	12939
924.741	13849
924.849	12673
924.956	12837
925.064	12741
925.172	12612
925.279	12646
925.387	12688
925.494	12589
925.602	12783
925.709	12658
925.816	12654
925.924	12585
926.031	12703
926.138	12547
926.245	12658
926.352	12471
926.459	12665
926.566	12642
926.673	12471
926.779	12448
926.886	12376
926.993	12327
927.099	12213
927.206	12087
927.312	12163
927.419	12243
927.525	12163
927.631	12273
927.737	12155
927.843	12106
927.95	11977
928.056	12045
928.162	12068
928.267	12152
928.373	12517
928.479	12155
928.585	11977
928.69	12015
928.796	12072
928.901	11980
929.007	11783
929.112	11954
929.218	11931
929.323	11878
929.428	11802
929.533	11927
929.638	11718
929.743	11775
929.848	11779
929.953	11756
930.058	11672
930.163	11463
930.267	11512
930.372	11649
930.477	11448
930.581	11665
930.685	11436
930.79	11353
930.894	11322
930.998	11334
931.103	11547
931.207	11216
931.311	11025
931.415	11056
931.519	10771
931.623	10687
