Data from test_V78500241_3270.txt Node
Date: Fri Mar 25 15:32:37 CST 2022
User: usil
Spectrometer: V785-0024
Trigger mode: 0
Integration Time (sec): 4.000000E-1
Scans to average: 1
Nonlinearity correction enabled: false
Boxcar width: 0
Storing dark spectrum: false
XAxis mode: Wavelengths
Number of Pixels in Spectrum: 1024
>>>>>Begin Spectral Data<<<<<
801.071	27146
801.214	27173
801.356	27058
801.499	26990
801.641	26872
801.783	26830
801.926	26876
802.068	26727
802.211	26670
802.353	26765
802.496	26602
802.638	26503
802.78	26298
802.923	26275
803.065	26286
803.208	26339
803.35	26461
803.492	26560
803.635	26537
803.777	26473
803.919	26636
804.061	26880
804.204	26720
804.346	26446
804.488	26503
804.63	26461
804.773	26492
804.915	26594
805.057	26670
805.199	26609
805.341	26598
805.483	26800
805.626	26590
805.768	26636
805.91	26632
806.052	26670
806.194	26678
806.336	26902
806.478	26750
806.62	26670
806.762	26773
806.904	27104
807.046	27211
807.188	27074
807.33	27039
807.472	27146
807.614	26979
807.756	27058
807.898	26899
808.04	26887
808.182	26857
808.324	26853
808.465	26971
808.607	27017
808.749	27431
808.891	27481
809.033	27469
809.174	27511
809.316	27169
809.458	27256
809.6	27180
809.741	27363
809.883	27306
810.025	27469
810.166	27583
810.308	27660
810.45	27534
810.591	27496
810.733	27336
810.875	27374
811.016	27100
811.158	27233
811.299	27443
811.441	27370
811.582	27538
811.724	27291
811.865	27237
812.007	27245
812.148	27310
812.29	27275
812.431	27599
812.573	27675
812.714	27698
812.855	27797
812.997	27831
813.138	28036
813.279	27873
813.421	27823
813.562	27793
813.703	27492
813.845	27469
813.986	27287
814.127	26963
814.268	27024
814.41	26998
814.551	26986
814.692	27074
814.833	26925
814.974	26811
815.115	26979
815.256	26891
815.397	26708
815.539	26686
815.68	26663
815.821	26716
815.962	26891
816.103	26629
816.244	26640
816.385	26457
816.526	26415
816.666	26278
816.807	26206
816.948	26229
817.089	26252
817.23	26176
817.371	26149
817.512	26172
817.653	26225
817.793	26244
817.934	26229
818.075	26233
818.216	26206
818.356	26122
818.497	25932
818.638	25963
818.778	25944
818.919	25940
819.06	26027
819.2	26191
819.341	26172
819.481	26092
819.622	26351
819.762	26518
819.903	26309
820.043	26294
820.184	26259
820.324	26229
820.465	26465
820.605	26229
820.746	26225
820.886	26187
821.026	26237
821.167	26206
821.307	26271
821.447	26191
821.588	26084
821.728	26069
821.868	25776
822.008	25670
822.149	25761
822.289	25559
822.429	25487
822.569	25304
822.709	25354
822.849	25255
822.99	25217
823.13	25232
823.27	25225
823.41	24981
823.55	24886
823.69	25065
823.83	25122
823.97	24913
824.11	24787
824.25	24760
824.389	24738
824.529	24897
824.669	24833
824.809	24920
824.949	24947
825.089	24806
825.228	24760
825.368	24620
825.508	24730
825.648	24642
825.787	24821
825.927	24821
826.067	24703
826.206	24814
826.346	24791
826.485	24661
826.625	24601
826.765	24757
826.904	24661
827.044	24528
827.183	24509
827.323	24407
827.462	24380
827.601	24372
827.741	24334
827.88	24380
828.02	24281
828.159	24372
828.298	24456
828.437	24471
828.577	24342
828.716	24551
828.855	24361
828.994	24121
829.134	24045
829.273	24068
829.412	24106
829.551	23954
829.69	24068
829.829	24114
829.968	24155
830.107	24197
830.246	24197
830.385	24186
830.524	23980
830.663	23954
830.802	23790
830.941	23668
831.08	23703
831.219	23863
831.357	23710
831.496	23828
831.635	23855
831.774	23547
831.913	23630
832.051	23604
832.19	23436
832.329	23490
832.467	23318
832.606	23307
832.744	23360
832.883	23398
833.022	23379
833.16	23455
833.299	23501
833.437	23391
833.576	23463
833.714	23433
833.852	23615
833.991	23634
834.129	23482
834.267	23520
834.406	23486
834.544	23535
834.682	23463
834.821	23512
834.959	23554
835.097	23440
835.235	23531
835.373	23318
835.511	23509
835.65	23322
835.788	23356
835.926	23128
836.064	23044
836.202	23147
836.34	23322
836.478	23391
836.615	23277
836.753	23334
836.891	23410
837.029	23277
837.167	23284
837.305	23170
837.443	23299
837.58	23216
837.718	23277
837.856	23216
837.993	23079
838.131	23197
838.269	23098
838.406	23044
838.544	23098
838.681	22740
838.819	22812
838.956	22721
839.094	22679
839.231	22748
839.369	22744
839.506	22987
839.643	22938
839.781	22660
839.918	22691
840.055	22641
840.193	22546
840.33	22622
840.467	22615
840.604	22649
840.742	22889
840.879	22500
841.016	22546
841.153	22493
841.29	22599
841.427	22592
841.564	22698
841.701	22622
841.838	22512
841.975	22519
842.112	22546
842.249	22424
842.385	22242
842.522	22584
842.659	22535
842.796	22291
842.933	22322
843.069	22333
843.206	22382
843.343	22325
843.479	22310
843.616	22516
843.752	22105
843.889	22158
844.025	22303
844.162	22051
844.298	22230
844.435	22177
844.571	22112
844.708	22261
844.844	22303
844.98	22242
845.117	22166
845.253	22070
845.389	22063
845.525	22044
845.661	21880
845.798	21911
845.934	21903
846.07	21892
846.206	21903
846.342	22032
846.478	21812
846.614	21595
846.75	21515
846.886	21583
847.022	21778
847.158	21610
847.294	21732
847.429	21747
847.565	21667
847.701	21888
847.837	21363
847.972	21264
848.108	21332
848.244	21431
848.379	21230
848.515	21161
848.65	21252
848.786	21188
848.921	21173
849.057	21332
849.192	21123
849.328	21222
849.463	21233
849.598	21192
849.734	21062
849.869	21051
850.004	20914
850.14	21032
850.275	21062
850.41	21001
850.545	20937
850.68	21005
850.815	21066
850.95	20960
851.085	21104
851.22	21123
851.355	20994
851.49	20921
851.625	20967
851.76	20887
851.895	20979
852.03	20861
852.165	21062
852.299	20990
852.434	20979
852.569	20967
852.703	21081
852.838	21009
852.973	21169
853.107	21089
853.242	20960
853.376	20857
853.511	20712
853.645	20777
853.78	20842
853.914	20777
854.048	20804
854.183	20754
854.317	20785
854.451	20925
854.585	20876
854.72	20720
854.854	20944
854.988	20735
855.122	20796
855.256	20651
855.39	20773
855.524	20902
855.658	20792
855.792	20788
855.926	20849
856.06	20785
856.194	20899
856.327	20735
856.461	20727
856.595	20773
856.729	20811
856.862	20941
856.996	20899
857.13	20819
857.263	20902
857.397	20807
857.53	20773
857.664	20819
857.797	20876
857.931	20941
858.064	20815
858.197	20899
858.331	20823
858.464	20838
858.597	20663
858.731	20826
858.864	20785
858.997	20815
859.13	20746
859.263	20762
859.396	20838
859.529	20796
859.662	20670
859.795	20708
859.928	20792
860.061	20994
860.194	21017
860.327	20804
860.46	20781
860.592	20887
860.725	20876
860.858	20944
860.99	20918
861.123	20727
861.256	20743
861.388	20697
861.521	21374
861.653	20613
861.786	20598
861.918	20708
862.05	20648
862.183	20678
862.315	20644
862.447	20819
862.58	20746
862.712	20450
862.844	20370
862.976	20640
863.108	20564
863.24	20921
863.372	20492
863.504	20587
863.636	20522
863.768	20575
863.9	20442
864.032	20537
864.164	20533
864.296	20514
864.428	20545
864.559	20606
864.691	20648
864.823	20488
864.954	20602
865.086	20495
865.217	20450
865.349	20256
865.48	20381
865.612	20347
865.743	20450
865.875	20370
866.006	20412
866.137	20488
866.269	20446
866.4	20351
866.531	20377
866.662	20324
866.793	20362
866.924	20370
867.055	20347
867.186	20438
867.317	20381
867.448	20339
867.579	20286
867.71	20161
867.841	20248
867.972	20408
868.103	20271
868.233	20393
868.364	20336
868.495	20419
868.625	20636
868.756	20613
868.886	20412
869.017	20526
869.147	20526
869.278	20648
869.408	20613
869.539	20530
869.669	20629
869.799	20716
869.929	20670
870.06	20560
870.19	20948
870.32	20944
870.45	20941
870.58	20929
870.71	21096
870.84	21100
870.97	21055
871.1	20998
871.23	21173
871.36	21275
871.489	21142
871.619	21211
871.749	21192
871.879	21135
872.008	21428
872.138	21211
872.267	21272
872.397	21135
872.526	21062
872.656	21047
872.785	21085
872.915	21272
873.044	21218
873.173	21222
873.303	21256
873.432	21211
873.561	21188
873.69	21199
873.819	21203
873.948	21348
874.077	21332
874.206	21146
874.335	21173
874.464	21329
874.593	21359
874.722	21511
874.851	21492
874.979	21492
875.108	21488
875.237	21405
875.365	21340
875.494	21477
875.623	21424
875.751	21367
875.88	21359
876.008	21663
876.136	21679
876.265	21930
876.393	22032
876.521	21861
876.65	21899
876.778	21861
876.906	21899
877.034	21884
877.162	21842
877.29	21705
877.418	21835
877.546	21751
877.674	21861
877.802	21835
877.93	21846
878.058	21694
878.185	21610
878.313	21808
878.441	21743
878.568	21675
878.696	21660
878.824	21907
878.951	21960
879.079	21983
879.206	22154
879.333	21888
879.461	21827
879.588	21827
879.715	21915
879.842	22139
879.97	21850
880.097	21561
880.224	21614
880.351	21660
880.478	21656
880.605	21641
880.732	21663
880.859	21937
880.986	21614
881.112	21717
881.239	21545
881.366	21389
881.493	21291
881.619	21199
881.746	21245
881.872	21264
881.999	21203
882.125	21165
882.252	21180
882.378	21104
882.505	21408
882.631	21043
882.757	20960
882.883	21005
883.01	20899
883.136	20933
883.262	20792
883.388	20838
883.514	20937
883.64	20982
883.766	20937
883.892	20686
884.018	20686
884.143	20834
884.269	20975
884.395	20556
884.52	20602
884.646	20571
884.772	20423
884.897	20564
885.023	20686
885.148	20705
885.274	20716
885.399	20682
885.524	20530
885.65	20682
885.775	20537
885.9	20587
886.025	20731
886.15	20617
886.275	20533
886.4	20431
886.525	20571
886.65	20606
886.775	20488
886.9	20606
887.025	20777
887.149	20518
887.274	20282
887.399	20336
887.523	20347
887.648	20278
887.773	20218
887.897	20358
888.021	20317
888.146	20301
888.27	20415
888.395	20434
888.519	20301
888.643	20511
888.767	20396
888.891	20256
889.015	20214
889.139	20126
889.263	20199
889.387	20256
889.511	20320
889.635	20313
889.759	20168
889.883	20206
890.006	20050
890.13	20229
890.254	20050
890.377	19989
890.501	19993
890.624	19909
890.748	20012
890.871	19830
890.995	19658
891.118	19750
891.241	19708
891.364	19639
891.488	19769
891.611	19727
891.734	19791
891.857	19734
891.98	19734
892.103	19799
892.226	19647
892.349	19594
892.471	19567
892.594	19666
892.717	19666
892.839	19685
892.962	19738
893.085	19647
893.207	19666
893.33	19518
893.452	19685
893.575	19689
893.697	19628
893.819	19849
893.941	19693
894.064	19818
894.186	19651
894.308	19537
894.43	19734
894.552	19894
894.674	19750
894.796	19609
894.918	19655
895.04	19571
895.161	19609
895.283	19594
895.405	19655
895.526	19586
895.648	19628
895.769	19635
895.891	19750
896.012	19708
896.134	19666
896.255	19605
896.376	19670
896.498	19712
896.619	19613
896.74	19609
896.861	19639
896.982	19989
897.103	20035
897.224	19928
897.345	19875
897.466	19879
897.587	19894
897.708	20012
897.828	19928
897.949	19959
898.07	19738
898.19	19746
898.311	19940
898.431	19803
898.552	19955
898.672	20039
898.792	20043
898.913	19978
899.033	19852
899.153	19681
899.273	19662
899.393	19658
899.513	19712
899.633	19552
899.753	19651
899.873	19457
899.993	19647
900.113	19514
900.232	19597
900.352	19521
900.472	19476
900.591	19468
900.711	19483
900.83	19339
900.95	19594
901.069	19422
901.189	19293
901.308	19053
901.427	18966
901.546	19019
901.665	18989
901.784	18993
901.904	18954
902.023	18715
902.141	18513
902.26	18452
902.379	18620
902.498	18566
902.617	18506
902.735	18525
902.854	18433
902.973	18445
903.091	18190
903.21	18053
903.328	18251
903.446	18144
903.565	17980
903.683	18057
903.801	17996
903.919	17973
904.038	17923
904.156	17798
904.274	17866
904.392	17764
904.51	17775
904.627	17794
904.745	17824
904.863	17870
904.981	17634
905.098	17410
905.216	17410
905.334	17471
905.451	17478
905.569	17337
905.686	17444
905.803	17448
905.921	17223
906.038	17368
906.155	17204
906.272	17181
906.389	17140
906.506	16984
906.623	16999
906.74	17045
906.857	16752
906.974	16881
907.091	17010
907.208	17094
907.324	17003
907.441	16889
907.557	16850
907.674	16759
907.79	16725
907.907	16691
908.023	16649
908.139	16687
908.256	16653
908.372	16630
908.488	16637
908.604	16516
908.72	16356
908.836	16440
908.952	16325
909.068	16470
909.184	16580
909.3	16493
909.415	16470
909.531	16493
909.647	16295
909.762	16219
909.878	16025
909.993	16150
910.108	16112
910.224	16135
910.339	16074
910.454	16013
910.57	15987
910.685	15949
910.8	16143
910.915	16124
911.03	15865
911.145	15739
911.259	15789
911.374	15789
911.489	15667
911.604	15618
911.718	15515
911.833	15515
911.947	15405
912.062	15374
912.176	15515
912.291	15576
912.405	15504
912.519	15698
912.633	15629
912.748	15549
912.862	15481
912.976	15332
913.09	15218
913.204	15222
913.318	15302
913.431	15332
913.545	15393
913.659	15370
913.772	15264
913.886	15237
914	15089
914.113	15188
914.226	15226
914.34	15214
914.453	14990
914.566	15119
914.68	14986
914.793	15039
914.906	14857
915.019	14769
915.132	14648
915.245	14743
915.358	14651
915.47	14674
915.583	14735
915.696	14781
915.809	14796
915.921	14899
916.034	14686
916.146	14613
916.259	14689
916.371	14697
916.483	14708
916.595	14545
916.708	14556
916.82	14571
916.932	14450
917.044	14469
917.156	14488
917.268	14412
917.38	14545
917.491	14374
917.603	14434
917.715	14530
917.826	14415
917.938	14488
918.049	14221
918.161	14400
918.272	14621
918.384	14495
918.495	14351
918.606	14195
918.717	14054
918.828	14199
918.939	14214
919.05	14119
919.161	14233
919.272	13955
919.383	14065
919.494	14145
919.604	14305
919.715	14237
919.826	14103
919.936	14100
920.047	14168
920.157	14107
920.267	14317
920.378	14237
920.488	14058
920.598	14290
920.708	14446
920.818	14259
920.928	14240
921.038	14431
921.148	14396
921.258	14111
921.368	13955
921.477	14054
921.587	13909
921.697	13776
921.806	13860
921.916	13734
922.025	13662
922.134	13620
922.244	13480
922.353	13567
922.462	13384
922.571	13407
922.68	13282
922.789	13202
922.898	13171
923.007	13175
923.116	13247
923.224	13282
923.333	13190
923.442	13129
923.55	13061
923.659	13099
923.767	13107
923.876	12993
923.984	13110
924.092	12939
924.201	12886
924.309	12939
924.417	12905
924.525	12798
924.633	12894
924.741	13799
924.849	12703
924.956	12844
925.064	12646
925.172	12582
925.279	12677
925.387	12662
925.494	12521
925.602	12783
925.709	12700
925.816	12418
925.924	12578
926.031	12684
926.138	12528
926.245	12601
926.352	12486
926.459	12589
926.566	12669
926.673	12551
926.779	12414
926.886	12418
926.993	12171
927.099	12205
927.206	12106
927.312	12159
927.419	12239
927.525	12194
927.631	12144
927.737	12102
927.843	11958
927.95	11992
928.056	12049
928.162	12136
928.267	12235
928.373	12585
928.479	12079
928.585	11908
928.69	11920
928.796	12068
928.901	11828
929.007	11661
929.112	11866
929.218	11760
929.323	11779
929.428	11707
929.533	11920
929.638	11611
929.743	11767
929.848	11745
929.953	11741
930.058	11608
930.163	11436
930.267	11459
930.372	11592
930.477	11459
930.581	11547
930.685	11528
930.79	11387
930.894	11353
930.998	11277
931.103	11391
931.207	11132
931.311	11064
931.415	10961
931.519	10744
931.623	10721
