Data from test_V78500241_2528.txt Node
Date: Fri Mar 25 15:27:27 CST 2022
User: usil
Spectrometer: V785-0024
Trigger mode: 0
Integration Time (sec): 4.000000E-1
Scans to average: 1
Nonlinearity correction enabled: false
Boxcar width: 0
Storing dark spectrum: false
XAxis mode: Wavelengths
Number of Pixels in Spectrum: 1024
>>>>>Begin Spectral Data<<<<<
801.071	27146
801.214	27108
801.356	26952
801.499	26819
801.641	26731
801.783	26594
801.926	26842
802.068	26655
802.211	26621
802.353	26583
802.496	26400
802.638	26298
802.78	26119
802.923	26202
803.065	26138
803.208	26298
803.35	26210
803.492	26305
803.635	26511
803.777	26366
803.919	26404
804.061	26826
804.204	26575
804.346	26271
804.488	26423
804.63	26503
804.773	26423
804.915	26511
805.057	26465
805.199	26511
805.341	26560
805.483	26571
805.626	26606
805.768	26427
805.91	26450
806.052	26522
806.194	26442
806.336	26655
806.478	26632
806.62	26579
806.762	26697
806.904	26762
807.046	27096
807.188	26948
807.33	26956
807.472	27070
807.614	26963
807.756	26861
807.898	26826
808.04	26853
808.182	26769
808.324	26807
808.465	26796
808.607	27036
808.749	27161
808.891	27298
809.033	27237
809.174	27241
809.316	27013
809.458	27028
809.6	27100
809.741	27298
809.883	27302
810.025	27302
810.166	27382
810.308	27477
810.45	27416
810.591	27454
810.733	27176
810.875	27093
811.016	26910
811.158	27005
811.299	27249
811.441	27370
811.582	27332
811.724	27169
811.865	27131
812.007	27055
812.148	27036
812.29	27256
812.431	27283
812.573	27370
812.714	27450
812.855	27629
812.997	27770
813.138	27823
813.279	27717
813.421	27751
813.562	27485
813.703	27595
813.845	27389
813.986	27104
814.127	27005
814.268	26792
814.41	26739
814.551	26697
814.692	26963
814.833	26773
814.974	26678
815.115	26796
815.256	26739
815.397	26705
815.539	26712
815.68	26438
815.821	26552
815.962	26602
816.103	26541
816.244	26396
816.385	26351
816.526	26244
816.666	26077
816.807	26012
816.948	26115
817.089	26172
817.23	26016
817.371	26065
817.512	26115
817.653	26062
817.793	25959
817.934	26088
818.075	26088
818.216	26058
818.356	25925
818.497	26065
818.638	25696
818.778	25708
818.919	25814
819.06	25818
819.2	25963
819.341	26111
819.481	26069
819.622	26092
819.762	26473
819.903	26469
820.043	26221
820.184	26100
820.324	26187
820.465	26122
820.605	26206
820.746	26050
820.886	26050
821.026	26027
821.167	25989
821.307	26081
821.447	26130
821.588	25982
821.728	25803
821.868	25765
822.008	25651
822.149	25696
822.289	25460
822.429	25403
822.569	25190
822.709	25285
822.849	25019
822.99	25061
823.13	24954
823.27	24977
823.41	24905
823.55	24768
823.69	24787
823.83	24795
823.97	24798
824.11	24566
824.25	24623
824.389	24753
824.529	24700
824.669	24646
824.809	24631
824.949	24795
825.089	24677
825.228	24825
825.368	24517
825.508	24475
825.648	24551
825.787	24513
825.927	24673
826.067	24509
826.206	24601
826.346	24528
826.485	24696
826.625	24536
826.765	24570
826.904	24601
827.044	24251
827.183	24266
827.323	24190
827.462	24311
827.601	24213
827.741	24235
827.88	24330
828.02	24148
828.159	24266
828.298	24266
828.437	24213
828.577	24277
828.716	24201
828.855	24152
828.994	23980
829.134	24022
829.273	23999
829.412	23958
829.551	23836
829.69	23885
829.829	24011
829.968	24148
830.107	24064
830.246	24026
830.385	24057
830.524	23802
830.663	23760
830.802	23722
830.941	23600
831.08	23520
831.219	23729
831.357	23668
831.496	23794
831.635	23516
831.774	23535
831.913	23471
832.051	23440
832.19	23471
832.329	23296
832.467	23311
832.606	23242
832.744	23258
832.883	23189
833.022	23220
833.16	23307
833.299	23368
833.437	23227
833.576	23307
833.714	23364
833.852	23433
833.991	23315
834.129	23398
834.267	23372
834.406	23349
834.544	23185
834.682	23410
834.821	23288
834.959	23493
835.097	23334
835.235	23501
835.373	23307
835.511	23353
835.65	23212
835.788	23242
835.926	23185
836.064	22968
836.202	22965
836.34	23269
836.478	23360
836.615	23189
836.753	23227
836.891	23269
837.029	23193
837.167	23052
837.305	23090
837.443	22976
837.58	22957
837.718	23094
837.856	23102
837.993	22987
838.131	23060
838.269	22763
838.406	23098
838.544	22809
838.681	22725
838.819	22573
838.956	22432
839.094	22500
839.231	22603
839.369	22596
839.506	22930
839.643	22866
839.781	22474
839.918	22451
840.055	22432
840.193	22432
840.33	22497
840.467	22485
840.604	22554
840.742	22691
840.879	22333
841.016	22287
841.153	22375
841.29	22508
841.427	22348
841.564	22409
841.701	22303
841.838	22344
841.975	22417
842.112	22394
842.249	22310
842.385	22360
842.522	22470
842.659	22390
842.796	22185
842.933	22219
843.069	22230
843.206	22196
843.343	22211
843.479	22124
843.616	22234
843.752	22055
843.889	21994
844.025	22032
844.162	21991
844.298	22093
844.435	21964
844.571	22002
844.708	22063
844.844	22128
844.98	22112
845.117	22029
845.253	21983
845.389	21899
845.525	21998
845.661	21785
845.798	21682
845.934	21884
846.07	21603
846.206	21842
846.342	21827
846.478	21770
846.614	21477
846.75	21408
846.886	21374
847.022	21515
847.158	21447
847.294	21526
847.429	21564
847.565	21287
847.701	21675
847.837	21165
847.972	21070
848.108	21272
848.244	21249
848.379	21100
848.515	21062
848.65	20925
848.786	20956
848.921	21013
849.057	21150
849.192	21108
849.328	21199
849.463	21096
849.598	21039
849.734	20967
849.869	20910
850.004	20845
850.14	20762
850.275	20906
850.41	20697
850.545	20826
850.68	20750
850.815	20830
850.95	20769
851.085	20990
851.22	21013
851.355	20796
851.49	20785
851.625	20804
851.76	20701
851.895	20887
852.03	20746
852.165	20887
852.299	20895
852.434	20944
852.569	20868
852.703	20804
852.838	20815
852.973	20880
853.107	20845
853.242	20701
853.376	20754
853.511	20556
853.645	20579
853.78	20720
853.914	20724
854.048	20579
854.183	20606
854.317	20594
854.451	20819
854.585	20781
854.72	20621
854.854	20651
854.988	20594
855.122	20575
855.256	20552
855.39	20667
855.524	20678
855.658	20606
855.792	20712
855.926	20682
856.06	20712
856.194	20701
856.327	20644
856.461	20465
856.595	20522
856.729	20587
856.862	20769
856.996	20663
857.13	20644
857.263	20754
857.397	20659
857.53	20609
857.664	20629
857.797	20735
857.931	20655
858.064	20594
858.197	20807
858.331	20686
858.464	20552
858.597	20473
858.731	20587
858.864	20556
858.997	20583
859.13	20640
859.263	20545
859.396	20765
859.529	20735
859.662	20629
859.795	20705
859.928	20731
860.061	20826
860.194	20849
860.327	20781
860.46	20629
860.592	20743
860.725	20670
860.858	20712
860.99	20583
861.123	20602
861.256	20762
861.388	20705
861.521	21382
861.653	20507
861.786	20450
861.918	20492
862.05	20507
862.183	20571
862.315	20659
862.447	20518
862.58	20629
862.712	20339
862.844	20339
862.976	20560
863.108	20431
863.24	20838
863.372	20320
863.504	20370
863.636	20457
863.768	20522
863.9	20324
864.032	20343
864.164	20225
864.296	20309
864.428	20408
864.559	20351
864.691	20457
864.823	20423
864.954	20347
865.086	20377
865.217	20332
865.349	20244
865.48	20225
865.612	20309
865.743	20507
865.875	20355
866.006	20267
866.137	20298
866.269	20336
866.4	20244
866.531	20145
866.662	20259
866.793	20290
866.924	20229
867.055	20183
867.186	20332
867.317	20225
867.448	20122
867.579	20248
867.71	20122
867.841	20153
867.972	20320
868.103	20259
868.233	20187
868.364	20195
868.495	20301
868.625	20419
868.756	20579
868.886	20396
869.017	20431
869.147	20533
869.278	20590
869.408	20461
869.539	20366
869.669	20492
869.799	20457
869.929	20583
870.06	20556
870.19	20743
870.32	20705
870.45	20819
870.58	20800
870.71	20986
870.84	20910
870.97	20792
871.1	20838
871.23	20979
871.36	21058
871.489	20906
871.619	20872
871.749	21066
871.879	21203
872.008	21241
872.138	21108
872.267	21176
872.397	20849
872.526	20853
872.656	20857
872.785	20845
872.915	21157
873.044	20975
873.173	20941
873.303	21138
873.432	21108
873.561	21176
873.69	21138
873.819	21066
873.948	21104
874.077	21077
874.206	21081
874.335	21123
874.464	21028
874.593	21272
874.722	21252
874.851	21302
874.979	21416
875.108	21367
875.237	21279
875.365	21180
875.494	21146
875.623	21367
875.751	21252
875.88	21283
876.008	21473
876.136	21545
876.265	21701
876.393	21876
876.521	21739
876.65	21759
876.778	21648
876.906	21728
877.034	21690
877.162	21549
877.29	21477
877.418	21667
877.546	21580
877.674	21732
877.802	21656
877.93	21686
878.058	21694
878.185	21545
878.313	21576
878.441	21633
878.568	21545
878.696	21557
878.824	21614
878.951	21682
879.079	21926
879.206	21911
879.333	21812
879.461	21694
879.588	21789
879.715	21819
879.842	21953
879.97	21873
880.097	21545
880.224	21519
880.351	21580
880.478	21557
880.605	21454
880.732	21576
880.859	21838
880.986	21507
881.112	21515
881.239	21428
881.366	21302
881.493	21226
881.619	21047
881.746	21108
881.872	21081
881.999	21036
882.125	21013
882.252	21112
882.378	21055
882.505	21230
882.631	20956
882.757	20777
882.883	20792
883.01	20739
883.136	20758
883.262	20594
883.388	20541
883.514	20785
883.64	20906
883.766	20663
883.892	20541
884.018	20651
884.143	20674
884.269	20758
884.395	20522
884.52	20450
884.646	20419
884.772	20336
884.897	20370
885.023	20488
885.148	20499
885.274	20522
885.399	20518
885.524	20400
885.65	20488
885.775	20629
885.9	20412
886.025	20526
886.15	20484
886.275	20404
886.4	20199
886.525	20385
886.65	20461
886.775	20275
886.9	20545
887.025	20564
887.149	20454
887.274	20183
887.399	20161
887.523	20259
887.648	20107
887.773	20039
887.897	20271
888.021	20267
888.146	20149
888.27	20301
888.395	20339
888.519	20218
888.643	20225
888.767	20187
888.891	20050
889.015	20084
889.139	20050
889.263	19906
889.387	20088
889.511	20278
889.635	20130
889.759	19947
889.883	20092
890.006	19951
890.13	20130
890.254	19875
890.377	19997
890.501	19719
890.624	19849
890.748	19753
890.871	19620
890.995	19529
891.118	19575
891.241	19594
891.364	19647
891.488	19620
891.611	19616
891.734	19594
891.857	19681
891.98	19624
892.103	19620
892.226	19582
892.349	19499
892.471	19384
892.594	19601
892.717	19613
892.839	19567
892.962	19514
893.085	19609
893.207	19537
893.33	19419
893.452	19384
893.575	19571
893.697	19468
893.819	19647
893.941	19670
894.064	19845
894.186	19468
894.308	19426
894.43	19620
894.552	19696
894.674	19586
894.796	19499
894.918	19426
895.04	19544
895.161	19613
895.283	19582
895.405	19506
895.526	19400
895.648	19483
895.769	19556
895.891	19495
896.012	19506
896.134	19567
896.255	19552
896.376	19552
896.498	19525
896.619	19491
896.74	19430
896.861	19616
896.982	19852
897.103	19909
897.224	19784
897.345	19791
897.466	19635
897.587	19799
897.708	19868
897.828	19708
897.949	19685
898.07	19472
898.19	19643
898.311	19738
898.431	19803
898.552	19685
898.672	19826
898.792	19837
898.913	19727
899.033	19765
899.153	19578
899.273	19369
899.393	19464
899.513	19563
899.633	19480
899.753	19483
899.873	19533
899.993	19647
900.113	19518
900.232	19422
900.352	19544
900.472	19438
900.591	19289
900.711	19377
900.83	19274
900.95	19381
901.069	19419
901.189	19145
901.308	18897
901.427	18878
901.546	18852
901.665	18947
901.784	18928
901.904	18745
902.023	18559
902.141	18536
902.26	18327
902.379	18448
902.498	18467
902.617	18441
902.735	18414
902.854	18399
902.973	18247
903.091	18159
903.21	18038
903.328	17965
903.446	17923
903.565	17855
903.683	17897
903.801	17771
903.919	17931
904.038	17847
904.156	17703
904.274	17756
904.392	17604
904.51	17653
904.627	17562
904.745	17722
904.863	17729
904.981	17474
905.098	17216
905.216	17337
905.334	17467
905.451	17372
905.569	17197
905.686	17463
905.803	17372
905.921	17140
906.038	17269
906.155	17197
906.272	17140
906.389	17067
906.506	16908
906.623	16812
906.74	16953
906.857	16733
906.974	16862
907.091	16961
907.208	17086
907.324	16923
907.441	16771
907.557	16675
907.674	16649
907.79	16421
907.907	16580
908.023	16569
908.139	16573
908.256	16641
908.372	16474
908.488	16432
908.604	16363
908.72	16337
908.836	16291
908.952	16253
909.068	16356
909.184	16443
909.3	16246
909.415	16265
909.531	16272
909.647	16048
909.762	16101
909.878	15956
909.993	16059
910.108	16032
910.224	15945
910.339	16067
910.454	15911
910.57	15812
910.685	15816
910.8	16078
910.915	15991
911.03	15770
911.145	15660
911.259	15660
911.374	15667
911.489	15564
911.604	15557
911.718	15424
911.833	15500
911.947	15325
912.062	15370
912.176	15515
912.291	15507
912.405	15424
912.519	15545
912.633	15576
912.748	15416
912.862	15382
912.976	15226
913.09	15085
913.204	15230
913.318	15154
913.431	15252
913.545	15363
913.659	15211
913.772	15188
913.886	15032
914	15085
914.113	15173
914.226	15119
914.34	15066
914.453	14925
914.566	15001
914.68	14933
914.793	14910
914.906	14735
915.019	14575
915.132	14484
915.245	14670
915.358	14594
915.47	14625
915.583	14731
915.696	14648
915.809	14769
915.921	14739
916.034	14587
916.146	14438
916.259	14511
916.371	14644
916.483	14571
916.595	14518
916.708	14461
916.82	14632
916.932	14499
917.044	14446
917.156	14351
917.268	14267
917.38	14412
917.491	14313
917.603	14317
917.715	14385
917.826	14412
917.938	14355
918.049	14187
918.161	14221
918.272	14320
918.384	14396
918.495	14317
918.606	14126
918.717	14050
918.828	14153
918.939	14126
919.05	14046
919.161	14020
919.272	13818
919.383	13894
919.494	14157
919.604	14248
919.715	14065
919.826	13989
919.936	14005
920.047	14054
920.157	14073
920.267	14221
920.378	14054
920.488	14031
920.598	14199
920.708	14294
920.818	14142
920.928	14206
921.038	14339
921.148	14278
921.258	14031
921.368	13887
921.477	13902
921.587	13784
921.697	13601
921.806	13776
921.916	13643
922.025	13491
922.134	13434
922.244	13369
922.353	13487
922.462	13350
922.571	13266
922.68	13156
922.789	13110
922.898	13107
923.007	13069
923.116	13031
923.224	13114
923.333	13042
923.442	13031
923.55	12981
923.659	12939
923.767	13004
923.876	12867
923.984	13053
924.092	12817
924.201	12878
924.309	12810
924.417	12806
924.525	12817
924.633	12760
924.741	13677
924.849	12601
924.956	12711
925.064	12585
925.172	12471
925.279	12509
925.387	12578
925.494	12563
925.602	12566
925.709	12540
925.816	12475
925.924	12498
926.031	12612
926.138	12544
926.245	12525
926.352	12353
926.459	12532
926.566	12490
926.673	12376
926.779	12247
926.886	12308
926.993	12114
927.099	12098
927.206	12041
927.312	12102
927.419	12129
927.525	12121
927.631	12114
927.737	12022
927.843	11946
927.95	11920
928.056	12045
928.162	12015
928.267	11999
928.373	12574
928.479	12068
928.585	11847
928.69	11954
928.796	11965
928.901	11840
929.007	11676
929.112	11805
929.218	11691
929.323	11638
929.428	11608
929.533	11794
929.638	11619
929.743	11646
929.848	11699
929.953	11642
930.058	11505
930.163	11326
930.267	11425
930.372	11493
930.477	11223
930.581	11615
930.685	11482
930.79	11254
930.894	11334
930.998	11208
931.103	11421
931.207	11018
931.311	10908
931.415	10858
931.519	10637
931.623	10656
