Data from test_V78500241_414.txt Node
Date: Fri Mar 25 15:12:44 CST 2022
User: usil
Spectrometer: V785-0024
Trigger mode: 0
Integration Time (sec): 4.000000E-1
Scans to average: 1
Nonlinearity correction enabled: false
Boxcar width: 0
Storing dark spectrum: false
XAxis mode: Wavelengths
Number of Pixels in Spectrum: 1024
>>>>>Begin Spectral Data<<<<<
801.071	27226
801.214	27047
801.356	27112
801.499	26769
801.641	26686
801.783	26689
801.926	26849
802.068	26609
802.211	26625
802.353	26587
802.496	26453
802.638	26419
802.78	26446
802.923	26396
803.065	26244
803.208	26381
803.35	26267
803.492	26488
803.635	26480
803.777	26609
803.919	26492
804.061	26765
804.204	26621
804.346	26526
804.488	26446
804.63	26518
804.773	26355
804.915	26530
805.057	26667
805.199	26442
805.341	26617
805.483	26720
805.626	26636
805.768	26564
805.91	26507
806.052	26663
806.194	26625
806.336	26895
806.478	26560
806.62	26621
806.762	26629
806.904	26929
807.046	27077
807.188	27104
807.33	27039
807.472	27173
807.614	26986
807.756	26918
807.898	26853
808.04	26765
808.182	26781
808.324	27013
808.465	26883
808.607	27062
808.749	27142
808.891	27150
809.033	27336
809.174	27306
809.316	27264
809.458	27157
809.6	27233
809.741	27222
809.883	27256
810.025	27507
810.166	27469
810.308	27344
810.45	27545
810.591	27500
810.733	27294
810.875	27207
811.016	27131
811.158	27146
811.299	27351
811.441	27344
811.582	27313
811.724	27135
811.865	27135
812.007	27184
812.148	27218
812.29	27268
812.431	27188
812.573	27473
812.714	27641
812.855	27778
812.997	27827
813.138	28059
813.279	27934
813.421	27644
813.562	27717
813.703	27641
813.845	27469
813.986	27150
814.127	26921
814.268	26971
814.41	26902
814.551	26769
814.692	26906
814.833	26880
814.974	26838
815.115	26990
815.256	26659
815.397	26720
815.539	26689
815.68	26735
815.821	26526
815.962	26689
816.103	26712
816.244	26412
816.385	26476
816.526	26461
816.666	26168
816.807	26134
816.948	26214
817.089	26282
817.23	26088
817.371	26218
817.512	26164
817.653	26077
817.793	26084
817.934	26180
818.075	26134
818.216	26153
818.356	26225
818.497	26062
818.638	25746
818.778	26027
818.919	25989
819.06	25833
819.2	26126
819.341	26134
819.481	26073
819.622	26313
819.762	26431
819.903	26206
820.043	26336
820.184	26282
820.324	26267
820.465	26355
820.605	26199
820.746	26115
820.886	26286
821.026	26214
821.167	26282
821.307	26351
821.447	26027
821.588	26035
821.728	26016
821.868	25761
822.008	25647
822.149	25601
822.289	25556
822.429	25358
822.569	25400
822.709	25422
822.849	25152
822.99	25050
823.13	25110
823.27	24882
823.41	25038
823.55	24909
823.69	24939
823.83	24943
823.97	24859
824.11	24654
824.25	24677
824.389	24631
824.529	24768
824.669	24776
824.809	24783
824.949	24776
825.089	24779
825.228	24745
825.368	24612
825.508	24627
825.648	24738
825.787	24616
825.927	24639
826.067	24585
826.206	24593
826.346	24642
826.485	24601
826.625	24601
826.765	24787
826.904	24612
827.044	24414
827.183	24513
827.323	24388
827.462	24403
827.601	24407
827.741	24323
827.88	24315
828.02	24258
828.159	24224
828.298	24433
828.437	24323
828.577	24350
828.716	24441
828.855	24232
828.994	23954
829.134	24144
829.273	23977
829.412	23946
829.551	24007
829.69	23996
829.829	24095
829.968	23942
830.107	24068
830.246	24148
830.385	23984
830.524	23889
830.663	23977
830.802	23718
830.941	23554
831.08	23699
831.219	23813
831.357	23748
831.496	23954
831.635	23691
831.774	23551
831.913	23543
832.051	23444
832.19	23452
832.329	23547
832.467	23379
832.606	23360
832.744	23277
832.883	23406
833.022	23261
833.16	23379
833.299	23391
833.437	23334
833.576	23383
833.714	23334
833.852	23429
833.991	23417
834.129	23539
834.267	23524
834.406	23459
834.544	23459
834.682	23448
834.821	23410
834.959	23653
835.097	23368
835.235	23531
835.373	23402
835.511	23341
835.65	23174
835.788	23220
835.926	23189
836.064	23071
836.202	23006
836.34	23254
836.478	23277
836.615	23231
836.753	23246
836.891	23288
837.029	23261
837.167	23147
837.305	23174
837.443	23200
837.58	23143
837.718	23277
837.856	23048
837.993	23086
838.131	23098
838.269	23105
838.406	23010
838.544	23006
838.681	22812
838.819	22755
838.956	22679
839.094	22523
839.231	22634
839.369	22793
839.506	22919
839.643	22831
839.781	22607
839.918	22554
840.055	22531
840.193	22573
840.33	22485
840.467	22504
840.604	22546
840.742	22816
840.879	22344
841.016	22382
841.153	22531
841.29	22557
841.427	22565
841.564	22668
841.701	22516
841.838	22588
841.975	22394
842.112	22363
842.249	22500
842.385	22276
842.522	22402
842.659	22322
842.796	22253
842.933	22306
843.069	22185
843.206	22341
843.343	22379
843.479	22360
843.616	22303
843.752	22185
843.889	22059
844.025	22272
844.162	21922
844.298	22200
844.435	21975
844.571	21994
844.708	22150
844.844	22120
844.98	22074
845.117	22211
845.253	22032
845.389	21922
845.525	21930
845.661	21934
845.798	21743
845.934	21918
846.07	21823
846.206	21812
846.342	21911
846.478	21755
846.614	21633
846.75	21488
846.886	21595
847.022	21587
847.158	21435
847.294	21622
847.429	21583
847.565	21553
847.701	21778
847.837	21283
847.972	21146
848.108	21454
848.244	21298
848.379	21203
848.515	21165
848.65	21085
848.786	21146
848.921	21214
849.057	21119
849.192	21233
849.328	21184
849.463	21112
849.598	21058
849.734	21062
849.869	21036
850.004	20925
850.14	20963
850.275	20975
850.41	20819
850.545	20777
850.68	20781
850.815	20963
850.95	20899
851.085	21047
851.22	20998
851.355	20902
851.49	20830
851.625	20834
851.76	20895
851.895	20842
852.03	20788
852.165	20918
852.299	20887
852.434	20800
852.569	21017
852.703	20933
852.838	20944
852.973	21036
853.107	21005
853.242	20712
853.376	20716
853.511	20594
853.645	20648
853.78	20792
853.914	20804
854.048	20636
854.183	20796
854.317	20731
854.451	20796
854.585	20632
854.72	20705
854.854	20807
854.988	20625
855.122	20693
855.256	20629
855.39	20716
855.524	20785
855.658	20739
855.792	20754
855.926	20678
856.06	20773
856.194	20807
856.327	20651
856.461	20533
856.595	20590
856.729	20686
856.862	20895
856.996	20708
857.13	20697
857.263	20864
857.397	20819
857.53	20670
857.664	20746
857.797	20819
857.931	20830
858.064	20754
858.197	20712
858.331	20636
858.464	20674
858.597	20648
858.731	20655
858.864	20731
858.997	20636
859.13	20708
859.263	20708
859.396	20796
859.529	20777
859.662	20556
859.795	20640
859.928	20640
860.061	20921
860.194	20956
860.327	20693
860.46	20743
860.592	20811
860.725	20811
860.858	20754
860.99	20765
861.123	20590
861.256	20644
861.388	20701
861.521	21477
861.653	20560
861.786	20530
861.918	20583
862.05	20686
862.183	20609
862.315	20640
862.447	20716
862.58	20670
862.712	20381
862.844	20263
862.976	20469
863.108	20480
863.24	20864
863.372	20419
863.504	20355
863.636	20442
863.768	20461
863.9	20473
864.032	20286
864.164	20366
864.296	20412
864.428	20484
864.559	20503
864.691	20514
864.823	20423
864.954	20415
865.086	20469
865.217	20374
865.349	20233
865.48	20396
865.612	20336
865.743	20537
865.875	20309
866.006	20370
866.137	20358
866.269	20275
866.4	20355
866.531	20317
866.662	20218
866.793	20298
866.924	20317
867.055	20324
867.186	20263
867.317	20248
867.448	20187
867.579	20259
867.71	20263
867.841	20240
867.972	20301
868.103	20244
868.233	20248
868.364	20259
868.495	20438
868.625	20609
868.756	20587
868.886	20507
869.017	20602
869.147	20579
869.278	20632
869.408	20564
869.539	20560
869.669	20571
869.799	20511
869.929	20522
870.06	20629
870.19	20864
870.32	20693
870.45	20864
870.58	20914
870.71	20971
870.84	20986
870.97	20929
871.1	20990
871.23	21108
871.36	21142
871.489	21039
871.619	21138
871.749	21127
871.879	21104
872.008	21222
872.138	21165
872.267	21074
872.397	21036
872.526	21009
872.656	20887
872.785	21009
872.915	21161
873.044	21252
873.173	21188
873.303	21127
873.432	21138
873.561	21222
873.69	21230
873.819	21123
873.948	21237
874.077	21195
874.206	21100
874.335	21077
874.464	21363
874.593	21412
874.722	21329
874.851	21416
874.979	21481
875.108	21401
875.237	21363
875.365	21310
875.494	21287
875.623	21450
875.751	21382
875.88	21294
876.008	21542
876.136	21561
876.265	21739
876.393	21876
876.521	21869
876.65	21915
876.778	21781
876.906	21728
877.034	21671
877.162	21736
877.29	21625
877.418	21679
877.546	21869
877.674	21781
877.802	21724
877.93	21663
878.058	21770
878.185	21682
878.313	21690
878.441	21816
878.568	21553
878.696	21766
878.824	21812
878.951	21808
879.079	21884
879.206	22105
879.333	21876
879.461	21694
879.588	21838
879.715	21949
879.842	22002
879.97	21800
880.097	21610
880.224	21523
880.351	21618
880.478	21606
880.605	21549
880.732	21580
880.859	21724
880.986	21500
881.112	21576
881.239	21408
881.366	21329
881.493	21336
881.619	21161
881.746	21077
881.872	21165
881.999	21199
882.125	21108
882.252	21154
882.378	21089
882.505	21207
882.631	20929
882.757	20857
882.883	20982
883.01	20929
883.136	20804
883.262	20674
883.388	20651
883.514	20788
883.64	20811
883.766	20689
883.892	20640
884.018	20632
884.143	20746
884.269	20823
884.395	20598
884.52	20404
884.646	20457
884.772	20434
884.897	20351
885.023	20507
885.148	20609
885.274	20583
885.399	20636
885.524	20480
885.65	20461
885.775	20419
885.9	20355
886.025	20579
886.15	20545
886.275	20412
886.4	20415
886.525	20530
886.65	20419
886.775	20427
886.9	20564
887.025	20701
887.149	20419
887.274	20244
887.399	20218
887.523	20240
887.648	20130
887.773	20157
887.897	20427
888.021	20377
888.146	20240
888.27	20332
888.395	20408
888.519	20256
888.643	20313
888.767	20317
888.891	20164
889.015	20134
889.139	20161
889.263	20111
889.387	20153
889.511	20248
889.635	20180
889.759	19978
889.883	20084
890.006	20153
890.13	20244
890.254	20058
890.377	19963
890.501	19814
890.624	19818
890.748	19868
890.871	19594
890.995	19620
891.118	19597
891.241	19647
891.364	19647
891.488	19791
891.611	19609
891.734	19723
891.857	19681
891.98	19662
892.103	19727
892.226	19544
892.349	19499
892.471	19518
892.594	19544
892.717	19639
892.839	19552
892.962	19601
893.085	19590
893.207	19674
893.33	19506
893.452	19460
893.575	19715
893.697	19563
893.819	19696
893.941	19799
894.064	19670
894.186	19434
894.308	19502
894.43	19632
894.552	19704
894.674	19715
894.796	19533
894.918	19635
895.04	19480
895.161	19651
895.283	19609
895.405	19407
895.526	19540
895.648	19582
895.769	19533
895.891	19601
896.012	19609
896.134	19651
896.255	19537
896.376	19521
896.498	19605
896.619	19628
896.74	19571
896.861	19651
896.982	19887
897.103	20035
897.224	19902
897.345	19807
897.466	19871
897.587	19765
897.708	19932
897.828	19776
897.949	19700
898.07	19712
898.19	19674
898.311	19811
898.431	19887
898.552	19811
898.672	19875
898.792	19803
898.913	19753
899.033	19700
899.153	19662
899.273	19491
899.393	19533
899.513	19647
899.633	19586
899.753	19609
899.873	19514
899.993	19582
900.113	19499
900.232	19556
900.352	19403
900.472	19403
900.591	19400
900.711	19263
900.83	19312
900.95	19426
901.069	19324
901.189	19274
901.308	19015
901.427	18886
901.546	18909
901.665	18939
901.784	18951
901.904	18787
902.023	18661
902.141	18589
902.26	18555
902.379	18589
902.498	18563
902.617	18350
902.735	18517
902.854	18407
902.973	18353
903.091	18285
903.21	18087
903.328	18083
903.446	18076
903.565	17988
903.683	18053
903.801	17874
903.919	17893
904.038	17817
904.156	17790
904.274	17741
904.392	17687
904.51	17684
904.627	17726
904.745	17897
904.863	17786
904.981	17539
905.098	17330
905.216	17391
905.334	17452
905.451	17345
905.569	17315
905.686	17505
905.803	17322
905.921	17231
906.038	17296
906.155	17166
906.272	16999
906.389	17075
906.506	16869
906.623	16972
906.74	16942
906.857	16816
906.974	16862
907.091	16930
907.208	16991
907.324	16934
907.441	16782
907.557	16660
907.674	16561
907.79	16615
907.907	16694
908.023	16698
908.139	16660
908.256	16531
908.372	16443
908.488	16580
908.604	16390
908.72	16344
908.836	16352
908.952	16310
909.068	16352
909.184	16405
909.3	16310
909.415	16375
909.531	16367
909.647	16105
909.762	16185
909.878	16120
909.993	16124
910.108	16135
910.224	15941
910.339	15975
910.454	15915
910.57	15873
910.685	15869
910.8	16185
910.915	15956
911.03	15869
911.145	15736
911.259	15603
911.374	15686
911.489	15641
911.604	15587
911.718	15389
911.833	15481
911.947	15344
912.062	15313
912.176	15348
912.291	15397
912.405	15428
912.519	15625
912.633	15637
912.748	15447
912.862	15443
912.976	15313
913.09	15119
913.204	15180
913.318	15211
913.431	15306
913.545	15306
913.659	15378
913.772	15233
913.886	15043
914	14982
914.113	15199
914.226	15256
914.34	15009
914.453	14895
914.566	14986
914.68	14975
914.793	14963
914.906	14689
915.019	14705
915.132	14735
915.245	14712
915.358	14651
915.47	14712
915.583	14743
915.696	14735
915.809	14876
915.921	14853
916.034	14667
916.146	14549
916.259	14552
916.371	14640
916.483	14644
916.595	14560
916.708	14583
916.82	14473
916.932	14465
917.044	14434
917.156	14442
917.268	14320
917.38	14355
917.491	14366
917.603	14336
917.715	14404
917.826	14427
917.938	14301
918.049	14206
918.161	14206
918.272	14476
918.384	14343
918.495	14313
918.606	14202
918.717	14142
918.828	14191
918.939	14157
919.05	14084
919.161	14100
919.272	13986
919.383	13997
919.494	14111
919.604	14381
919.715	14210
919.826	13963
919.936	14100
920.047	14081
920.157	14195
920.267	14248
920.378	14088
920.488	14088
920.598	14263
920.708	14370
920.818	14206
920.928	14248
921.038	14377
921.148	14336
921.258	14005
921.368	13970
921.477	13841
921.587	13833
921.697	13791
921.806	13887
921.916	13651
922.025	13578
922.134	13415
922.244	13480
922.353	13464
922.462	13362
922.571	13282
922.68	13110
922.789	13152
922.898	13183
923.007	13137
923.116	13232
923.224	13129
923.333	13149
923.442	12947
923.55	12958
923.659	12962
923.767	13050
923.876	12958
923.984	13038
924.092	12741
924.201	12920
924.309	12867
924.417	12878
924.525	12859
924.633	12848
924.741	13742
924.849	12722
924.956	12719
925.064	12688
925.172	12612
925.279	12589
925.387	12547
925.494	12635
925.602	12654
925.709	12578
925.816	12445
925.924	12559
926.031	12650
926.138	12536
926.245	12540
926.352	12365
926.459	12532
926.566	12612
926.673	12513
926.779	12220
926.886	12292
926.993	12243
927.099	12216
927.206	12148
927.312	12117
927.419	12224
927.525	12098
927.631	12186
927.737	12015
927.843	12098
927.95	11923
928.056	12007
928.162	11980
928.267	12045
928.373	12711
928.479	12060
928.585	11802
928.69	11973
928.796	12030
928.901	11878
929.007	11668
929.112	11863
929.218	11901
929.323	11748
929.428	11646
929.533	11809
929.638	11592
929.743	11707
929.848	11756
929.953	11653
930.058	11581
930.163	11452
930.267	11391
930.372	11528
930.477	11330
930.581	11623
930.685	11490
930.79	11318
930.894	11307
930.998	11284
931.103	11391
931.207	10976
931.311	10980
931.415	10961
931.519	10710
931.623	10679
