Data from test_V78500241_660.txt Node
Date: Fri Mar 25 15:14:27 CST 2022
User: usil
Spectrometer: V785-0024
Trigger mode: 0
Integration Time (sec): 4.000000E-1
Scans to average: 1
Nonlinearity correction enabled: false
Boxcar width: 0
Storing dark spectrum: false
XAxis mode: Wavelengths
Number of Pixels in Spectrum: 1024
>>>>>Begin Spectral Data<<<<<
801.071	27648
801.214	27709
801.356	27321
801.499	27389
801.641	27138
801.783	27222
801.926	27374
802.068	27291
802.211	27127
802.353	27020
802.496	26921
802.638	26906
802.78	26880
802.923	26899
803.065	26781
803.208	26887
803.35	26826
803.492	27020
803.635	26994
803.777	26925
803.919	26861
804.061	27325
804.204	27047
804.346	26838
804.488	26853
804.63	26906
804.773	26807
804.915	27036
805.057	27203
805.199	27089
805.341	27028
805.483	27230
805.626	27127
805.768	27116
805.91	27161
806.052	27131
806.194	27169
806.336	27355
806.478	27161
806.62	27241
806.762	27298
806.904	27382
807.046	27686
807.188	27515
807.33	27599
807.472	27641
807.614	27466
807.756	27587
807.898	27538
808.04	27321
808.182	27363
808.324	27393
808.465	27473
808.607	27648
808.749	27682
808.891	27800
809.033	27937
809.174	27831
809.316	27778
809.458	27816
809.6	27819
809.741	27926
809.883	27998
810.025	28021
810.166	28074
810.308	28181
810.45	28162
810.591	28032
810.733	27842
810.875	27720
811.016	27660
811.158	27709
811.299	27892
811.441	27972
811.582	27823
811.724	27888
811.865	27595
812.007	27705
812.148	27686
812.29	27816
812.431	27869
812.573	28128
812.714	28185
812.855	28341
812.997	28379
813.138	28721
813.279	28596
813.421	28249
813.562	28337
813.703	28086
813.845	28070
813.986	27797
814.127	27648
814.268	27492
814.41	27561
814.551	27485
814.692	27500
814.833	27431
814.974	27386
815.115	27564
815.256	27329
815.397	27211
815.539	27462
815.68	27245
815.821	27184
815.962	27310
816.103	27302
816.244	27077
816.385	27089
816.526	27173
816.666	26929
816.807	26788
816.948	26849
817.089	26998
817.23	26914
817.371	26781
817.512	26861
817.653	26895
817.793	26769
817.934	26872
818.075	26902
818.216	26796
818.356	26674
818.497	26651
818.638	26545
818.778	26545
818.919	26617
819.06	26602
819.2	26762
819.341	26712
819.481	26807
819.622	26925
819.762	27226
819.903	27020
820.043	27013
820.184	26788
820.324	26914
820.465	26948
820.605	26975
820.746	26807
820.886	26762
821.026	26838
821.167	26853
821.307	26868
821.447	26731
821.588	26598
821.728	26571
821.868	26343
822.008	26214
822.149	26206
822.289	26210
822.429	25966
822.569	25993
822.709	26092
822.849	25715
822.99	25791
823.13	25784
823.27	25727
823.41	25499
823.55	25499
823.69	25624
823.83	25552
823.97	25563
824.11	25514
824.25	25354
824.389	25354
824.529	25419
824.669	25297
824.809	25491
824.949	25533
825.089	25430
825.228	25434
825.368	25331
825.508	25194
825.648	25354
825.787	25251
825.927	25312
826.067	25247
826.206	25225
826.346	25327
826.485	25289
826.625	25244
826.765	25304
826.904	25274
827.044	25034
827.183	24996
827.323	24817
827.462	25031
827.601	24875
827.741	24970
827.88	25015
828.02	24920
828.159	24837
828.298	25057
828.437	25019
828.577	24992
828.716	25061
828.855	25019
828.994	24852
829.134	24665
829.273	24730
829.412	24639
829.551	24563
829.69	24654
829.829	24757
829.968	24749
830.107	24673
830.246	24764
830.385	24684
830.524	24483
830.663	24448
830.802	24475
830.941	24197
831.08	24342
831.219	24403
831.357	24361
831.496	24593
831.635	24254
831.774	24163
831.913	24064
832.051	24003
832.19	24121
832.329	24068
832.467	23946
832.606	23939
832.744	23878
832.883	23961
833.022	23923
833.16	23961
833.299	23973
833.437	23946
833.576	24057
833.714	24018
833.852	24038
833.991	24102
834.129	24068
834.267	24030
834.406	24015
834.544	24114
834.682	24045
834.821	23980
834.959	24235
835.097	23950
835.235	24026
835.373	24045
835.511	23977
835.65	23889
835.788	23965
835.926	23611
836.064	23646
836.202	23608
836.34	23798
836.478	23916
836.615	23874
836.753	23889
836.891	23935
837.029	23870
837.167	23859
837.305	23775
837.443	23760
837.58	23611
837.718	23741
837.856	23726
837.993	23718
838.131	23657
838.269	23505
838.406	23611
838.544	23429
838.681	23433
838.819	23258
838.956	23242
839.094	23193
839.231	23280
839.369	23296
839.506	23707
839.643	23421
839.781	23216
839.918	23136
840.055	23246
840.193	23136
840.33	23117
840.467	23098
840.604	23109
840.742	23318
840.879	23041
841.016	22908
841.153	22995
841.29	23147
841.427	23132
841.564	23102
841.701	23094
841.838	22976
841.975	23033
842.112	22987
842.249	22835
842.385	22854
842.522	23044
842.659	22968
842.796	22908
842.933	22828
843.069	22797
843.206	22725
843.343	22862
843.479	22923
843.616	22782
843.752	22668
843.889	22797
844.025	22812
844.162	22569
844.298	22733
844.435	22573
844.571	22599
844.708	22603
844.844	22759
844.98	22713
845.117	22812
845.253	22561
845.389	22432
845.525	22546
845.661	22481
845.798	22303
845.934	22550
846.07	22405
846.206	22500
846.342	22531
846.478	22322
846.614	22101
846.75	22131
846.886	22067
847.022	22097
847.158	22169
847.294	22063
847.429	22147
847.565	21975
847.701	22223
847.837	21850
847.972	21755
848.108	21994
848.244	21899
848.379	21641
848.515	21583
848.65	21770
848.786	21682
848.921	21736
849.057	21785
849.192	21823
849.328	21751
849.463	21747
849.598	21717
849.734	21587
849.869	21523
850.004	21469
850.14	21500
850.275	21485
850.41	21317
850.545	21325
850.68	21378
850.815	21439
850.95	21397
851.085	21682
851.22	21614
851.355	21492
851.49	21542
851.625	21420
851.76	21450
851.895	21374
852.03	21382
852.165	21435
852.299	21504
852.434	21511
852.569	21416
852.703	21443
852.838	21458
852.973	21648
853.107	21511
853.242	21412
853.376	21351
853.511	21131
853.645	21207
853.78	21504
853.914	21249
854.048	21192
854.183	21367
854.317	21336
854.451	21428
854.585	21199
854.72	21355
854.854	21321
854.988	21214
855.122	21298
855.256	21085
855.39	21154
855.524	21382
855.658	21359
855.792	21287
855.926	21389
856.06	21241
856.194	21340
856.327	21359
856.461	21310
856.595	21169
856.729	21165
856.862	21298
856.996	21344
857.13	21298
857.263	21435
857.397	21367
857.53	21256
857.664	21173
857.797	21275
857.931	21340
858.064	21287
858.197	21393
858.331	21249
858.464	21237
858.597	21203
858.731	21237
858.864	21226
858.997	21264
859.13	21363
859.263	21405
859.396	21401
859.529	21195
859.662	21127
859.795	21169
859.928	21336
860.061	21389
860.194	21511
860.327	21306
860.46	21279
860.592	21355
860.725	21370
860.858	21401
860.99	21348
861.123	21173
861.256	21329
861.388	21329
861.521	21968
861.653	21066
861.786	21104
861.918	21146
862.05	21146
862.183	21203
862.315	21260
862.447	21252
862.58	21233
862.712	21020
862.844	20914
862.976	21051
863.108	21036
863.24	21431
863.372	20876
863.504	20937
863.636	20906
863.768	20952
863.9	20948
864.032	20849
864.164	20948
864.296	21024
864.428	21066
864.559	20952
864.691	21028
864.823	20910
864.954	21001
865.086	20937
865.217	20929
865.349	20868
865.48	20914
865.612	20902
865.743	20895
865.875	20823
866.006	20876
866.137	20887
866.269	20876
866.4	20849
866.531	20792
866.662	20773
866.793	20731
866.924	20834
867.055	20785
867.186	20762
867.317	20750
867.448	20823
867.579	20705
867.71	20708
867.841	20731
867.972	20826
868.103	20853
868.233	20872
868.364	20769
868.495	20781
868.625	21047
868.756	21222
868.886	20914
869.017	21112
869.147	21070
869.278	21192
869.408	21039
869.539	21100
869.669	21180
869.799	21138
869.929	21074
870.06	21173
870.19	21249
870.32	21306
870.45	21367
870.58	21435
870.71	21420
870.84	21576
870.97	21439
871.1	21447
871.23	21686
871.36	21625
871.489	21633
871.619	21561
871.749	21447
871.879	21671
872.008	21808
872.138	21614
872.267	21606
872.397	21504
872.526	21424
872.656	21378
872.785	21492
872.915	21545
873.044	21812
873.173	21705
873.303	21705
873.432	21587
873.561	21781
873.69	21686
873.819	21774
873.948	21641
874.077	21739
874.206	21618
874.335	21637
874.464	21808
874.593	21842
874.722	21861
874.851	21861
874.979	21907
875.108	21979
875.237	21869
875.365	21949
875.494	21956
875.623	21888
875.751	21846
875.88	21922
876.008	21934
876.136	22090
876.265	22223
876.393	22417
876.521	22382
876.65	22310
876.778	22322
876.906	22306
877.034	22139
877.162	22219
877.29	22169
877.418	22299
877.546	22276
877.674	22207
877.802	22314
877.93	22261
878.058	22219
878.185	22200
878.313	22253
878.441	22226
878.568	22048
878.696	22063
878.824	22272
878.951	22181
879.079	22436
879.206	22508
879.333	22390
879.461	22299
879.588	22291
879.715	22402
879.842	22459
879.97	22200
880.097	21964
880.224	22086
880.351	21994
880.478	21991
880.605	21964
880.732	22086
880.859	22272
880.986	22105
881.112	22185
881.239	21949
881.366	21831
881.493	21709
881.619	21644
881.746	21698
881.872	21713
881.999	21599
882.125	21583
882.252	21732
882.378	21576
882.505	21732
882.631	21625
882.757	21351
882.883	21481
883.01	21317
883.136	21256
883.262	21207
883.388	21245
883.514	21439
883.64	21359
883.766	21256
883.892	21150
884.018	21226
884.143	21310
884.269	21359
884.395	21005
884.52	20982
884.646	21089
884.772	20834
884.897	20849
885.023	21039
885.148	20986
885.274	21066
885.399	21131
885.524	20990
885.65	21013
885.775	20979
885.9	20899
886.025	21077
886.15	21020
886.275	20906
886.4	20895
886.525	20998
886.65	20914
886.775	20971
886.9	21116
887.025	21237
887.149	20921
887.274	20781
887.399	20750
887.523	20750
887.648	20712
887.773	20667
887.897	20830
888.021	20762
888.146	20712
888.27	20941
888.395	20811
888.519	20792
888.643	20800
888.767	20834
888.891	20800
889.015	20606
889.139	20640
889.263	20549
889.387	20663
889.511	20644
889.635	20602
889.759	20499
889.883	20533
890.006	20651
890.13	20644
890.254	20423
890.377	20511
890.501	20294
890.624	20206
890.748	20256
890.871	20271
890.995	20138
891.118	19982
891.241	20073
891.364	20050
891.488	20180
891.611	20149
891.734	20122
891.857	20149
891.98	20107
892.103	20153
892.226	20046
892.349	20046
892.471	19974
892.594	20043
892.717	20031
892.839	19974
892.962	20008
893.085	20100
893.207	19944
893.33	19917
893.452	19967
893.575	20092
893.697	19868
893.819	20210
893.941	20263
894.064	20145
894.186	19928
894.308	20012
894.43	20008
894.552	20039
894.674	20008
894.796	19841
894.918	19875
895.04	20016
895.161	20107
895.283	20088
895.405	19887
895.526	20012
895.648	20001
895.769	20001
895.891	20069
896.012	20145
896.134	20065
896.255	19936
896.376	20012
896.498	19982
896.619	20031
896.74	20020
896.861	20012
896.982	20351
897.103	20446
897.224	20282
897.345	20164
897.466	20145
897.587	20271
897.708	20267
897.828	20164
897.949	20225
898.07	20043
898.19	20157
898.311	20202
898.431	20145
898.552	20237
898.672	20286
898.792	20244
898.913	20183
899.033	20263
899.153	20103
899.273	19887
899.393	19875
899.513	20103
899.633	20027
899.753	20100
899.873	19932
899.993	20027
900.113	19936
900.232	19894
900.352	19913
900.472	19906
900.591	19765
900.711	19719
900.83	19875
900.95	19871
901.069	19902
901.189	19761
901.308	19419
901.427	19293
901.546	19365
901.665	19441
901.784	19247
901.904	19236
902.023	19190
902.141	18996
902.26	19027
902.379	19008
902.498	18848
902.617	18741
902.735	18966
902.854	18863
902.973	18760
903.091	18566
903.21	18544
903.328	18498
903.446	18475
903.565	18304
903.683	18407
903.801	18209
903.919	18315
904.038	18228
904.156	18277
904.274	18167
904.392	18136
904.51	18064
904.627	18163
904.745	18163
904.863	18258
904.981	17942
905.098	17756
905.216	17783
905.334	17950
905.451	17897
905.569	17798
905.686	17874
905.803	17866
905.921	17524
906.038	17687
906.155	17592
906.272	17505
906.389	17452
906.506	17376
906.623	17284
906.74	17322
906.857	17197
906.974	17315
907.091	17398
907.208	17444
907.324	17463
907.441	17178
907.557	16934
907.674	17128
907.79	16953
907.907	16999
908.023	17048
908.139	17098
908.256	17003
908.372	17052
908.488	16908
908.604	16782
908.72	16721
908.836	16816
908.952	16645
909.068	16812
909.184	16869
909.3	16736
909.415	16858
909.531	16672
909.647	16405
909.762	16569
909.878	16462
909.993	16535
910.108	16443
910.224	16455
910.339	16466
910.454	16348
910.57	16325
910.685	16154
910.8	16462
910.915	16485
911.03	16382
911.145	16162
911.259	15991
911.374	16120
911.489	15975
911.604	15895
911.718	15793
911.833	15804
911.947	15717
912.062	15679
912.176	15736
912.291	15720
912.405	15739
912.519	16013
912.633	15922
912.748	15895
912.862	15819
912.976	15667
913.09	15473
913.204	15591
913.318	15641
913.431	15751
913.545	15823
913.659	15732
913.772	15603
913.886	15481
914	15378
914.113	15504
914.226	15469
914.34	15545
914.453	15340
914.566	15466
914.68	15386
914.793	15302
914.906	15127
915.019	15093
915.132	14979
915.245	15005
915.358	15043
915.47	15055
915.583	14971
915.696	15028
915.809	15237
915.921	15146
916.034	14895
916.146	14918
916.259	14975
916.371	15020
916.483	15055
916.595	14895
916.708	14895
916.82	14914
916.932	14868
917.044	14937
917.156	14765
917.268	14674
917.38	14754
917.491	14590
917.603	14697
917.715	14758
917.826	14815
917.938	14625
918.049	14613
918.161	14598
918.272	14724
918.384	14811
918.495	14636
918.606	14423
918.717	14396
918.828	14499
918.939	14457
919.05	14324
919.161	14347
919.272	14256
919.383	14317
919.494	14518
919.604	14659
919.715	14473
919.826	14374
919.936	14457
920.047	14503
920.157	14370
920.267	14579
920.378	14366
920.488	14370
920.598	14636
920.708	14712
920.818	14552
920.928	14537
921.038	14644
921.148	14670
921.258	14393
921.368	14225
921.477	14244
921.587	14100
921.697	14012
921.806	14149
921.916	14027
922.025	13947
922.134	13734
922.244	13826
922.353	13803
922.462	13719
922.571	13590
922.68	13544
922.789	13373
922.898	13559
923.007	13460
923.116	13499
923.224	13373
923.333	13407
923.442	13247
923.55	13263
923.659	13259
923.767	13362
923.876	13282
923.984	13316
924.092	13225
924.201	13217
924.309	13175
924.417	13225
924.525	13126
924.633	13099
924.741	13864
924.849	12939
924.956	13091
925.064	12924
925.172	12867
925.279	12848
925.387	12852
925.494	12806
925.602	12993
925.709	12920
925.816	12753
925.924	12821
926.031	12863
926.138	12779
926.245	12863
926.352	12692
926.459	12791
926.566	12871
926.673	12745
926.779	12639
926.886	12566
926.993	12369
927.099	12429
927.206	12437
927.312	12414
927.419	12479
927.525	12384
927.631	12399
927.737	12327
927.843	12243
927.95	12159
928.056	12300
928.162	12213
928.267	12254
928.373	13008
928.479	12380
928.585	12121
928.69	12163
928.796	12186
928.901	12159
929.007	12064
929.112	12117
929.218	12167
929.323	12026
929.428	11961
929.533	12045
929.638	11954
929.743	11935
929.848	11992
929.953	11931
930.058	11851
930.163	11619
930.267	11649
930.372	11870
930.477	11589
930.581	11764
930.685	11653
930.79	11589
930.894	11619
930.998	11509
931.103	11672
931.207	11303
931.311	11227
931.415	11181
931.519	10892
931.623	10965
