Data from test_V78500241_2938.txt Node
Date: Fri Mar 25 15:30:19 CST 2022
User: usil
Spectrometer: V785-0024
Trigger mode: 0
Integration Time (sec): 4.000000E-1
Scans to average: 1
Nonlinearity correction enabled: false
Boxcar width: 0
Storing dark spectrum: false
XAxis mode: Wavelengths
Number of Pixels in Spectrum: 1024
>>>>>Begin Spectral Data<<<<<
801.071	27397
801.214	27214
801.356	26956
801.499	26952
801.641	26804
801.783	26769
801.926	27013
802.068	26914
802.211	26842
802.353	26727
802.496	26606
802.638	26427
802.78	26374
802.923	26412
803.065	26446
803.208	26336
803.35	26503
803.492	26629
803.635	26724
803.777	26366
803.919	26640
804.061	27017
804.204	26648
804.346	26511
804.488	26518
804.63	26731
804.773	26457
804.915	26606
805.057	26670
805.199	26590
805.341	26701
805.483	26811
805.626	26899
805.768	26667
805.91	26842
806.052	26686
806.194	26670
806.336	26857
806.478	26746
806.62	26636
806.762	26701
806.904	26861
807.046	27157
807.188	27005
807.33	27176
807.472	27203
807.614	27039
807.756	27093
807.898	26960
808.04	26853
808.182	26853
808.324	27188
808.465	27169
808.607	27199
808.749	27275
808.891	27386
809.033	27408
809.174	27424
809.316	27279
809.458	27359
809.6	27416
809.741	27363
809.883	27439
810.025	27633
810.166	27641
810.308	27572
810.45	27614
810.591	27671
810.733	27382
810.875	27230
811.016	27283
811.158	27321
811.299	27462
811.441	27443
811.582	27572
811.724	27351
811.865	27344
812.007	27416
812.148	27405
812.29	27511
812.431	27408
812.573	27591
812.714	27720
812.855	27812
812.997	27930
813.138	27918
813.279	27876
813.421	27732
813.562	27785
813.703	27709
813.845	27454
813.986	27222
814.127	27001
814.268	26971
814.41	26998
814.551	27020
814.692	27108
814.833	26883
814.974	26990
815.115	27154
815.256	26895
815.397	26735
815.539	26826
815.68	26823
815.821	26663
815.962	26765
816.103	26727
816.244	26640
816.385	26731
816.526	26522
816.666	26351
816.807	26336
816.948	26343
817.089	26336
817.23	26218
817.371	26324
817.512	26100
817.653	26176
817.793	26237
817.934	26233
818.075	26084
818.216	26187
818.356	26248
818.497	26050
818.638	25917
818.778	25898
818.919	25856
819.06	26062
819.2	26100
819.341	26290
819.481	26221
819.622	26339
819.762	26431
819.903	26518
820.043	26450
820.184	26385
820.324	26461
820.465	26442
820.605	26370
820.746	26172
820.886	26263
821.026	26347
821.167	26183
821.307	26343
821.447	26263
821.588	26016
821.728	26031
821.868	25769
822.008	25643
822.149	25605
822.289	25632
822.429	25472
822.569	25388
822.709	25331
822.849	25308
822.99	25187
823.13	25118
823.27	25137
823.41	25133
823.55	24924
823.69	25095
823.83	25061
823.97	24966
824.11	24779
824.25	24772
824.389	24943
824.529	24844
824.669	24821
824.809	25027
824.949	24992
825.089	24916
825.228	24829
825.368	24601
825.508	24783
825.648	24768
825.787	24806
825.927	24802
826.067	24597
826.206	24661
826.346	24886
826.485	24776
826.625	24810
826.765	24745
826.904	24840
827.044	24483
827.183	24528
827.323	24376
827.462	24540
827.601	24429
827.741	24448
827.88	24338
828.02	24338
828.159	24292
828.298	24456
828.437	24563
828.577	24277
828.716	24437
828.855	24330
828.994	24201
829.134	24117
829.273	24079
829.412	24022
829.551	23954
829.69	24220
829.829	24060
829.968	24224
830.107	24117
830.246	24068
830.385	24091
830.524	23988
830.663	23893
830.802	23851
830.941	23775
831.08	23649
831.219	23729
831.357	23794
831.496	23996
831.635	23729
831.774	23589
831.913	23436
832.051	23630
832.19	23436
832.329	23505
832.467	23566
832.606	23231
832.744	23360
832.883	23345
833.022	23292
833.16	23417
833.299	23467
833.437	23341
833.576	23516
833.714	23512
833.852	23516
833.991	23478
834.129	23516
834.267	23474
834.406	23547
834.544	23581
834.682	23440
834.821	23376
834.959	23623
835.097	23341
835.235	23505
835.373	23349
835.511	23299
835.65	23315
835.788	23162
835.926	23147
836.064	23018
836.202	23048
836.34	23307
836.478	23425
836.615	23326
836.753	23303
836.891	23242
837.029	23216
837.167	23071
837.305	23159
837.443	23242
837.58	23052
837.718	23098
837.856	23140
837.993	23147
838.131	23178
838.269	22991
838.406	23029
838.544	22885
838.681	22763
838.819	22694
838.956	22618
839.094	22672
839.231	22656
839.369	22786
839.506	22927
839.643	22862
839.781	22687
839.918	22653
840.055	22443
840.193	22573
840.33	22561
840.467	22641
840.604	22497
840.742	22858
840.879	22443
841.016	22375
841.153	22379
841.29	22721
841.427	22516
841.564	22497
841.701	22557
841.838	22592
841.975	22363
842.112	22500
842.249	22371
842.385	22310
842.522	22421
842.659	22352
842.796	22200
842.933	22253
843.069	22219
843.206	22238
843.343	22360
843.479	22211
843.616	22223
843.752	22055
843.889	21960
844.025	22299
844.162	21972
844.298	22162
844.435	22070
844.571	21911
844.708	22040
844.844	22101
844.98	22150
845.117	22051
845.253	21850
845.389	21861
845.525	21937
845.661	21903
845.798	21781
845.934	21854
846.07	21739
846.206	21873
846.342	21899
846.478	21751
846.614	21663
846.75	21462
846.886	21424
847.022	21591
847.158	21583
847.294	21420
847.429	21526
847.565	21428
847.701	21751
847.837	21279
847.972	21207
848.108	21317
848.244	21245
848.379	21127
848.515	21108
848.65	21100
848.786	21116
848.921	21119
849.057	21275
849.192	21062
849.328	21058
849.463	21055
849.598	21081
849.734	21005
849.869	20998
850.004	20781
850.14	20948
850.275	20868
850.41	20823
850.545	20899
850.68	20765
850.815	20830
850.95	20785
851.085	21005
851.22	21028
851.355	20891
851.49	20785
851.625	20746
851.76	20785
851.895	20804
852.03	20735
852.165	20781
852.299	20769
852.434	20853
852.569	20880
852.703	21009
852.838	20872
852.973	21058
853.107	20990
853.242	20891
853.376	20716
853.511	20594
853.645	20765
853.78	20804
853.914	20746
854.048	20754
854.183	20655
854.317	20819
854.451	20937
854.585	20701
854.72	20651
854.854	20705
854.988	20712
855.122	20701
855.256	20621
855.39	20659
855.524	20754
855.658	20667
855.792	20724
855.926	20899
856.06	20686
856.194	20667
856.327	20720
856.461	20712
856.595	20606
856.729	20708
856.862	20819
856.996	20636
857.13	20815
857.263	20914
857.397	20811
857.53	20769
857.664	20648
857.797	20739
857.931	20785
858.064	20651
858.197	20758
858.331	20697
858.464	20579
858.597	20594
858.731	20670
858.864	20693
858.997	20648
859.13	20697
859.263	20667
859.396	20743
859.529	20648
859.662	20590
859.795	20689
859.928	20674
860.061	20845
860.194	20902
860.327	20750
860.46	20731
860.592	20967
860.725	20819
860.858	20746
860.99	20648
861.123	20606
861.256	20579
861.388	20663
861.521	21336
861.653	20533
861.786	20495
861.918	20598
862.05	20484
862.183	20552
862.315	20625
862.447	20716
862.58	20629
862.712	20374
862.844	20408
862.976	20431
863.108	20366
863.24	20906
863.372	20320
863.504	20309
863.636	20442
863.768	20461
863.9	20389
864.032	20317
864.164	20419
864.296	20343
864.428	20412
864.559	20473
864.691	20404
864.823	20492
864.954	20408
865.086	20415
865.217	20286
865.349	20176
865.48	20343
865.612	20263
865.743	20446
865.875	20393
866.006	20385
866.137	20294
866.269	20320
866.4	20244
866.531	20180
866.662	20214
866.793	20172
866.924	20183
867.055	20393
867.186	20309
867.317	20256
867.448	20206
867.579	20301
867.71	20191
867.841	20130
867.972	20229
868.103	20252
868.233	20400
868.364	20252
868.495	20396
868.625	20480
868.756	20583
868.886	20511
869.017	20488
869.147	20537
869.278	20560
869.408	20583
869.539	20499
869.669	20663
869.799	20583
869.929	20507
870.06	20545
870.19	20815
870.32	20682
870.45	20800
870.58	20910
870.71	20998
870.84	21070
870.97	20807
871.1	20830
871.23	21131
871.36	21165
871.489	21081
871.619	21116
871.749	21074
871.879	21074
872.008	21184
872.138	21085
872.267	21188
872.397	20967
872.526	20902
872.656	20998
872.785	20914
872.915	21142
873.044	21157
873.173	21039
873.303	21116
873.432	21135
873.561	21222
873.69	21218
873.819	21093
873.948	21252
874.077	21039
874.206	20994
874.335	21127
874.464	21233
874.593	21367
874.722	21283
874.851	21473
874.979	21443
875.108	21325
875.237	21169
875.365	21230
875.494	21336
875.623	21378
875.751	21291
875.88	21420
876.008	21397
876.136	21549
876.265	21766
876.393	21846
876.521	21819
876.65	21751
876.778	21736
876.906	21682
877.034	21717
877.162	21778
877.29	21652
877.418	21682
877.546	21732
877.674	21629
877.802	21694
877.93	21671
878.058	21641
878.185	21557
878.313	21686
878.441	21614
878.568	21511
878.696	21675
878.824	21580
878.951	21793
879.079	21747
879.206	21983
879.333	21759
879.461	21717
879.588	21911
879.715	21770
879.842	21892
879.97	21850
880.097	21469
880.224	21519
880.351	21523
880.478	21523
880.605	21462
880.732	21507
880.859	21755
880.986	21511
881.112	21450
881.239	21397
881.366	21291
881.493	21195
881.619	21077
881.746	21211
881.872	21055
881.999	21074
882.125	20979
882.252	21116
882.378	20937
882.505	21249
882.631	20963
882.757	20956
882.883	20819
883.01	20743
883.136	20823
883.262	20758
883.388	20621
883.514	20800
883.64	20834
883.766	20727
883.892	20606
884.018	20613
884.143	20826
884.269	20845
884.395	20545
884.52	20499
884.646	20469
884.772	20461
884.897	20415
885.023	20564
885.148	20450
885.274	20560
885.399	20686
885.524	20423
885.65	20541
885.775	20564
885.9	20499
886.025	20495
886.15	20488
886.275	20438
886.4	20412
886.525	20366
886.65	20393
886.775	20457
886.9	20511
887.025	20564
887.149	20438
887.274	20168
887.399	20229
887.523	20286
887.648	20107
887.773	20176
887.897	20298
888.021	20206
888.146	20271
888.27	20298
888.395	20336
888.519	20347
888.643	20214
888.767	20233
888.891	20157
889.015	20100
889.139	20100
889.263	20058
889.387	20145
889.511	20237
889.635	20138
889.759	19997
889.883	20020
890.006	20024
890.13	20065
890.254	19982
890.377	20043
890.501	19868
890.624	19807
890.748	19860
890.871	19769
890.995	19533
891.118	19510
891.241	19723
891.364	19601
891.488	19643
891.611	19616
891.734	19704
891.857	19670
891.98	19655
892.103	19632
892.226	19677
892.349	19438
892.471	19453
892.594	19544
892.717	19556
892.839	19567
892.962	19544
893.085	19567
893.207	19563
893.33	19438
893.452	19381
893.575	19616
893.697	19506
893.819	19681
893.941	19719
894.064	19734
894.186	19483
894.308	19491
894.43	19601
894.552	19772
894.674	19540
894.796	19480
894.918	19655
895.04	19499
895.161	19563
895.283	19499
895.405	19495
895.526	19510
895.648	19537
895.769	19533
895.891	19563
896.012	19529
896.134	19632
896.255	19586
896.376	19468
896.498	19632
896.619	19628
896.74	19586
896.861	19506
896.982	19902
897.103	20043
897.224	19856
897.345	19799
897.466	19708
897.587	19750
897.708	19913
897.828	19837
897.949	19734
898.07	19567
898.19	19811
898.311	19852
898.431	19807
898.552	19788
898.672	19784
898.792	19791
898.913	19784
899.033	19712
899.153	19582
899.273	19460
899.393	19639
899.513	19624
899.633	19616
899.753	19537
899.873	19464
899.993	19601
900.113	19525
900.232	19533
900.352	19419
900.472	19266
900.591	19343
900.711	19369
900.83	19289
900.95	19331
901.069	19449
901.189	19316
901.308	18916
901.427	19046
901.546	18989
901.665	18993
901.784	18901
901.904	18825
902.023	18650
902.141	18467
902.26	18426
902.379	18509
902.498	18475
902.617	18433
902.735	18403
902.854	18441
902.973	18369
903.091	18159
903.21	18057
903.328	18144
903.446	18019
903.565	17885
903.683	17980
903.801	17843
903.919	17859
904.038	17889
904.156	17676
904.274	17828
904.392	17707
904.51	17687
904.627	17665
904.745	17783
904.863	17771
904.981	17459
905.098	17444
905.216	17376
905.334	17490
905.451	17398
905.569	17341
905.686	17318
905.803	17368
905.921	17136
906.038	17174
906.155	17193
906.272	17025
906.389	17071
906.506	16847
906.623	16889
906.74	16934
906.857	16759
906.974	16790
907.091	16896
907.208	17003
907.324	17132
907.441	16835
907.557	16664
907.674	16611
907.79	16516
907.907	16573
908.023	16649
908.139	16630
908.256	16592
908.372	16428
908.488	16402
908.604	16363
908.72	16424
908.836	16379
908.952	16188
909.068	16432
909.184	16382
909.3	16333
909.415	16371
909.531	16291
909.647	16063
909.762	16131
909.878	15994
909.993	16025
910.108	16021
910.224	15975
910.339	16063
910.454	15994
910.57	15979
910.685	15797
910.8	16071
910.915	15922
911.03	15922
911.145	15705
911.259	15766
911.374	15717
911.489	15595
911.604	15542
911.718	15416
911.833	15439
911.947	15325
912.062	15355
912.176	15336
912.291	15477
912.405	15443
912.519	15637
912.633	15614
912.748	15481
912.862	15386
912.976	15291
913.09	15157
913.204	15241
913.318	15222
913.431	15298
913.545	15332
913.659	15340
913.772	15169
913.886	15081
914	15039
914.113	15157
914.226	15085
914.34	15097
914.453	14902
914.566	15119
914.68	14990
914.793	14872
914.906	14712
915.019	14644
915.132	14667
915.245	14644
915.358	14697
915.47	14655
915.583	14697
915.696	14686
915.809	14701
915.921	14788
916.034	14659
916.146	14579
916.259	14503
916.371	14724
916.483	14423
916.595	14556
916.708	14495
916.82	14488
916.932	14412
917.044	14415
917.156	14488
917.268	14320
917.38	14278
917.491	14309
917.603	14408
917.715	14358
917.826	14423
917.938	14362
918.049	14115
918.161	14275
918.272	14427
918.384	14381
918.495	14206
918.606	14050
918.717	14084
918.828	14172
918.939	14103
919.05	14100
919.161	14065
919.272	13913
919.383	13944
919.494	14214
919.604	14248
919.715	14035
919.826	13932
919.936	14069
920.047	14149
920.157	14092
920.267	14195
920.378	14103
920.488	14024
920.598	14202
920.708	14252
920.818	14187
920.928	14161
921.038	14336
921.148	14252
921.258	13974
921.368	14005
921.477	13772
921.587	13814
921.697	13670
921.806	13784
921.916	13639
922.025	13514
922.134	13422
922.244	13407
922.353	13460
922.462	13343
922.571	13270
922.68	13244
922.789	13126
922.898	13259
923.007	13027
923.116	13145
923.224	13023
923.333	13088
923.442	12909
923.55	12863
923.659	12970
923.767	12977
923.876	12878
923.984	12996
924.092	12878
924.201	12939
924.309	12856
924.417	12867
924.525	12738
924.633	12829
924.741	13731
924.849	12570
924.956	12745
925.064	12673
925.172	12513
925.279	12566
925.387	12578
925.494	12589
925.602	12688
925.709	12593
925.816	12479
925.924	12494
926.031	12589
926.138	12509
926.245	12509
926.352	12418
926.459	12555
926.566	12563
926.673	12365
926.779	12353
926.886	12346
926.993	12163
927.099	12186
927.206	12030
927.312	12095
927.419	12159
927.525	12121
927.631	12167
927.737	12041
927.843	11977
927.95	11893
928.056	12011
928.162	11935
928.267	11942
928.373	12570
928.479	12068
928.585	11882
928.69	11923
928.796	11969
928.901	11851
929.007	11767
929.112	11904
929.218	11741
929.323	11676
929.428	11699
929.533	11855
929.638	11649
929.743	11684
929.848	11726
929.953	11649
930.058	11493
930.163	11471
930.267	11425
930.372	11505
930.477	11360
930.581	11562
930.685	11421
930.79	11269
930.894	11307
930.998	11223
931.103	11436
931.207	11098
931.311	10938
931.415	10816
931.519	10675
931.623	10637
