Data from test_V78500241_2203.txt Node
Date: Fri Mar 25 15:25:11 CST 2022
User: usil
Spectrometer: V785-0024
Trigger mode: 0
Integration Time (sec): 4.000000E-1
Scans to average: 1
Nonlinearity correction enabled: false
Boxcar width: 0
Storing dark spectrum: false
XAxis mode: Wavelengths
Number of Pixels in Spectrum: 1024
>>>>>Begin Spectral Data<<<<<
801.071	27770
801.214	27888
801.356	27393
801.499	27564
801.641	27424
801.783	27374
801.926	27348
802.068	27310
802.211	27416
802.353	27203
802.496	27070
802.638	27074
802.78	27013
802.923	26960
803.065	26842
803.208	26971
803.35	27154
803.492	27093
803.635	27279
803.777	27020
803.919	27199
804.061	27355
804.204	27325
804.346	27154
804.488	27024
804.63	27298
804.773	27188
804.915	27279
805.057	27348
805.199	27188
805.341	27264
805.483	27359
805.626	27310
805.768	27401
805.91	27214
806.052	27344
806.194	27214
806.336	27313
806.478	27287
806.62	27192
806.762	27397
806.904	27580
807.046	27953
807.188	27736
807.33	27629
807.472	27717
807.614	27732
807.756	27736
807.898	27720
808.04	27481
808.182	27610
808.324	27622
808.465	27606
808.607	27926
808.749	27846
808.891	27934
809.033	28093
809.174	27994
809.316	27937
809.458	27979
809.6	28059
809.741	28048
809.883	28086
810.025	28135
810.166	28196
810.308	28226
810.45	28177
810.591	28128
810.733	28040
810.875	28006
811.016	27797
811.158	27854
811.299	27926
811.441	28120
811.582	27991
811.724	28013
811.865	27728
812.007	27998
812.148	27838
812.29	27972
812.431	28215
812.573	28230
812.714	28295
812.855	28577
812.997	28523
813.138	28854
813.279	28668
813.421	28599
813.562	28360
813.703	28398
813.845	28310
813.986	27991
814.127	27743
814.268	27717
814.41	27759
814.551	27652
814.692	27698
814.833	27675
814.974	27526
815.115	27717
815.256	27523
815.397	27526
815.539	27412
815.68	27370
815.821	27260
815.962	27408
816.103	27313
816.244	27408
816.385	27184
816.526	27287
816.666	26921
816.807	26956
816.948	26910
817.089	27047
817.23	26967
817.371	26857
817.512	26834
817.653	26921
817.793	26765
817.934	26937
818.075	26967
818.216	26948
818.356	26834
818.497	26705
818.638	26560
818.778	26727
818.919	26655
819.06	26731
819.2	26883
819.341	26853
819.481	26883
819.622	27165
819.762	27218
819.903	27203
820.043	27150
820.184	27070
820.324	26982
820.465	27104
820.605	26952
820.746	27028
820.886	26758
821.026	27020
821.167	26891
821.307	27066
821.447	26975
821.588	26750
821.728	26663
821.868	26621
822.008	26294
822.149	26419
822.289	26370
822.429	26176
822.569	26043
822.709	25974
822.849	25917
822.99	25868
823.13	25898
823.27	25868
823.41	25807
823.55	25658
823.69	25746
823.83	25727
823.97	25655
824.11	25464
824.25	25457
824.389	25487
824.529	25712
824.669	25544
824.809	25677
824.949	25578
825.089	25647
825.228	25586
825.368	25388
825.508	25449
825.648	25537
825.787	25514
825.927	25464
826.067	25240
826.206	25308
826.346	25487
826.485	25457
826.625	25316
826.765	25400
826.904	25396
827.044	25213
827.183	25122
827.323	25091
827.462	25126
827.601	25053
827.741	24920
827.88	25179
828.02	25110
828.159	25152
828.298	25160
828.437	25225
828.577	25034
828.716	25156
828.855	24970
828.994	24833
829.134	24764
829.273	24859
829.412	24821
829.551	24806
829.69	24825
829.829	24806
829.968	24890
830.107	24947
830.246	24863
830.385	24707
830.524	24658
830.663	24547
830.802	24429
830.941	24304
831.08	24308
831.219	24585
831.357	24471
831.496	24700
831.635	24437
831.774	24266
831.913	24277
832.051	24155
832.19	24270
832.329	24091
832.467	24083
832.606	24018
832.744	23939
832.883	23992
833.022	23961
833.16	24064
833.299	24228
833.437	24011
833.576	24018
833.714	24125
833.852	24235
833.991	24342
834.129	24194
834.267	24277
834.406	24034
834.544	24110
834.682	24163
834.821	24155
834.959	24311
835.097	23996
835.235	24174
835.373	24125
835.511	24155
835.65	23832
835.788	23999
835.926	23760
836.064	23741
836.202	23847
836.34	23984
836.478	24049
836.615	23866
836.753	23954
836.891	24015
837.029	24015
837.167	23931
837.305	23897
837.443	23874
837.58	23863
837.718	23786
837.856	23840
837.993	23741
838.131	23752
838.269	23684
838.406	23661
838.544	23748
838.681	23505
838.819	23516
838.956	23387
839.094	23303
839.231	23353
839.369	23455
839.506	23554
839.643	23524
839.781	23288
839.918	23360
840.055	23231
840.193	23337
840.33	23128
840.467	23121
840.604	23166
840.742	23467
840.879	22999
841.016	23200
841.153	22927
841.29	23166
841.427	23250
841.564	23254
841.701	23250
841.838	23128
841.975	23025
842.112	23041
842.249	22961
842.385	22900
842.522	23010
842.659	22881
842.796	22858
842.933	22889
843.069	23003
843.206	22927
843.343	22953
843.479	22908
843.616	22927
843.752	22729
843.889	22744
844.025	22733
844.162	22565
844.298	22717
844.435	22759
844.571	22634
844.708	22755
844.844	22816
844.98	22763
845.117	22797
845.253	22717
845.389	22557
845.525	22717
845.661	22599
845.798	22405
845.934	22527
846.07	22390
846.206	22421
846.342	22538
846.478	22386
846.614	22284
846.75	22185
846.886	22173
847.022	22230
847.158	22234
847.294	22147
847.429	22246
847.565	22086
847.701	22421
847.837	21949
847.972	21964
848.108	22074
848.244	22063
848.379	21865
848.515	21660
848.65	21675
848.786	21755
848.921	21785
849.057	21846
849.192	21930
849.328	21854
849.463	21865
849.598	21770
849.734	21637
849.869	21591
850.004	21485
850.14	21405
850.275	21580
850.41	21466
850.545	21477
850.68	21439
850.815	21511
850.95	21507
851.085	21625
851.22	21622
851.355	21526
851.49	21549
851.625	21511
851.76	21462
851.895	21447
852.03	21336
852.165	21534
852.299	21466
852.434	21682
852.569	21507
852.703	21526
852.838	21583
852.973	21610
853.107	21519
853.242	21454
853.376	21424
853.511	21188
853.645	21351
853.78	21458
853.914	21317
854.048	21268
854.183	21416
854.317	21389
854.451	21564
854.585	21450
854.72	21370
854.854	21477
854.988	21256
855.122	21340
855.256	21207
855.39	21344
855.524	21367
855.658	21382
855.792	21428
855.926	21363
856.06	21420
856.194	21447
856.327	21294
856.461	21214
856.595	21287
856.729	21249
856.862	21420
856.996	21367
857.13	21439
857.263	21359
857.397	21351
857.53	21332
857.664	21355
857.797	21416
857.931	21355
858.064	21310
858.197	21294
858.331	21226
858.464	21287
858.597	21081
858.731	21256
858.864	21355
858.997	21370
859.13	21310
859.263	21420
859.396	21424
859.529	21317
859.662	21329
859.795	21283
859.928	21397
860.061	21359
860.194	21454
860.327	21545
860.46	21447
860.592	21439
860.725	21500
860.858	21431
860.99	21367
861.123	21142
861.256	21260
861.388	21401
861.521	22017
861.653	21173
861.786	21146
861.918	21176
862.05	21233
862.183	21252
862.315	21218
862.447	21302
862.58	21256
862.712	21051
862.844	21001
862.976	21150
863.108	21116
863.24	21344
863.372	20906
863.504	20952
863.636	21024
863.768	21089
863.9	21001
864.032	21062
864.164	21013
864.296	21142
864.428	21173
864.559	21001
864.691	21211
864.823	20994
864.954	21142
865.086	21013
865.217	20937
865.349	20933
865.48	20921
865.612	20929
865.743	21036
865.875	21150
866.006	20933
866.137	20906
866.269	20921
866.4	20902
866.531	20815
866.662	20785
866.793	20883
866.924	20830
867.055	20754
867.186	20880
867.317	20823
867.448	20826
867.579	20921
867.71	20686
867.841	20807
867.972	20914
868.103	20876
868.233	20895
868.364	20891
868.495	21039
868.625	21024
868.756	21233
868.886	20960
869.017	21039
869.147	21195
869.278	21184
869.408	21028
869.539	21100
869.669	21249
869.799	21070
869.929	21317
870.06	21161
870.19	21526
870.32	21321
870.45	21450
870.58	21412
870.71	21564
870.84	21545
870.97	21332
871.1	21553
871.23	21625
871.36	21698
871.489	21660
871.619	21629
871.749	21618
871.879	21724
872.008	21846
872.138	21766
872.267	21641
872.397	21553
872.526	21545
872.656	21610
872.785	21466
872.915	21675
873.044	21686
873.173	21759
873.303	21732
873.432	21812
873.561	21842
873.69	21766
873.819	21694
873.948	21732
874.077	21770
874.206	21580
874.335	21747
874.464	21804
874.593	21964
874.722	21907
874.851	21876
874.979	22120
875.108	21972
875.237	21873
875.365	21732
875.494	21953
875.623	22074
875.751	21850
875.88	22036
876.008	22109
876.136	22048
876.265	22348
876.393	22516
876.521	22382
876.65	22470
876.778	22371
876.906	22211
877.034	22318
877.162	22272
877.29	22215
877.418	22249
877.546	22322
877.674	22318
877.802	22333
877.93	22287
878.058	22074
878.185	22101
878.313	22223
878.441	22322
878.568	22226
878.696	22303
878.824	22333
878.951	22352
879.079	22390
879.206	22698
879.333	22519
879.461	22337
879.588	22527
879.715	22557
879.842	22622
879.97	22329
880.097	22158
880.224	22070
880.351	22059
880.478	22261
880.605	22188
880.732	22029
880.859	22402
880.986	22139
881.112	22120
881.239	21949
881.366	21915
881.493	21774
881.619	21717
881.746	21728
881.872	21759
881.999	21580
882.125	21690
882.252	21686
882.378	21629
882.505	21819
882.631	21561
882.757	21302
882.883	21519
883.01	21363
883.136	21374
883.262	21222
883.388	21074
883.514	21439
883.64	21370
883.766	21329
883.892	21150
884.018	21131
884.143	21249
884.269	21462
884.395	21013
884.52	21112
884.646	21127
884.772	21020
884.897	20918
885.023	21001
885.148	21157
885.274	21062
885.399	21062
885.524	21043
885.65	21032
885.775	20998
885.9	21066
886.025	21108
886.15	21173
886.275	21005
886.4	20967
886.525	21043
886.65	20960
886.775	20899
886.9	21043
887.025	21226
887.149	20937
887.274	20895
887.399	20769
887.523	20842
887.648	20727
887.773	20743
887.897	20864
888.021	20811
888.146	20842
888.27	20864
888.395	20838
888.519	20712
888.643	20670
888.767	20796
888.891	20648
889.015	20640
889.139	20705
889.263	20659
889.387	20762
889.511	20765
889.635	20708
889.759	20450
889.883	20636
890.006	20625
890.13	20648
890.254	20495
890.377	20533
890.501	20362
890.624	20328
890.748	20389
890.871	20252
890.995	20202
891.118	20107
891.241	20225
891.364	20206
891.488	20332
891.611	20164
891.734	20240
891.857	20214
891.98	20088
892.103	20187
892.226	20294
892.349	20096
892.471	19887
892.594	20005
892.717	20100
892.839	20073
892.962	20199
893.085	20161
893.207	20107
893.33	20016
893.452	20020
893.575	20100
893.697	20020
893.819	20176
893.941	20210
894.064	20218
894.186	19982
894.308	19932
894.43	20035
894.552	20290
894.674	20157
894.796	19917
894.918	20024
895.04	19970
895.161	19997
895.283	20088
895.405	19993
895.526	19986
895.648	20016
895.769	20111
895.891	20031
896.012	20214
896.134	20210
896.255	19989
896.376	20008
896.498	19974
896.619	20069
896.74	20027
896.861	20172
896.982	20309
897.103	20530
897.224	20419
897.345	20221
897.466	20195
897.587	20229
897.708	20343
897.828	20381
897.949	20237
898.07	20187
898.19	20172
898.311	20393
898.431	20233
898.552	20259
898.672	20362
898.792	20400
898.913	20233
899.033	20259
899.153	20088
899.273	19974
899.393	20020
899.513	20050
899.633	19970
899.753	19970
899.873	19944
899.993	19978
900.113	19879
900.232	19989
900.352	19944
900.472	19860
900.591	19807
900.711	19871
900.83	19830
900.95	19822
901.069	19917
901.189	19704
901.308	19483
901.427	19415
901.546	19415
901.665	19411
901.784	19430
901.904	19301
902.023	19274
902.141	19015
902.26	18909
902.379	19076
902.498	18924
902.617	18840
902.735	19012
902.854	18894
902.973	18837
903.091	18559
903.21	18570
903.328	18578
903.446	18479
903.565	18479
903.683	18437
903.801	18342
903.919	18380
904.038	18220
904.156	18102
904.274	18251
904.392	18083
904.51	18163
904.627	18087
904.745	18194
904.863	18163
904.981	18019
905.098	17874
905.216	17832
905.334	17920
905.451	17878
905.569	17771
905.686	17893
905.803	17767
905.921	17657
906.038	17726
906.155	17665
906.272	17505
906.389	17547
906.506	17345
906.623	17341
906.74	17395
906.857	17273
906.974	17379
907.091	17356
907.208	17482
907.324	17288
907.441	17334
907.557	17086
907.674	17025
907.79	17109
907.907	17045
908.023	17045
908.139	17033
908.256	17094
908.372	16946
908.488	16847
908.604	16881
908.72	16744
908.836	16634
908.952	16790
909.068	16721
909.184	16866
909.3	16805
909.415	16797
909.531	16744
909.647	16603
909.762	16573
909.878	16569
909.993	16489
910.108	16561
910.224	16462
910.339	16512
910.454	16348
910.57	16280
910.685	16253
910.8	16569
910.915	16523
911.03	16344
911.145	16177
911.259	16101
911.374	16082
911.489	15994
911.604	15956
911.718	15808
911.833	15831
911.947	15793
912.062	15576
912.176	15823
912.291	15880
912.405	15720
912.519	16051
912.633	15987
912.748	15888
912.862	15774
912.976	15648
913.09	15595
913.204	15675
913.318	15599
913.431	15762
913.545	15728
913.659	15713
913.772	15618
913.886	15450
914	15500
914.113	15553
914.226	15603
914.34	15553
914.453	15431
914.566	15466
914.68	15454
914.793	15272
914.906	15112
915.019	15036
915.132	15043
915.245	14998
915.358	15058
915.47	15070
915.583	15135
915.696	15123
915.809	15119
915.921	15154
916.034	14902
916.146	14941
916.259	14883
916.371	15062
916.483	14967
916.595	14918
916.708	14804
916.82	14933
916.932	14842
917.044	14868
917.156	14765
917.268	14629
917.38	14785
917.491	14678
917.603	14636
917.715	14746
917.826	14815
917.938	14682
918.049	14579
918.161	14617
918.272	14785
918.384	14811
918.495	14689
918.606	14495
918.717	14374
918.828	14579
918.939	14511
919.05	14450
919.161	14495
919.272	14366
919.383	14412
919.494	14503
919.604	14701
919.715	14552
919.826	14339
919.936	14389
920.047	14564
920.157	14492
920.267	14579
920.378	14450
920.488	14484
920.598	14674
920.708	14678
920.818	14564
920.928	14526
921.038	14667
921.148	14762
921.258	14423
921.368	14301
921.477	14210
921.587	14134
921.697	14161
921.806	14244
921.916	14058
922.025	13845
922.134	13883
922.244	13772
922.353	13849
922.462	13738
922.571	13677
922.68	13499
922.789	13320
922.898	13540
923.007	13373
923.116	13476
923.224	13544
923.333	13434
923.442	13324
923.55	13339
923.659	13312
923.767	13407
923.876	13209
923.984	13274
924.092	13244
924.201	13217
924.309	13137
924.417	13274
924.525	13179
924.633	13129
924.741	13940
924.849	13046
924.956	13084
925.064	12848
925.172	12859
925.279	12951
925.387	12894
925.494	12913
925.602	12985
925.709	12871
925.816	12817
925.924	12787
926.031	12943
926.138	12859
926.245	12810
926.352	12757
926.459	12878
926.566	12882
926.673	12760
926.779	12684
926.886	12627
926.993	12509
927.099	12536
927.206	12429
927.312	12441
927.419	12513
927.525	12399
927.631	12448
927.737	12304
927.843	12296
927.95	12213
928.056	12327
928.162	12315
928.267	12311
928.373	12935
928.479	12361
928.585	12060
928.69	12281
928.796	12175
928.901	12144
929.007	11973
929.112	12201
929.218	12110
929.323	12026
929.428	11988
929.533	12121
929.638	11923
929.743	12003
929.848	12007
929.953	11912
930.058	11843
930.163	11661
930.267	11684
930.372	11885
930.477	11596
930.581	11889
930.685	11771
930.79	11589
930.894	11665
930.998	11558
931.103	11699
931.207	11360
931.311	11181
931.415	11185
931.519	10934
931.623	11037
