Data from test_V78500241_1500.txt Node
Date: Fri Mar 25 15:20:18 CST 2022
User: usil
Spectrometer: V785-0024
Trigger mode: 0
Integration Time (sec): 4.000000E-1
Scans to average: 1
Nonlinearity correction enabled: false
Boxcar width: 0
Storing dark spectrum: false
XAxis mode: Wavelengths
Number of Pixels in Spectrum: 1024
>>>>>Begin Spectral Data<<<<<
801.071	27998
801.214	27979
801.356	27599
801.499	27648
801.641	27469
801.783	27488
801.926	27587
802.068	27443
802.211	27599
802.353	27389
802.496	27135
802.638	27195
802.78	27119
802.923	27184
803.065	27116
803.208	27020
803.35	27131
803.492	27382
803.635	27424
803.777	27291
803.919	27382
804.061	27747
804.204	27359
804.346	27370
804.488	27260
804.63	27310
804.773	27382
804.915	27416
805.057	27408
805.199	27344
805.341	27572
805.483	27466
805.626	27477
805.768	27310
805.91	27454
806.052	27618
806.194	27519
806.336	27717
806.478	27545
806.62	27549
806.762	27625
806.904	27705
807.046	28078
807.188	27956
807.33	28044
807.472	27987
807.614	27991
807.756	27934
807.898	27793
808.04	27857
808.182	27732
808.324	27861
808.465	27846
808.607	27907
808.749	28215
808.891	28242
809.033	28325
809.174	28257
809.316	28131
809.458	28196
809.6	28093
809.741	28405
809.883	28310
810.025	28489
810.166	28508
810.308	28424
810.45	28413
810.591	28367
810.733	28287
810.875	28063
811.016	28162
811.158	27956
811.299	28344
811.441	28360
811.582	28322
811.724	28181
811.865	28181
812.007	28090
812.148	28192
812.29	28211
812.431	28497
812.573	28546
812.714	28577
812.855	28679
812.997	28725
813.138	28942
813.279	28854
813.421	28733
813.562	28622
813.703	28554
813.845	28379
813.986	28029
814.127	28025
814.268	27888
814.41	27895
814.551	27873
814.692	27907
814.833	27850
814.974	27762
815.115	27918
815.256	27770
815.397	27629
815.539	27675
815.68	27576
815.821	27755
815.962	27701
816.103	27698
816.244	27564
816.385	27583
816.526	27389
816.666	27310
816.807	27291
816.948	27192
817.089	27237
817.23	27233
817.371	26986
817.512	27226
817.653	27108
817.793	27074
817.934	27138
818.075	27108
818.216	27039
818.356	27161
818.497	27051
818.638	26944
818.778	26940
818.919	26933
819.06	26944
819.2	26979
819.341	27275
819.481	27150
819.622	27279
819.762	27393
819.903	27363
820.043	27298
820.184	27233
820.324	27245
820.465	27298
820.605	27264
820.746	27355
820.886	27051
821.026	27207
821.167	27256
821.307	27294
821.447	27226
821.588	27089
821.728	26925
821.868	26727
822.008	26708
822.149	26754
822.289	26476
822.429	26233
822.569	26351
822.709	26301
822.849	26332
822.99	26195
823.13	26073
823.27	25966
823.41	25963
823.55	25940
823.69	26024
823.83	25921
823.97	26020
824.11	25715
824.25	25594
824.389	25727
824.529	25837
824.669	25875
824.809	25826
824.949	26001
825.089	25906
825.228	25811
825.368	25601
825.508	25567
825.648	25643
825.787	25677
825.927	25715
826.067	25578
826.206	25567
826.346	25681
826.485	25761
826.625	25689
826.765	25822
826.904	25719
827.044	25506
827.183	25438
827.323	25441
827.462	25468
827.601	25441
827.741	25400
827.88	25419
828.02	25152
828.159	25266
828.298	25206
828.437	25381
828.577	25293
828.716	25415
828.855	25228
828.994	25031
829.134	24970
829.273	25160
829.412	24981
829.551	24802
829.69	24985
829.829	25107
829.968	25050
830.107	25225
830.246	25133
830.385	25050
830.524	24962
830.663	24920
830.802	24791
830.941	24585
831.08	24639
831.219	24764
831.357	24650
831.496	24909
831.635	24688
831.774	24654
831.913	24399
832.051	24464
832.19	24391
832.329	24399
832.467	24422
832.606	24289
832.744	24243
832.883	24357
833.022	24239
833.16	24353
833.299	24350
833.437	24281
833.576	24403
833.714	24395
833.852	24448
833.991	24350
834.129	24547
834.267	24456
834.406	24216
834.544	24471
834.682	24448
834.821	24228
834.959	24426
835.097	24327
835.235	24258
835.373	24456
835.511	24353
835.65	24273
835.788	24296
835.926	24194
836.064	24045
836.202	24034
836.34	24194
836.478	24315
836.615	24098
836.753	24342
836.891	24254
837.029	24201
837.167	24159
837.305	24003
837.443	24026
837.58	23996
837.718	24159
837.856	24041
837.993	24068
838.131	23999
838.269	23855
838.406	23950
838.544	23931
838.681	23630
838.819	23611
838.956	23634
839.094	23524
839.231	23604
839.369	23592
839.506	23775
839.643	23851
839.781	23516
839.918	23429
840.055	23398
840.193	23474
840.33	23444
840.467	23463
840.604	23440
840.742	23695
840.879	23349
841.016	23410
841.153	23280
841.29	23490
841.427	23414
841.564	23554
841.701	23410
841.838	23398
841.975	23239
842.112	23337
842.249	23220
842.385	23170
842.522	23322
842.659	23178
842.796	23193
842.933	23185
843.069	23071
843.206	23140
843.343	23273
843.479	23208
843.616	23052
843.752	22923
843.889	23052
844.025	23151
844.162	23018
844.298	23128
844.435	22957
844.571	22942
844.708	22972
844.844	23117
844.98	23056
845.117	23037
845.253	22885
845.389	22892
845.525	22854
845.661	22847
845.798	22622
845.934	22683
846.07	22713
846.206	22763
846.342	22767
846.478	22527
846.614	22523
846.75	22371
846.886	22310
847.022	22489
847.158	22455
847.294	22451
847.429	22497
847.565	22291
847.701	22630
847.837	22131
847.972	22135
848.108	22226
848.244	22295
848.379	22097
848.515	21975
848.65	21937
848.786	21968
848.921	22059
849.057	22082
849.192	22010
849.328	22032
849.463	22017
849.598	21918
849.734	21892
849.869	21842
850.004	21747
850.14	21701
850.275	21899
850.41	21637
850.545	21561
850.68	21732
850.815	21690
850.95	21804
851.085	21930
851.22	21880
851.355	21797
851.49	21698
851.625	21770
851.76	21694
851.895	21500
852.03	21663
852.165	21603
852.299	21682
852.434	21720
852.569	21800
852.703	21827
852.838	21831
852.973	21907
853.107	21774
853.242	21713
853.376	21720
853.511	21523
853.645	21534
853.78	21587
853.914	21526
854.048	21679
854.183	21564
854.317	21618
854.451	21812
854.585	21500
854.72	21526
854.854	21580
854.988	21424
855.122	21542
855.256	21420
855.39	21561
855.524	21644
855.658	21610
855.792	21515
855.926	21671
856.06	21599
856.194	21660
856.327	21507
856.461	21542
856.595	21545
856.729	21641
856.862	21698
856.996	21705
857.13	21599
857.263	21732
857.397	21686
857.53	21614
857.664	21576
857.797	21648
857.931	21595
858.064	21591
858.197	21595
858.331	21500
858.464	21504
858.597	21538
858.731	21488
858.864	21507
858.997	21481
859.13	21633
859.263	21686
859.396	21553
859.529	21519
859.662	21439
859.795	21447
859.928	21656
860.061	21797
860.194	21816
860.327	21572
860.46	21679
860.592	21610
860.725	21709
860.858	21682
860.99	21545
861.123	21526
861.256	21523
861.388	21507
861.521	22082
861.653	21439
861.786	21298
861.918	21485
862.05	21454
862.183	21443
862.315	21454
862.447	21625
862.58	21519
862.712	21291
862.844	21249
862.976	21287
863.108	21165
863.24	21778
863.372	21192
863.504	21355
863.636	21275
863.768	21302
863.9	21211
864.032	21184
864.164	21298
864.296	21363
864.428	21443
864.559	21374
864.691	21283
864.823	21370
864.954	21226
865.086	21313
865.217	21039
865.349	21161
865.48	21104
865.612	21131
865.743	21325
865.875	21161
866.006	21233
866.137	21207
866.269	21142
866.4	21096
866.531	21161
866.662	21123
866.793	21116
866.924	21154
867.055	21089
867.186	21150
867.317	21066
867.448	21051
867.579	21013
867.71	21051
867.841	21055
867.972	21081
868.103	21093
868.233	21085
868.364	21116
868.495	21169
868.625	21268
868.756	21500
868.886	21233
869.017	21420
869.147	21466
869.278	21408
869.408	21363
869.539	21355
869.669	21450
869.799	21302
869.929	21443
870.06	21344
870.19	21690
870.32	21648
870.45	21770
870.58	21781
870.71	21884
870.84	21762
870.97	21713
871.1	21755
871.23	21873
871.36	21949
871.489	21778
871.619	21827
871.749	21960
871.879	22032
872.008	22063
872.138	21956
872.267	21987
872.397	21770
872.526	21736
872.656	21808
872.785	21751
872.915	21979
873.044	21979
873.173	22013
873.303	21998
873.432	21903
873.561	22074
873.69	22013
873.819	21987
873.948	22002
874.077	22029
874.206	21755
874.335	21819
874.464	21994
874.593	22223
874.722	22067
874.851	22246
874.979	22116
875.108	22230
875.237	22093
875.365	22036
875.494	22169
875.623	22268
875.751	22128
875.88	22242
876.008	22337
876.136	22318
876.265	22527
876.393	22637
876.521	22641
876.65	22580
876.778	22622
876.906	22535
877.034	22379
877.162	22573
877.29	22424
877.418	22618
877.546	22550
877.674	22504
877.802	22580
877.93	22443
878.058	22325
878.185	22447
878.313	22451
878.441	22428
878.568	22322
878.696	22538
878.824	22508
878.951	22577
879.079	22634
879.206	22763
879.333	22717
879.461	22459
879.588	22649
879.715	22683
879.842	22744
879.97	22516
880.097	22382
880.224	22322
880.351	22421
880.478	22462
880.605	22276
880.732	22287
880.859	22573
880.986	22424
881.112	22329
881.239	22268
881.366	22105
881.493	22059
881.619	21945
881.746	21975
881.872	22002
881.999	21876
882.125	21876
882.252	21895
882.378	21975
882.505	22002
882.631	21876
882.757	21701
882.883	21675
883.01	21671
883.136	21610
883.262	21572
883.388	21534
883.514	21667
883.64	21660
883.766	21454
883.892	21450
884.018	21405
884.143	21564
884.269	21660
884.395	21450
884.52	21211
884.646	21294
884.772	21260
884.897	21150
885.023	21226
885.148	21416
885.274	21424
885.399	21393
885.524	21317
885.65	21332
885.775	21294
885.9	21325
886.025	21359
886.15	21397
886.275	21096
886.4	21184
886.525	21207
886.65	21161
886.775	21173
886.9	21378
887.025	21466
887.149	21279
887.274	21020
887.399	21001
887.523	20963
887.648	21058
887.773	20876
887.897	21116
888.021	21192
888.146	21009
888.27	21036
888.395	21112
888.519	21005
888.643	21043
888.767	21154
888.891	20830
889.015	20815
889.139	20948
889.263	20849
889.387	20921
889.511	20883
889.635	20990
889.759	20762
889.883	20762
890.006	20918
890.13	20933
890.254	20842
890.377	20716
890.501	20686
890.624	20568
890.748	20632
890.871	20488
890.995	20366
891.118	20309
891.241	20450
891.364	20396
891.488	20678
891.611	20298
891.734	20358
891.857	20385
891.98	20511
892.103	20461
892.226	20332
892.349	20339
892.471	20214
892.594	20244
892.717	20282
892.839	20336
892.962	20267
893.085	20370
893.207	20393
893.33	20153
893.452	20271
893.575	20347
893.697	20328
893.819	20473
893.941	20415
894.064	20454
894.186	20332
894.308	20168
894.43	20374
894.552	20457
894.674	20358
894.796	20305
894.918	20343
895.04	20206
895.161	20366
895.283	20381
895.405	20134
895.526	20237
895.648	20164
895.769	20343
895.891	20427
896.012	20366
896.134	20438
896.255	20191
896.376	20298
896.498	20168
896.619	20351
896.74	20374
896.861	20351
896.982	20678
897.103	20743
897.224	20579
897.345	20457
897.466	20503
897.587	20632
897.708	20526
897.828	20537
897.949	20541
898.07	20362
898.19	20480
898.311	20552
898.431	20473
898.552	20412
898.672	20549
898.792	20579
898.913	20484
899.033	20419
899.153	20305
899.273	20157
899.393	20294
899.513	20267
899.633	20282
899.753	20366
899.873	20320
899.993	20225
900.113	20206
900.232	20157
900.352	20157
900.472	20100
900.591	20020
900.711	20046
900.83	19955
900.95	20199
901.069	20126
901.189	19898
901.308	19613
901.427	19540
901.546	19506
901.665	19632
901.784	19590
901.904	19510
902.023	19331
902.141	19255
902.26	19126
902.379	19209
902.498	19183
902.617	19057
902.735	19175
902.854	19069
902.973	18996
903.091	18867
903.21	18894
903.328	18692
903.446	18658
903.565	18582
903.683	18642
903.801	18658
903.919	18574
904.038	18574
904.156	18441
904.274	18460
904.392	18376
904.51	18327
904.627	18369
904.745	18399
904.863	18410
904.981	18167
905.098	18045
905.216	18060
905.334	17996
905.451	17950
905.569	18076
905.686	18030
905.803	18106
905.921	17802
906.038	17958
906.155	17771
906.272	17687
906.389	17764
906.506	17638
906.623	17608
906.74	17608
906.857	17539
906.974	17558
907.091	17573
907.208	17752
907.324	17600
907.441	17391
907.557	17395
907.674	17265
907.79	17235
907.907	17356
908.023	17235
908.139	17303
908.256	17242
908.372	17223
908.488	17056
908.604	17060
908.72	16908
908.836	17071
908.952	16911
909.068	17056
909.184	17159
909.3	16976
909.415	17003
909.531	17067
909.647	16858
909.762	16786
909.878	16755
909.993	16694
910.108	16713
910.224	16687
910.339	16611
910.454	16577
910.57	16478
910.685	16405
910.8	16725
910.915	16634
911.03	16485
911.145	16421
911.259	16295
911.374	16219
911.489	16223
911.604	16128
911.718	16063
911.833	16010
911.947	16002
912.062	15766
912.176	16013
912.291	16040
912.405	16032
912.519	16204
912.633	16261
912.748	16006
912.862	15994
912.976	15835
913.09	15743
913.204	15778
913.318	15793
913.431	15994
913.545	15930
913.659	15998
913.772	15819
913.886	15751
914	15637
914.113	15747
914.226	15736
914.34	15717
914.453	15568
914.566	15606
914.68	15496
914.793	15492
914.906	15310
915.019	15329
915.132	15207
915.245	15272
915.358	15268
915.47	15351
915.583	15310
915.696	15306
915.809	15397
915.921	15450
916.034	15142
916.146	15135
916.259	15180
916.371	15233
916.483	15161
916.595	15104
916.708	15165
916.82	15093
916.932	15036
917.044	15081
917.156	15058
917.268	14937
917.38	15005
917.491	14925
917.603	14918
917.715	14933
917.826	14967
917.938	14777
918.049	14739
918.161	14815
918.272	14853
918.384	14963
918.495	14868
918.606	14727
918.717	14545
918.828	14636
918.939	14800
919.05	14480
919.161	14689
919.272	14431
919.383	14495
919.494	14644
919.604	14792
919.715	14712
919.826	14629
919.936	14492
920.047	14606
920.157	14659
920.267	14807
920.378	14629
920.488	14564
920.598	14769
920.708	14792
920.818	14689
920.928	14640
921.038	14914
921.148	14796
921.258	14530
921.368	14461
921.477	14450
921.587	14381
921.697	14183
921.806	14370
921.916	14305
922.025	14073
922.134	13970
922.244	13917
922.353	14039
922.462	13868
922.571	13784
922.68	13696
922.789	13662
922.898	13601
923.007	13548
923.116	13624
923.224	13575
923.333	13556
923.442	13521
923.55	13400
923.659	13472
923.767	13521
923.876	13343
923.984	13460
924.092	13407
924.201	13373
924.309	13460
924.417	13194
924.525	13266
924.633	13362
924.741	14016
924.849	13076
924.956	13335
925.064	13133
925.172	13038
925.279	13080
925.387	13175
925.494	13053
925.602	13145
925.709	13042
925.816	12863
925.924	12958
926.031	13027
926.138	12966
926.245	13042
926.352	12867
926.459	13012
926.566	13088
926.673	12882
926.779	12806
926.886	12844
926.993	12669
927.099	12566
927.206	12532
927.312	12521
927.419	12631
927.525	12604
927.631	12681
927.737	12467
927.843	12441
927.95	12346
928.056	12467
928.162	12429
928.267	12559
928.373	13091
928.479	12490
928.585	12235
928.69	12395
928.796	12479
928.901	12300
929.007	12163
929.112	12311
929.218	12270
929.323	12121
929.428	12152
929.533	12262
929.638	12068
929.743	12083
929.848	12117
929.953	12110
930.058	12030
930.163	11916
930.267	11771
930.372	11999
930.477	11684
930.581	12007
930.685	11821
930.79	11779
930.894	11836
930.998	11668
931.103	11771
931.207	11512
931.311	11482
931.415	11356
931.519	11109
931.623	11102
