Data from test_V78500241_2217.txt Node
Date: Fri Mar 25 15:25:17 CST 2022
User: usil
Spectrometer: V785-0024
Trigger mode: 0
Integration Time (sec): 4.000000E-1
Scans to average: 1
Nonlinearity correction enabled: false
Boxcar width: 0
Storing dark spectrum: false
XAxis mode: Wavelengths
Number of Pixels in Spectrum: 1024
>>>>>Begin Spectral Data<<<<<
801.071	27869
801.214	27610
801.356	27515
801.499	27450
801.641	27401
801.783	27355
801.926	27504
802.068	27325
802.211	27256
802.353	27272
802.496	27051
802.638	27009
802.78	27036
802.923	27020
803.065	26940
803.208	26883
803.35	27020
803.492	27116
803.635	27165
803.777	27077
803.919	27058
804.061	27530
804.204	27291
804.346	27169
804.488	27173
804.63	27237
804.773	27176
804.915	27275
805.057	27291
805.199	27199
805.341	27298
805.483	27412
805.626	27313
805.768	27218
805.91	27317
806.052	27237
806.194	27188
806.336	27515
806.478	27359
806.62	27420
806.762	27416
806.904	27709
807.046	27713
807.188	27648
807.33	27694
807.472	27827
807.614	27641
807.756	27755
807.898	27667
808.04	27454
808.182	27614
808.324	27671
808.465	27709
808.607	27793
808.749	28070
808.891	27892
809.033	27956
809.174	28150
809.316	27964
809.458	27888
809.6	28006
809.741	27956
809.883	28090
810.025	28223
810.166	28166
810.308	28223
810.45	28234
810.591	28112
810.733	28070
810.875	28074
811.016	27861
811.158	27816
811.299	27987
811.441	28010
811.582	28048
811.724	27888
811.865	27964
812.007	27903
812.148	27964
812.29	27994
812.431	28166
812.573	28109
812.714	28272
812.855	28485
812.997	28474
813.138	28660
813.279	28538
813.421	28611
813.562	28379
813.703	28207
813.845	28131
813.986	27842
814.127	27888
814.268	27568
814.41	27606
814.551	27644
814.692	27610
814.833	27504
814.974	27724
815.115	27652
815.256	27496
815.397	27762
815.539	27511
815.68	27393
815.821	27382
815.962	27458
816.103	27313
816.244	27351
816.385	27135
816.526	27291
816.666	27013
816.807	26979
816.948	26979
817.089	27070
817.23	26910
817.371	26906
817.512	26868
817.653	26963
817.793	26853
817.934	26868
818.075	26887
818.216	26986
818.356	26967
818.497	26895
818.638	26670
818.778	26579
818.919	26724
819.06	26689
819.2	26762
819.341	26819
819.481	26788
819.622	27199
819.762	27275
819.903	27070
820.043	26990
820.184	27108
820.324	27058
820.465	27093
820.605	27123
820.746	27036
820.886	26914
821.026	27051
821.167	27047
821.307	27131
821.447	26895
821.588	26819
821.728	26674
821.868	26492
822.008	26294
822.149	26358
822.289	26271
822.429	26103
822.569	26065
822.709	26161
822.849	26031
822.99	26043
823.13	25871
823.27	25906
823.41	25655
823.55	25742
823.69	25791
823.83	25666
823.97	25670
824.11	25449
824.25	25445
824.389	25464
824.529	25563
824.669	25658
824.809	25727
824.949	25639
825.089	25677
825.228	25499
825.368	25358
825.508	25400
825.648	25400
825.787	25518
825.927	25453
826.067	25343
826.206	25403
826.346	25438
826.485	25346
826.625	25396
826.765	25537
826.904	25457
827.044	25042
827.183	25164
827.323	24970
827.462	25118
827.601	25012
827.741	25091
827.88	25110
828.02	24973
828.159	25080
828.298	25107
828.437	25103
828.577	25072
828.716	25133
828.855	24951
828.994	24913
829.134	24837
829.273	24764
829.412	24772
829.551	24772
829.69	24665
829.829	24844
829.968	24901
830.107	24958
830.246	24833
830.385	24905
830.524	24749
830.663	24620
830.802	24525
830.941	24388
831.08	24277
831.219	24464
831.357	24448
831.496	24673
831.635	24327
831.774	24285
831.913	24380
832.051	24201
832.19	24201
832.329	24296
832.467	23931
832.606	24022
832.744	24091
832.883	24038
833.022	23973
833.16	24007
833.299	24266
833.437	24213
833.576	24095
833.714	24140
833.852	24194
833.991	24152
834.129	24296
834.267	24106
834.406	24239
834.544	24125
834.682	24254
834.821	24079
834.959	24262
835.097	24049
835.235	24155
835.373	24136
835.511	24038
835.65	24011
835.788	23980
835.926	23916
836.064	23767
836.202	23771
836.34	24041
836.478	23946
836.615	24026
836.753	23984
836.891	23992
837.029	24003
837.167	23824
837.305	23859
837.443	23836
837.58	23786
837.718	23897
837.856	23794
837.993	23805
838.131	23783
838.269	23741
838.406	23604
838.544	23642
838.681	23482
838.819	23391
838.956	23356
839.094	23242
839.231	23193
839.369	23463
839.506	23680
839.643	23501
839.781	23269
839.918	23143
840.055	23254
840.193	23151
840.33	23174
840.467	23140
840.604	23216
840.742	23417
840.879	23117
841.016	23018
841.153	23143
841.29	23220
841.427	23048
841.564	23273
841.701	23128
841.838	23147
841.975	23041
842.112	23003
842.249	23010
842.385	22946
842.522	23189
842.659	23014
842.796	23041
842.933	22805
843.069	22854
843.206	22873
843.343	23037
843.479	22885
843.616	22927
843.752	22649
843.889	22774
844.025	22850
844.162	22702
844.298	22767
844.435	22588
844.571	22668
844.708	22889
844.844	22831
844.98	22896
845.117	22786
845.253	22763
845.389	22557
845.525	22565
845.661	22573
845.798	22607
845.934	22481
846.07	22413
846.206	22386
846.342	22580
846.478	22500
846.614	22280
846.75	22067
846.886	22211
847.022	22200
847.158	22272
847.294	22226
847.429	22226
847.565	22116
847.701	22337
847.837	21930
847.972	21838
848.108	21987
848.244	22025
848.379	21766
848.515	21667
848.65	21720
848.786	21781
848.921	21759
849.057	21831
849.192	21797
849.328	21812
849.463	21819
849.598	21743
849.734	21599
849.869	21652
850.004	21405
850.14	21504
850.275	21538
850.41	21496
850.545	21447
850.68	21420
850.815	21481
850.95	21485
851.085	21789
851.22	21580
851.355	21492
851.49	21469
851.625	21466
851.76	21515
851.895	21393
852.03	21382
852.165	21633
852.299	21549
852.434	21622
852.569	21557
852.703	21530
852.838	21686
852.973	21675
853.107	21694
853.242	21454
853.376	21389
853.511	21268
853.645	21272
853.78	21511
853.914	21431
854.048	21370
854.183	21332
854.317	21287
854.451	21462
854.585	21336
854.72	21264
854.854	21450
854.988	21321
855.122	21370
855.256	21131
855.39	21389
855.524	21298
855.658	21443
855.792	21389
855.926	21363
856.06	21283
856.194	21321
856.327	21302
856.461	21233
856.595	21218
856.729	21370
856.862	21397
856.996	21401
857.13	21386
857.263	21526
857.397	21408
857.53	21249
857.664	21420
857.797	21367
857.931	21424
858.064	21294
858.197	21431
858.331	21287
858.464	21298
858.597	21176
858.731	21306
858.864	21214
858.997	21359
859.13	21405
859.263	21370
859.396	21500
859.529	21283
859.662	21348
859.795	21291
859.928	21370
860.061	21614
860.194	21561
860.327	21496
860.46	21317
860.592	21492
860.725	21477
860.858	21420
860.99	21287
861.123	21184
861.256	21450
861.388	21317
861.521	22059
861.653	21218
861.786	21096
861.918	21142
862.05	21154
862.183	21203
862.315	21344
862.447	21393
862.58	21252
862.712	20960
862.844	21001
862.976	21188
863.108	21116
863.24	21450
863.372	21074
863.504	21039
863.636	21058
863.768	20994
863.9	21173
864.032	20956
864.164	21024
864.296	21096
864.428	21180
864.559	21142
864.691	21123
864.823	20990
864.954	21123
865.086	21013
865.217	20986
865.349	20815
865.48	20899
865.612	20998
865.743	21161
865.875	21013
866.006	20838
866.137	20944
866.269	20849
866.4	21047
866.531	20895
866.662	20807
866.793	20895
866.924	20967
867.055	20902
867.186	20906
867.317	20891
867.448	20796
867.579	20819
867.71	20819
867.841	20823
867.972	20887
868.103	20868
868.233	20948
868.364	20921
868.495	20941
868.625	21066
868.756	21165
868.886	21028
869.017	20986
869.147	21169
869.278	21203
869.408	21112
869.539	21146
869.669	21188
869.799	21214
869.929	21150
870.06	21237
870.19	21469
870.32	21454
870.45	21526
870.58	21504
870.71	21492
870.84	21576
870.97	21367
871.1	21481
871.23	21717
871.36	21812
871.489	21652
871.619	21675
871.749	21747
871.879	21789
872.008	21823
872.138	21770
872.267	21694
872.397	21561
872.526	21526
872.656	21549
872.785	21530
872.915	21747
873.044	21831
873.173	21618
873.303	21835
873.432	21861
873.561	21846
873.69	21739
873.819	21686
873.948	21934
874.077	21690
874.206	21644
874.335	21770
874.464	21937
874.593	22029
874.722	22036
874.851	21983
874.979	21949
875.108	21869
875.237	21865
875.365	21869
875.494	21842
875.623	22131
875.751	21907
875.88	21987
876.008	22181
876.136	22158
876.265	22413
876.393	22508
876.521	22409
876.65	22424
876.778	22314
876.906	22325
877.034	22272
877.162	22352
877.29	22265
877.418	22314
877.546	22276
877.674	22265
877.802	22242
877.93	22394
878.058	22322
878.185	22284
878.313	22268
878.441	22261
878.568	22059
878.696	22234
878.824	22322
878.951	22455
879.079	22523
879.206	22451
879.333	22489
879.461	22329
879.588	22596
879.715	22485
879.842	22599
879.97	22284
880.097	21998
880.224	22147
880.351	22059
880.478	22150
880.605	22139
880.732	22082
880.859	22337
880.986	22147
881.112	22265
881.239	21960
881.366	22010
881.493	21759
881.619	21641
881.746	21694
881.872	21793
881.999	21610
882.125	21633
882.252	21637
882.378	21648
882.505	21774
882.631	21614
882.757	21348
882.883	21496
883.01	21405
883.136	21374
883.262	21272
883.388	21249
883.514	21416
883.64	21367
883.766	21306
883.892	21116
884.018	21222
884.143	21287
884.269	21405
884.395	21108
884.52	20998
884.646	21142
884.772	20906
884.897	20880
885.023	21135
885.148	21176
885.274	21184
885.399	21192
885.524	21089
885.65	21104
885.775	20994
885.9	21093
886.025	21074
886.15	21154
886.275	20948
886.4	20956
886.525	21062
886.65	20872
886.775	20925
886.9	21093
887.025	21188
887.149	21028
887.274	20857
887.399	20880
887.523	20788
887.648	20819
887.773	20800
887.897	20910
888.021	20697
888.146	20762
888.27	20849
888.395	20902
888.519	20811
888.643	20887
888.767	20796
888.891	20788
889.015	20598
889.139	20670
889.263	20598
889.387	20655
889.511	20800
889.635	20663
889.759	20533
889.883	20575
890.006	20670
890.13	20705
890.254	20571
890.377	20514
890.501	20461
890.624	20309
890.748	20374
890.871	20275
890.995	20134
891.118	20134
891.241	20259
891.364	20176
891.488	20256
891.611	20263
891.734	20305
891.857	20195
891.98	20195
892.103	20221
892.226	20172
892.349	20145
892.471	19947
892.594	20157
892.717	20012
892.839	20065
892.962	20157
893.085	20229
893.207	20035
893.33	20016
893.452	20020
893.575	20176
893.697	20100
893.819	20252
893.941	20336
894.064	20199
894.186	20065
894.308	19989
894.43	20172
894.552	20138
894.674	20320
894.796	20115
894.918	20111
895.04	20153
895.161	20168
895.283	20168
895.405	19974
895.526	20191
895.648	20134
895.769	20145
895.891	20187
896.012	20115
896.134	20183
896.255	20092
896.376	20130
896.498	20073
896.619	20176
896.74	20100
896.861	20240
896.982	20461
897.103	20716
897.224	20454
897.345	20427
897.466	20225
897.587	20256
897.708	20454
897.828	20347
897.949	20233
898.07	20084
898.19	20218
898.311	20347
898.431	20377
898.552	20332
898.672	20396
898.792	20393
898.913	20301
899.033	20206
899.153	20138
899.273	20035
899.393	20100
899.513	20069
899.633	20244
899.753	20111
899.873	19936
899.993	20069
900.113	20020
900.232	20164
900.352	19997
900.472	19898
900.591	19841
900.711	19860
900.83	19871
900.95	19978
901.069	20043
901.189	19731
901.308	19540
901.427	19422
901.546	19552
901.665	19426
901.784	19514
901.904	19289
902.023	19251
902.141	19091
902.26	19008
902.379	19133
902.498	18943
902.617	18985
902.735	18989
902.854	18970
902.973	18958
903.091	18555
903.21	18585
903.328	18677
903.446	18460
903.565	18369
903.683	18486
903.801	18270
903.919	18372
904.038	18296
904.156	18304
904.274	18285
904.392	18262
904.51	18266
904.627	18133
904.745	18224
904.863	18186
904.981	18019
905.098	17897
905.216	17927
905.334	17832
905.451	17912
905.569	17851
905.686	17897
905.803	17843
905.921	17577
906.038	17775
906.155	17543
906.272	17551
906.389	17585
906.506	17471
906.623	17486
906.74	17433
906.857	17318
906.974	17269
907.091	17467
907.208	17471
907.324	17372
907.441	17326
907.557	17162
907.674	17090
907.79	17006
907.907	17174
908.023	17212
908.139	17159
908.256	17037
908.372	16968
908.488	16915
908.604	16961
908.72	16892
908.836	16835
908.952	16820
909.068	16976
909.184	17052
909.3	16911
909.415	16843
909.531	16904
909.647	16554
909.762	16569
909.878	16508
909.993	16634
910.108	16584
910.224	16421
910.339	16470
910.454	16497
910.57	16375
910.685	16310
910.8	16611
910.915	16504
911.03	16280
911.145	16188
911.259	16150
911.374	16173
911.489	16044
911.604	16078
911.718	15808
911.833	15934
911.947	15835
912.062	15690
912.176	15873
912.291	15922
912.405	15915
912.519	16006
912.633	16143
912.748	15968
912.862	15899
912.976	15789
913.09	15686
913.204	15557
913.318	15701
913.431	15869
913.545	15812
913.659	15827
913.772	15656
913.886	15534
914	15443
914.113	15504
914.226	15549
914.34	15599
914.453	15420
914.566	15462
914.68	15431
914.793	15348
914.906	15256
915.019	15203
915.132	15062
915.245	15176
915.358	15081
915.47	15108
915.583	15169
915.696	15074
915.809	15256
915.921	15154
916.034	15154
916.146	14918
916.259	14921
916.371	15055
916.483	15089
916.595	14815
916.708	14963
916.82	14925
916.932	14956
917.044	14853
917.156	14853
917.268	14754
917.38	14701
917.491	14663
917.603	14765
917.715	14823
917.826	14804
917.938	14724
918.049	14632
918.161	14674
918.272	14842
918.384	14876
918.495	14640
918.606	14590
918.717	14446
918.828	14533
918.939	14545
919.05	14404
919.161	14552
919.272	14332
919.383	14324
919.494	14568
919.604	14632
919.715	14495
919.826	14492
919.936	14492
920.047	14590
920.157	14530
920.267	14663
920.378	14587
920.488	14469
920.598	14606
920.708	14857
920.818	14537
920.928	14568
921.038	14785
921.148	14689
921.258	14438
921.368	14298
921.477	14229
921.587	14176
921.697	14149
921.806	14126
921.916	14016
922.025	13928
922.134	13841
922.244	13791
922.353	13947
922.462	13875
922.571	13685
922.68	13567
922.789	13468
922.898	13502
923.007	13472
923.116	13449
923.224	13464
923.333	13422
923.442	13316
923.55	13285
923.659	13327
923.767	13449
923.876	13293
923.984	13278
924.092	13324
924.201	13335
924.309	13297
924.417	13183
924.525	13095
924.633	13225
924.741	13913
924.849	12947
924.956	13084
925.064	12909
925.172	13000
925.279	12981
925.387	12970
925.494	13023
925.602	13069
925.709	12932
925.816	12837
925.924	12844
926.031	12954
926.138	12844
926.245	12951
926.352	12840
926.459	12924
926.566	12958
926.673	12844
926.779	12711
926.886	12597
926.993	12540
927.099	12528
927.206	12460
927.312	12464
927.419	12502
927.525	12509
927.631	12570
927.737	12330
927.843	12338
927.95	12323
928.056	12205
928.162	12308
928.267	12388
928.373	12909
928.479	12422
928.585	12110
928.69	12281
928.796	12277
928.901	12175
929.007	12057
929.112	12239
929.218	12152
929.323	12091
929.428	12083
929.533	12064
929.638	11977
929.743	11980
929.848	12060
929.953	11988
930.058	11901
930.163	11726
930.267	11847
930.372	11893
930.477	11634
930.581	11847
930.685	11798
930.79	11665
930.894	11684
930.998	11661
931.103	11748
931.207	11379
931.311	11318
931.415	11181
931.519	10953
931.623	10995
