Data from test_V78500241_3330.txt Node
Date: Fri Mar 25 15:33:02 CST 2022
User: usil
Spectrometer: V785-0024
Trigger mode: 0
Integration Time (sec): 4.000000E-1
Scans to average: 1
Nonlinearity correction enabled: false
Boxcar width: 0
Storing dark spectrum: false
XAxis mode: Wavelengths
Number of Pixels in Spectrum: 1024
>>>>>Begin Spectral Data<<<<<
801.071	27389
801.214	27329
801.356	27123
801.499	27154
801.641	26918
801.783	27066
801.926	26925
802.068	27013
802.211	26823
802.353	26796
802.496	26579
802.638	26659
802.78	26655
802.923	26533
803.065	26366
803.208	26393
803.35	26560
803.492	26712
803.635	26731
803.777	26636
803.919	26773
804.061	27001
804.204	26727
804.346	26697
804.488	26609
804.63	26609
804.773	26609
804.915	26609
805.057	26834
805.199	26724
805.341	26746
805.483	26769
805.626	26686
805.768	26705
805.91	26655
806.052	26861
806.194	26659
806.336	27001
806.478	26739
806.62	26823
806.762	26956
806.904	27055
807.046	27218
807.188	27199
807.33	27245
807.472	27233
807.614	27291
807.756	27272
807.898	27100
808.04	26986
808.182	26929
808.324	27142
808.465	27055
808.607	27279
808.749	27427
808.891	27389
809.033	27641
809.174	27534
809.316	27249
809.458	27473
809.6	27386
809.741	27523
809.883	27644
810.025	27705
810.166	27595
810.308	27781
810.45	27553
810.591	27523
810.733	27534
810.875	27386
811.016	27332
811.158	27359
811.299	27481
811.441	27591
811.582	27542
811.724	27302
811.865	27260
812.007	27317
812.148	27435
812.29	27401
812.431	27553
812.573	27671
812.714	27865
812.855	27857
812.997	27983
813.138	27922
813.279	28055
813.421	27903
813.562	27918
813.703	27759
813.845	27652
813.986	27329
814.127	27135
814.268	26940
814.41	27096
814.551	26948
814.692	27165
814.833	27028
814.974	26933
815.115	27036
815.256	26883
815.397	26982
815.539	26849
815.68	26819
815.821	26876
815.962	26815
816.103	26754
816.244	26575
816.385	26579
816.526	26495
816.666	26393
816.807	26294
816.948	26423
817.089	26396
817.23	26385
817.371	26240
817.512	26412
817.653	26271
817.793	26317
817.934	26389
818.075	26309
818.216	26271
818.356	26161
818.497	26248
818.638	26050
818.778	26149
818.919	26096
819.06	26024
819.2	26191
819.341	26332
819.481	26248
819.622	26583
819.762	26697
819.903	26712
820.043	26415
820.184	26332
820.324	26381
820.465	26434
820.605	26355
820.746	26362
820.886	26065
821.026	26328
821.167	26339
821.307	26412
821.447	26157
821.588	26134
821.728	26001
821.868	25951
822.008	25833
822.149	25670
822.289	25811
822.429	25407
822.569	25495
822.709	25499
822.849	25381
822.99	25339
823.13	25301
823.27	25206
823.41	25198
823.55	25012
823.69	25065
823.83	25103
823.97	25019
824.11	24954
824.25	24856
824.389	24913
824.529	25053
824.669	24764
824.809	24935
824.949	24966
825.089	25061
825.228	24916
825.368	24749
825.508	24642
825.648	24642
825.787	24764
825.927	24981
826.067	24658
826.206	24738
826.346	24890
826.485	24852
826.625	24795
826.765	24905
826.904	24779
827.044	24669
827.183	24342
827.323	24555
827.462	24574
827.601	24532
827.741	24448
827.88	24517
828.02	24441
828.159	24376
828.298	24509
828.437	24486
828.577	24486
828.716	24540
828.855	24414
828.994	24220
829.134	24292
829.273	24182
829.412	24273
829.551	24057
829.69	24224
829.829	24304
829.968	24296
830.107	24372
830.246	24182
830.385	24144
830.524	24171
830.663	24117
830.802	23946
830.941	23897
831.08	23680
831.219	23996
831.357	23927
831.496	24060
831.635	23908
831.774	23665
831.913	23573
832.051	23608
832.19	23592
832.329	23638
832.467	23505
832.606	23516
832.744	23414
832.883	23528
833.022	23558
833.16	23535
833.299	23444
833.437	23433
833.576	23516
833.714	23570
833.852	23608
833.991	23600
834.129	23714
834.267	23634
834.406	23566
834.544	23649
834.682	23577
834.821	23566
834.959	23733
835.097	23509
835.235	23589
835.373	23493
835.511	23573
835.65	23433
835.788	23425
835.926	23406
836.064	23292
836.202	23246
836.34	23528
836.478	23573
836.615	23562
836.753	23341
836.891	23387
837.029	23440
837.167	23379
837.305	23436
837.443	23197
837.58	23288
837.718	23349
837.856	23254
837.993	23231
838.131	23231
838.269	23105
838.406	23041
838.544	23025
838.681	23098
838.819	23003
838.956	22656
839.094	22729
839.231	22911
839.369	22980
839.506	23147
839.643	22987
839.781	22790
839.918	22630
840.055	22668
840.193	22755
840.33	22702
840.467	22702
840.604	22797
840.742	23064
840.879	22599
841.016	22645
841.153	22603
841.29	22736
841.427	22740
841.564	22786
841.701	22660
841.838	22687
841.975	22474
842.112	22668
842.249	22550
842.385	22489
842.522	22698
842.659	22424
842.796	22394
842.933	22485
843.069	22390
843.206	22379
843.343	22535
843.479	22451
843.616	22382
843.752	22276
843.889	22234
844.025	22265
844.162	22185
844.298	22394
844.435	22192
844.571	22051
844.708	22192
844.844	22394
844.98	22344
845.117	22356
845.253	22105
845.389	22048
845.525	22093
845.661	22177
845.798	22010
845.934	21983
846.07	21899
846.206	21956
846.342	21915
846.478	21892
846.614	21622
846.75	21545
846.886	21781
847.022	21656
847.158	21679
847.294	21625
847.429	21759
847.565	21603
847.701	21892
847.837	21481
847.972	21218
848.108	21504
848.244	21519
848.379	21359
848.515	21100
848.65	21226
848.786	21310
848.921	21245
849.057	21329
849.192	21283
849.328	21317
849.463	21302
849.598	21214
849.734	21146
849.869	21024
850.004	21116
850.14	21001
850.275	21119
850.41	20952
850.545	20986
850.68	21058
850.815	21013
850.95	21100
851.085	21291
851.22	21077
851.355	21131
851.49	20960
851.625	21020
851.76	20910
851.895	20979
852.03	20902
852.165	21074
852.299	21150
852.434	21131
852.569	21195
852.703	21066
852.838	21077
852.973	21146
853.107	21108
853.242	20948
853.376	20880
853.511	20758
853.645	20857
853.78	20990
853.914	20807
854.048	20724
854.183	20849
854.317	20849
854.451	20971
854.585	20880
854.72	20876
854.854	20982
854.988	20773
855.122	20963
855.256	20651
855.39	20925
855.524	20963
855.658	20948
855.792	20956
855.926	20777
856.06	20895
856.194	20887
856.327	20845
856.461	20830
856.595	20800
856.729	20914
856.862	20921
856.996	20834
857.13	20944
857.263	20880
857.397	20952
857.53	20838
857.664	20834
857.797	20887
857.931	20914
858.064	20910
858.197	20891
858.331	20880
858.464	20758
858.597	20746
858.731	20796
858.864	20819
858.997	20758
859.13	20902
859.263	20845
859.396	20925
859.529	20834
859.662	20876
859.795	20788
859.928	20819
860.061	21104
860.194	21211
860.327	20910
860.46	20773
860.592	20971
860.725	21039
860.858	20990
860.99	20796
861.123	20754
861.256	20838
861.388	20887
861.521	21553
861.653	20781
861.786	20663
861.918	20689
862.05	20712
862.183	20807
862.315	20807
862.447	20857
862.58	20762
862.712	20587
862.844	20522
862.976	20648
863.108	20648
863.24	21100
863.372	20476
863.504	20655
863.636	20590
863.768	20746
863.9	20454
864.032	20450
864.164	20495
864.296	20590
864.428	20689
864.559	20613
864.691	20701
864.823	20655
864.954	20568
865.086	20514
865.217	20480
865.349	20328
865.48	20374
865.612	20564
865.743	20640
865.875	20564
866.006	20476
866.137	20545
866.269	20476
866.4	20514
866.531	20400
866.662	20351
866.793	20301
866.924	20423
867.055	20461
867.186	20492
867.317	20450
867.448	20263
867.579	20518
867.71	20328
867.841	20339
867.972	20450
868.103	20347
868.233	20396
868.364	20438
868.495	20488
868.625	20636
868.756	20819
868.886	20526
869.017	20629
869.147	20769
869.278	20640
869.408	20659
869.539	20712
869.669	20754
869.799	20678
869.929	20861
870.06	20785
870.19	21017
870.32	21039
870.45	20982
870.58	21074
870.71	21207
870.84	21157
870.97	21005
871.1	20986
871.23	21249
871.36	21222
871.489	21173
871.619	21199
871.749	21264
871.879	21218
872.008	21382
872.138	21283
872.267	21279
872.397	21127
872.526	21047
872.656	21161
872.785	21161
872.915	21363
873.044	21291
873.173	21287
873.303	21256
873.432	21370
873.561	21272
873.69	21298
873.819	21241
873.948	21378
874.077	21287
874.206	21180
874.335	21180
874.464	21443
874.593	21686
874.722	21496
874.851	21526
874.979	21576
875.108	21561
875.237	21526
875.365	21382
875.494	21610
875.623	21618
875.751	21519
875.88	21466
876.008	21709
876.136	21701
876.265	21895
876.393	22070
876.521	22021
876.65	21994
876.778	21972
876.906	21888
877.034	21922
877.162	21846
877.29	21854
877.418	21888
877.546	21846
877.674	21880
877.802	21812
877.93	21922
878.058	21778
878.185	21793
878.313	21755
878.441	21892
878.568	21576
878.696	21774
878.824	21850
878.951	22067
879.079	22093
879.206	22295
879.333	22059
879.461	21964
879.588	22044
879.715	22006
879.842	22143
879.97	21888
880.097	21793
880.224	21663
880.351	21861
880.478	21682
880.605	21610
880.732	21766
880.859	21907
880.986	21732
881.112	21709
881.239	21644
881.366	21397
881.493	21363
881.619	21268
881.746	21336
881.872	21367
881.999	21195
882.125	21321
882.252	21363
882.378	21207
882.505	21408
882.631	21009
882.757	21180
882.883	21093
883.01	21013
883.136	21039
883.262	20941
883.388	20899
883.514	20975
883.64	21138
883.766	20952
883.892	20785
884.018	20758
884.143	20982
884.269	20998
884.395	20765
884.52	20518
884.646	20636
884.772	20511
884.897	20533
885.023	20609
885.148	20724
885.274	20773
885.399	20667
885.524	20560
885.65	20785
885.775	20583
885.9	20590
886.025	20648
886.15	20609
886.275	20552
886.4	20492
886.525	20636
886.65	20537
886.775	20511
886.9	20686
887.025	20830
887.149	20469
887.274	20427
887.399	20446
887.523	20404
887.648	20332
887.773	20377
887.897	20457
888.021	20431
888.146	20317
888.27	20488
888.395	20518
888.519	20355
888.643	20427
888.767	20381
888.891	20305
889.015	20195
889.139	20328
889.263	20244
889.387	20229
889.511	20305
889.635	20294
889.759	20229
889.883	20206
890.006	20218
890.13	20313
890.254	20134
890.377	20161
890.501	19921
890.624	19970
890.748	20111
890.871	19845
890.995	19738
891.118	19830
891.241	19830
891.364	19898
891.488	19837
891.611	19875
891.734	19860
891.857	19803
891.98	19746
892.103	19784
892.226	19761
892.349	19693
892.471	19559
892.594	19643
892.717	19681
892.839	19670
892.962	19693
893.085	19803
893.207	19788
893.33	19548
893.452	19628
893.575	19776
893.697	19723
893.819	19833
893.941	19906
894.064	19883
894.186	19662
894.308	19742
894.43	19704
894.552	19879
894.674	19784
894.796	19658
894.918	19708
895.04	19605
895.161	19757
895.283	19685
895.405	19643
895.526	19601
895.648	19757
895.769	19814
895.891	19723
896.012	19772
896.134	19776
896.255	19708
896.376	19674
896.498	19681
896.619	19666
896.74	19685
896.861	19727
896.982	20043
897.103	20187
897.224	19822
897.345	19902
897.466	19871
897.587	19921
897.708	20027
897.828	19978
897.949	19913
898.07	19734
898.19	19875
898.311	20020
898.431	19852
898.552	19978
898.672	20020
898.792	20100
898.913	19970
899.033	19837
899.153	19685
899.273	19571
899.393	19632
899.513	19677
899.633	19704
899.753	19712
899.873	19643
899.993	19708
900.113	19559
900.232	19586
900.352	19575
900.472	19525
900.591	19327
900.711	19514
900.83	19403
900.95	19590
901.069	19571
901.189	19339
901.308	19095
901.427	19084
901.546	19046
901.665	19118
901.784	19031
901.904	18901
902.023	18772
902.141	18642
902.26	18604
902.379	18570
902.498	18601
902.617	18475
902.735	18517
902.854	18551
902.973	18467
903.091	18178
903.21	18155
903.328	18300
903.446	18186
903.565	18015
903.683	18045
903.801	17847
903.919	18015
904.038	18038
904.156	17916
904.274	17927
904.392	17821
904.51	17764
904.627	17783
904.745	17977
904.863	17821
904.981	17532
905.098	17440
905.216	17490
905.334	17573
905.451	17490
905.569	17528
905.686	17471
905.803	17497
905.921	17227
906.038	17478
906.155	17254
906.272	17189
906.389	17181
906.506	16919
906.623	16984
906.74	17060
906.857	16965
906.974	16976
907.091	17174
907.208	17064
907.324	17117
907.441	16934
907.557	16733
907.674	16698
907.79	16752
907.907	16782
908.023	16679
908.139	16824
908.256	16748
908.372	16656
908.488	16550
908.604	16440
908.72	16440
908.836	16405
908.952	16481
909.068	16508
909.184	16580
909.3	16451
909.415	16474
909.531	16451
909.647	16219
909.762	16139
909.878	16051
909.993	16128
910.108	16093
910.224	16128
910.339	16139
910.454	16006
910.57	16090
910.685	15888
910.8	16185
910.915	16169
911.03	16013
911.145	15861
911.259	15816
911.374	15865
911.489	15694
911.604	15614
911.718	15545
911.833	15515
911.947	15389
912.062	15401
912.176	15492
912.291	15633
912.405	15564
912.519	15823
912.633	15698
912.748	15610
912.862	15587
912.976	15313
913.09	15264
913.204	15317
913.318	15374
913.431	15420
913.545	15382
913.659	15488
913.772	15329
913.886	15218
914	15123
914.113	15230
914.226	15359
914.34	15260
914.453	15066
914.566	15131
914.68	15070
914.793	15013
914.906	14804
915.019	14807
915.132	14739
915.245	14758
915.358	14811
915.47	14887
915.583	14838
915.696	14838
915.809	14876
915.921	14948
916.034	14716
916.146	14659
916.259	14693
916.371	14815
916.483	14712
916.595	14689
916.708	14602
916.82	14636
916.932	14583
917.044	14556
917.156	14549
917.268	14499
917.38	14446
917.491	14511
917.603	14499
917.715	14587
917.826	14434
917.938	14362
918.049	14305
918.161	14347
918.272	14590
918.384	14507
918.495	14381
918.606	14240
918.717	14153
918.828	14256
918.939	14244
919.05	14214
919.161	14252
919.272	14027
919.383	14107
919.494	14237
919.604	14332
919.715	14286
919.826	14153
919.936	14157
920.047	14187
920.157	14149
920.267	14324
920.378	14161
920.488	14172
920.598	14275
920.708	14530
920.818	14282
920.928	14301
921.038	14454
921.148	14431
921.258	14172
921.368	14012
921.477	13902
921.587	13917
921.697	13822
921.806	13822
921.916	13788
922.025	13605
922.134	13521
922.244	13563
922.353	13658
922.462	13388
922.571	13350
922.68	13232
922.789	13228
922.898	13228
923.007	13213
923.116	13251
923.224	13198
923.333	13175
923.442	13091
923.55	13088
923.659	13053
923.767	13137
923.876	13023
923.984	13141
924.092	12935
924.201	13099
924.309	12996
924.417	13031
924.525	12886
924.633	12837
924.741	13734
924.849	12616
924.956	12798
925.064	12726
925.172	12631
925.279	12715
925.387	12692
925.494	12696
925.602	12810
925.709	12688
925.816	12570
925.924	12601
926.031	12627
926.138	12528
926.245	12642
926.352	12574
926.459	12665
926.566	12646
926.673	12536
926.779	12391
926.886	12479
926.993	12251
927.099	12216
927.206	12095
927.312	12163
927.419	12247
927.525	12262
927.631	12216
927.737	12155
927.843	12083
927.95	12034
928.056	12022
928.162	12091
928.267	12060
928.373	12536
928.479	12140
928.585	11866
928.69	11988
928.796	12019
928.901	11931
929.007	11805
929.112	11882
929.218	11798
929.323	11836
929.428	11813
929.533	11908
929.638	11714
929.743	11691
929.848	11775
929.953	11726
930.058	11638
930.163	11471
930.267	11528
930.372	11539
930.477	11425
930.581	11680
930.685	11493
930.79	11356
930.894	11334
930.998	11379
931.103	11459
931.207	11181
931.311	11098
931.415	10995
931.519	10847
931.623	10774
