Data from test_V78500241_2108.txt Node
Date: Fri Mar 25 15:24:32 CST 2022
User: usil
Spectrometer: V785-0024
Trigger mode: 0
Integration Time (sec): 4.000000E-1
Scans to average: 1
Nonlinearity correction enabled: false
Boxcar width: 0
Storing dark spectrum: false
XAxis mode: Wavelengths
Number of Pixels in Spectrum: 1024
>>>>>Begin Spectral Data<<<<<
801.071	27899
801.214	27823
801.356	27549
801.499	27408
801.641	27355
801.783	27416
801.926	27504
802.068	27325
802.211	27222
802.353	27344
802.496	27074
802.638	26990
802.78	26910
802.923	26925
803.065	26960
803.208	27043
803.35	27173
803.492	27180
803.635	27222
803.777	27104
803.919	27184
804.061	27523
804.204	27256
804.346	27173
804.488	27081
804.63	27154
804.773	27108
804.915	27150
805.057	27283
805.199	27306
805.341	27252
805.483	27268
805.626	27298
805.768	27173
805.91	27420
806.052	27355
806.194	27249
806.336	27443
806.478	27344
806.62	27397
806.762	27504
806.904	27523
807.046	28025
807.188	27831
807.33	27804
807.472	27793
807.614	27751
807.756	27663
807.898	27625
808.04	27526
808.182	27435
808.324	27800
808.465	27675
808.607	27937
808.749	28025
808.891	28013
809.033	28032
809.174	28040
809.316	27873
809.458	28055
809.6	28090
809.741	28021
809.883	28128
810.025	28280
810.166	28386
810.308	28291
810.45	28166
810.591	28150
810.733	28120
810.875	27930
811.016	27892
811.158	27816
811.299	28032
811.441	28188
811.582	28086
811.724	27934
811.865	27998
812.007	27922
812.148	27960
812.29	28048
812.431	28230
812.573	28344
812.714	28519
812.855	28561
812.997	28637
813.138	28797
813.279	28649
813.421	28466
813.562	28504
813.703	28318
813.845	28303
813.986	27945
814.127	27762
814.268	27797
814.41	27728
814.551	27690
814.692	27804
814.833	27641
814.974	27633
815.115	27720
815.256	27580
815.397	27629
815.539	27671
815.68	27412
815.821	27397
815.962	27462
816.103	27412
816.244	27378
816.385	27275
816.526	27070
816.666	27081
816.807	26971
816.948	27074
817.089	27074
817.23	26792
817.371	26910
817.512	26937
817.653	26823
817.793	26887
817.934	27055
818.075	26933
818.216	26960
818.356	26880
818.497	26739
818.638	26716
818.778	26674
818.919	26731
819.06	26864
819.2	26960
819.341	26948
819.481	26963
819.622	27116
819.762	27226
819.903	27146
820.043	27154
820.184	27260
820.324	27020
820.465	27028
820.605	27013
820.746	26986
820.886	26998
821.026	27058
821.167	26921
821.307	27116
821.447	26948
821.588	26933
821.728	26640
821.868	26590
822.008	26537
822.149	26518
822.289	26469
822.429	26202
822.569	26039
822.709	26199
822.849	26005
822.99	25959
823.13	25902
823.27	25856
823.41	25666
823.55	25655
823.69	25689
823.83	25727
823.97	25616
824.11	25518
824.25	25575
824.389	25525
824.529	25559
824.669	25563
824.809	25571
824.949	25651
825.089	25658
825.228	25639
825.368	25441
825.508	25426
825.648	25358
825.787	25464
825.927	25544
826.067	25384
826.206	25411
826.346	25339
826.485	25388
826.625	25354
826.765	25567
826.904	25468
827.044	25202
827.183	25251
827.323	25046
827.462	25198
827.601	25183
827.741	25088
827.88	25148
828.02	25069
828.159	25103
828.298	25118
828.437	25103
828.577	25046
828.716	25171
828.855	25126
828.994	24935
829.134	24802
829.273	24665
829.412	24760
829.551	24814
829.69	24867
829.829	24920
829.968	24909
830.107	24681
830.246	24875
830.385	24768
830.524	24669
830.663	24661
830.802	24582
830.941	24441
831.08	24414
831.219	24509
831.357	24517
831.496	24661
831.635	24410
831.774	24315
831.913	24403
832.051	24174
832.19	24148
832.329	24369
832.467	24228
832.606	24098
832.744	24011
832.883	23961
833.022	24110
833.16	24171
833.299	24205
833.437	24140
833.576	24247
833.714	24125
833.852	24140
833.991	24205
834.129	24262
834.267	24239
834.406	24152
834.544	24182
834.682	24163
834.821	24140
834.959	24369
835.097	24102
835.235	24163
835.373	24194
835.511	24178
835.65	24079
835.788	23988
835.926	24045
836.064	23805
836.202	23863
836.34	23916
836.478	23988
836.615	23999
836.753	23958
836.891	24125
837.029	24045
837.167	24022
837.305	23908
837.443	23904
837.58	23726
837.718	23901
837.856	23897
837.993	23733
838.131	23942
838.269	23676
838.406	23699
838.544	23634
838.681	23448
838.819	23322
838.956	23303
839.094	23299
839.231	23303
839.369	23406
839.506	23699
839.643	23619
839.781	23353
839.918	23318
840.055	23197
840.193	23353
840.33	23280
840.467	23239
840.604	23265
840.742	23497
840.879	22972
841.016	23109
841.153	23166
841.29	23277
841.427	23102
841.564	23242
841.701	23197
841.838	23197
841.975	23052
842.112	23265
842.249	22984
842.385	22885
842.522	23006
842.659	23090
842.796	22968
842.933	23003
843.069	22999
843.206	22991
843.343	22965
843.479	22862
843.616	22965
843.752	22710
843.889	22812
844.025	22862
844.162	22710
844.298	22778
844.435	22763
844.571	22675
844.708	22797
844.844	22911
844.98	22896
845.117	22816
845.253	22740
845.389	22618
845.525	22805
845.661	22569
845.798	22436
845.934	22500
846.07	22371
846.206	22481
846.342	22626
846.478	22481
846.614	22234
846.75	22162
846.886	22204
847.022	22253
847.158	22188
847.294	22325
847.429	22200
847.565	22120
847.701	22478
847.837	21922
847.972	21987
848.108	21983
848.244	22090
848.379	21888
848.515	21747
848.65	21766
848.786	21747
848.921	21869
849.057	21884
849.192	21869
849.328	21819
849.463	21751
849.598	21679
849.734	21644
849.869	21606
850.004	21633
850.14	21447
850.275	21500
850.41	21587
850.545	21507
850.68	21576
850.815	21606
850.95	21450
851.085	21812
851.22	21637
851.355	21625
851.49	21618
851.625	21504
851.76	21549
851.895	21519
852.03	21397
852.165	21591
852.299	21583
852.434	21675
852.569	21534
852.703	21679
852.838	21591
852.973	21667
853.107	21618
853.242	21500
853.376	21477
853.511	21264
853.645	21374
853.78	21519
853.914	21431
854.048	21291
854.183	21268
854.317	21336
854.451	21507
854.585	21504
854.72	21405
854.854	21416
854.988	21344
855.122	21336
855.256	21310
855.39	21325
855.524	21454
855.658	21367
855.792	21313
855.926	21416
856.06	21355
856.194	21477
856.327	21359
856.461	21317
856.595	21325
856.729	21412
856.862	21378
856.996	21466
857.13	21435
857.263	21568
857.397	21473
857.53	21447
857.664	21344
857.797	21401
857.931	21359
858.064	21245
858.197	21606
858.331	21313
858.464	21363
858.597	21233
858.731	21264
858.864	21283
858.997	21408
859.13	21374
859.263	21389
859.396	21481
859.529	21340
859.662	21378
859.795	21256
859.928	21389
860.061	21481
860.194	21477
860.327	21420
860.46	21313
860.592	21542
860.725	21450
860.858	21504
860.99	21260
861.123	21302
861.256	21370
861.388	21325
861.521	22207
861.653	21264
861.786	21173
861.918	21173
862.05	21287
862.183	21325
862.315	21298
862.447	21363
862.58	21397
862.712	21169
862.844	21093
862.976	21100
863.108	21154
863.24	21523
863.372	21055
863.504	21123
863.636	21112
863.768	21157
863.9	21169
864.032	21085
864.164	20986
864.296	21184
864.428	21188
864.559	21131
864.691	21017
864.823	21077
864.954	21009
865.086	20982
865.217	20990
865.349	20937
865.48	20891
865.612	20986
865.743	21176
865.875	20994
866.006	20868
866.137	20998
866.269	20925
866.4	20902
866.531	20864
866.662	20834
866.793	20876
866.924	20849
867.055	21047
867.186	20838
867.317	20956
867.448	20811
867.579	20891
867.71	20826
867.841	20880
867.972	20944
868.103	20880
868.233	21001
868.364	20864
868.495	20967
868.625	21203
868.756	21222
868.886	21039
869.017	21135
869.147	21351
869.278	21374
869.408	21096
869.539	21093
869.669	21283
869.799	21230
869.929	21264
870.06	21374
870.19	21454
870.32	21386
870.45	21454
870.58	21458
870.71	21553
870.84	21709
870.97	21564
871.1	21496
871.23	21618
871.36	21694
871.489	21564
871.619	21671
871.749	21686
871.879	21873
872.008	21831
872.138	21717
872.267	21728
872.397	21793
872.526	21462
872.656	21739
872.785	21549
872.915	21747
873.044	21915
873.173	21755
873.303	21823
873.432	21907
873.561	21907
873.69	21766
873.819	21751
873.948	21728
874.077	21724
874.206	21785
874.335	21770
874.464	21907
874.593	21926
874.722	21907
874.851	22109
874.979	22112
875.108	22086
875.237	21880
875.365	21895
875.494	21888
875.623	22105
875.751	21941
875.88	21949
876.008	22067
876.136	22272
876.265	22371
876.393	22561
876.521	22413
876.65	22516
876.778	22428
876.906	22226
877.034	22405
877.162	22390
877.29	22295
877.418	22325
877.546	22318
877.674	22287
877.802	22310
877.93	22447
878.058	22481
878.185	22112
878.313	22169
878.441	22344
878.568	22166
878.696	22257
878.824	22310
878.951	22455
879.079	22557
879.206	22615
879.333	22489
879.461	22238
879.588	22409
879.715	22443
879.842	22611
879.97	22428
880.097	22158
880.224	22067
880.351	22310
880.478	22185
880.605	22086
880.732	22143
880.859	22405
880.986	22284
881.112	22169
881.239	22162
881.366	21797
881.493	21781
881.619	21781
881.746	21743
881.872	21808
881.999	21732
882.125	21583
882.252	21759
882.378	21732
882.505	21789
882.631	21606
882.757	21488
882.883	21545
883.01	21420
883.136	21359
883.262	21344
883.388	21344
883.514	21363
883.64	21386
883.766	21389
883.892	21195
884.018	21329
884.143	21340
884.269	21454
884.395	21135
884.52	21131
884.646	21138
884.772	21070
884.897	21028
885.023	20998
885.148	21119
885.274	21279
885.399	21157
885.524	21112
885.65	21093
885.775	21013
885.9	20971
886.025	21142
886.15	21093
886.275	20872
886.4	20872
886.525	21077
886.65	20971
886.775	20971
886.9	21074
887.025	21287
887.149	21028
887.274	20834
887.399	20868
887.523	20845
887.648	20724
887.773	20781
887.897	20902
888.021	20918
888.146	20739
888.27	20693
888.395	20960
888.519	20880
888.643	20826
888.767	20914
888.891	20811
889.015	20625
889.139	20682
889.263	20564
889.387	20667
889.511	20754
889.635	20750
889.759	20484
889.883	20606
890.006	20739
890.13	20724
890.254	20693
890.377	20587
890.501	20366
890.624	20400
890.748	20442
890.871	20298
890.995	20191
891.118	20119
891.241	20240
891.364	20278
891.488	20259
891.611	20199
891.734	20225
891.857	20351
891.98	20248
892.103	20161
892.226	20252
892.349	20126
892.471	19955
892.594	20202
892.717	20100
892.839	20115
892.962	20176
893.085	20263
893.207	20100
893.33	20024
893.452	20073
893.575	20134
893.697	20157
893.819	20221
893.941	20301
894.064	20248
894.186	20024
894.308	19974
894.43	20240
894.552	20240
894.674	20191
894.796	19947
894.918	20157
895.04	20134
895.161	20138
895.283	20142
895.405	20008
895.526	20088
895.648	20084
895.769	20084
895.891	20149
896.012	20153
896.134	20221
896.255	20005
896.376	20103
896.498	19982
896.619	20142
896.74	20035
896.861	20149
896.982	20423
897.103	20442
897.224	20377
897.345	20298
897.466	20210
897.587	20191
897.708	20473
897.828	20385
897.949	20339
898.07	20195
898.19	20332
898.311	20400
898.431	20244
898.552	20278
898.672	20412
898.792	20381
898.913	20278
899.033	20225
899.153	20145
899.273	20031
899.393	20073
899.513	20180
899.633	20111
899.753	20164
899.873	20001
899.993	20107
900.113	19959
900.232	20027
900.352	20031
900.472	19963
900.591	19799
900.711	19830
900.83	19780
900.95	19940
901.069	19871
901.189	19723
901.308	19529
901.427	19441
901.546	19476
901.665	19464
901.784	19521
901.904	19346
902.023	19187
902.141	18989
902.26	18935
902.379	19061
902.498	18962
902.617	18962
902.735	18795
902.854	18924
902.973	18833
903.091	18707
903.21	18563
903.328	18620
903.446	18441
903.565	18361
903.683	18532
903.801	18277
903.919	18498
904.038	18346
904.156	18159
904.274	18235
904.392	18186
904.51	18247
904.627	18095
904.745	18285
904.863	18270
904.981	17961
905.098	17939
905.216	17946
905.334	17855
905.451	17809
905.569	17790
905.686	17908
905.803	17767
905.921	17619
906.038	17760
906.155	17642
906.272	17577
906.389	17627
906.506	17440
906.623	17364
906.74	17478
906.857	17345
906.974	17303
907.091	17421
907.208	17509
907.324	17349
907.441	17311
907.557	17189
907.674	17071
907.79	17018
907.907	17143
908.023	17197
908.139	17204
908.256	17048
908.372	17029
908.488	17052
908.604	16820
908.72	16809
908.836	16790
908.952	16862
909.068	16847
909.184	16968
909.3	16904
909.415	16889
909.531	16835
909.647	16588
909.762	16436
909.878	16542
909.993	16596
910.108	16428
910.224	16424
910.339	16470
910.454	16280
910.57	16360
910.685	16306
910.8	16493
910.915	16493
911.03	16402
911.145	16166
911.259	16078
911.374	16120
911.489	16032
911.604	16040
911.718	15873
911.833	15903
911.947	15800
912.062	15747
912.176	15804
912.291	15808
912.405	15819
912.519	16021
912.633	16101
912.748	15907
912.862	15804
912.976	15770
913.09	15530
913.204	15545
913.318	15797
913.431	15793
913.545	15679
913.659	15751
913.772	15717
913.886	15603
914	15431
914.113	15625
914.226	15595
914.34	15599
914.453	15397
914.566	15469
914.68	15359
914.793	15272
914.906	15154
915.019	15127
915.132	14944
915.245	14982
915.358	15085
915.47	15127
915.583	15104
915.696	15104
915.809	15214
915.921	15268
916.034	14979
916.146	15009
916.259	14975
916.371	15146
916.483	14963
916.595	14971
916.708	14921
916.82	14845
916.932	14819
917.044	14948
917.156	14861
917.268	14746
917.38	14762
917.491	14667
917.603	14811
917.715	14861
917.826	14834
917.938	14746
918.049	14568
918.161	14716
918.272	14815
918.384	14906
918.495	14686
918.606	14575
918.717	14530
918.828	14480
918.939	14575
919.05	14381
919.161	14556
919.272	14305
919.383	14446
919.494	14503
919.604	14667
919.715	14476
919.826	14347
919.936	14492
920.047	14545
920.157	14450
920.267	14682
920.378	14514
920.488	14339
920.598	14568
920.708	14811
920.818	14621
920.928	14571
921.038	14807
921.148	14693
921.258	14492
921.368	14358
921.477	14275
921.587	14202
921.697	13974
921.806	14202
921.916	14035
922.025	13959
922.134	13871
922.244	13757
922.353	13883
922.462	13738
922.571	13655
922.68	13552
922.789	13460
922.898	13491
923.007	13411
923.116	13506
923.224	13480
923.333	13453
923.442	13316
923.55	13339
923.659	13316
923.767	13343
923.876	13221
923.984	13392
924.092	13179
924.201	13190
924.309	13244
924.417	13194
924.525	13179
924.633	13164
924.741	13928
924.849	12985
924.956	13129
925.064	12947
925.172	12863
925.279	12810
925.387	12871
925.494	12943
925.602	13008
925.709	12958
925.816	12764
925.924	12810
926.031	12935
926.138	12821
926.245	12882
926.352	12726
926.459	12894
926.566	12985
926.673	12753
926.779	12627
926.886	12749
926.993	12494
927.099	12540
927.206	12456
927.312	12422
927.419	12483
927.525	12471
927.631	12517
927.737	12399
927.843	12357
927.95	12148
928.056	12254
928.162	12380
928.267	12300
928.373	12932
928.479	12414
928.585	12079
928.69	12315
928.796	12216
928.901	12243
929.007	12114
929.112	12152
929.218	12095
929.323	12045
929.428	12019
929.533	12197
929.638	11992
929.743	11988
929.848	11980
929.953	11923
930.058	11863
930.163	11699
930.267	11729
930.372	11923
930.477	11775
930.581	11840
930.685	11642
930.79	11623
930.894	11592
930.998	11566
931.103	11707
931.207	11330
931.311	11265
931.415	11269
931.519	11025
931.623	10930
