Data from test_V78500241_3485.txt Node
Date: Fri Mar 25 15:34:07 CST 2022
User: usil
Spectrometer: V785-0024
Trigger mode: 0
Integration Time (sec): 4.000000E-1
Scans to average: 1
Nonlinearity correction enabled: false
Boxcar width: 0
Storing dark spectrum: false
XAxis mode: Wavelengths
Number of Pixels in Spectrum: 1024
>>>>>Begin Spectral Data<<<<<
801.071	27089
801.214	26963
801.356	26689
801.499	26754
801.641	26526
801.783	26446
801.926	26735
802.068	26537
802.211	26453
802.353	26423
802.496	26358
802.638	26233
802.78	26172
802.923	26157
803.065	25936
803.208	26195
803.35	26130
803.492	26206
803.635	26309
803.777	26244
803.919	26355
804.061	26712
804.204	26381
804.346	26366
804.488	26244
804.63	26332
804.773	26271
804.915	26355
805.057	26438
805.199	26301
805.341	26511
805.483	26438
805.626	26408
805.768	26385
805.91	26423
806.052	26393
806.194	26381
806.336	26381
806.478	26358
806.62	26309
806.762	26476
806.904	26640
807.046	26929
807.188	26693
807.33	26967
807.472	26838
807.614	26682
807.756	26777
807.898	26583
808.04	26613
808.182	26568
808.324	26629
808.465	26594
808.607	26762
808.749	27074
808.891	27150
809.033	27169
809.174	27058
809.316	26963
809.458	27051
809.6	26910
809.741	27142
809.883	27203
810.025	27245
810.166	27157
810.308	27203
810.45	27275
810.591	27363
810.733	27024
810.875	26971
811.016	26845
811.158	26857
811.299	27138
811.441	27313
811.582	27150
811.724	27005
811.865	26933
812.007	26921
812.148	26937
812.29	27108
812.431	27043
812.573	27359
812.714	27363
812.855	27515
812.997	27477
813.138	27793
813.279	27568
813.421	27408
813.562	27389
813.703	27279
813.845	27127
813.986	26811
814.127	26811
814.268	26564
814.41	26705
814.551	26663
814.692	26689
814.833	26518
814.974	26705
815.115	26579
815.256	26480
815.397	26480
815.539	26511
815.68	26351
815.821	26355
815.962	26461
816.103	26305
816.244	26240
816.385	26142
816.526	26145
816.666	25963
816.807	25890
816.948	25871
817.089	25989
817.23	25997
817.371	25909
817.512	25864
817.653	25822
817.793	25864
817.934	25887
818.075	25932
818.216	25811
818.356	25753
818.497	25784
818.638	25563
818.778	25655
818.919	25731
819.06	25704
819.2	25928
819.341	25791
819.481	25849
819.622	25932
819.762	26214
819.903	26180
820.043	26058
820.184	26046
820.324	25947
820.465	26027
820.605	26062
820.746	25868
820.886	25784
821.026	26096
821.167	25917
821.307	25906
821.447	25906
821.588	25700
821.728	25746
821.868	25514
822.008	25426
822.149	25304
822.289	25312
822.429	25080
822.569	24928
822.709	25107
822.849	24852
822.99	24840
823.13	24791
823.27	24738
823.41	24669
823.55	24585
823.69	24601
823.83	24540
823.97	24745
824.11	24494
824.25	24456
824.389	24483
824.529	24642
824.669	24452
824.809	24570
824.949	24414
825.089	24547
825.228	24498
825.368	24388
825.508	24467
825.648	24300
825.787	24372
825.927	24308
826.067	24273
826.206	24281
826.346	24338
826.485	24418
826.625	24292
826.765	24357
826.904	24410
827.044	24186
827.183	24136
827.323	24106
827.462	24174
827.601	23969
827.741	23977
827.88	24125
828.02	24091
828.159	24018
828.298	24079
828.437	24030
828.577	24091
828.716	24091
828.855	23927
828.994	23745
829.134	23737
829.273	23897
829.412	23764
829.551	23638
829.69	23786
829.829	23802
829.968	23802
830.107	23847
830.246	23821
830.385	23722
830.524	23764
830.663	23596
830.802	23383
830.941	23395
831.08	23299
831.219	23486
831.357	23425
831.496	23668
831.635	23547
831.774	23326
831.913	23364
832.051	23132
832.19	23273
832.329	23124
832.467	23140
832.606	22991
832.744	22995
832.883	23124
833.022	23060
833.16	23132
833.299	23109
833.437	23006
833.576	23254
833.714	23204
833.852	23044
833.991	23220
834.129	23216
834.267	23265
834.406	23037
834.544	23098
834.682	23143
834.821	23113
834.959	23311
835.097	23151
835.235	23067
835.373	23010
835.511	23090
835.65	22915
835.788	22995
835.926	22881
836.064	22774
836.202	22809
836.34	22976
836.478	22991
836.615	22968
836.753	22987
836.891	23044
837.029	22938
837.167	22938
837.305	22862
837.443	22991
837.58	22824
837.718	22930
837.856	22942
837.993	22786
838.131	22987
838.269	22649
838.406	22675
838.544	22641
838.681	22542
838.819	22436
838.956	22280
839.094	22318
839.231	22432
839.369	22390
839.506	22759
839.643	22626
839.781	22344
839.918	22344
840.055	22379
840.193	22284
840.33	22280
840.467	22352
840.604	22261
840.742	22554
840.879	22101
841.016	22215
841.153	22116
841.29	22295
841.427	22067
841.564	22257
841.701	22344
841.838	22352
841.975	22055
842.112	22246
842.249	22078
842.385	21994
842.522	22299
842.659	22143
842.796	22006
842.933	22036
843.069	21941
843.206	21994
843.343	22063
843.479	21975
843.616	22059
843.752	21797
843.889	21842
844.025	21865
844.162	21797
844.298	21831
844.435	21778
844.571	21728
844.708	21846
844.844	21838
844.98	22036
845.117	21937
845.253	21690
845.389	21736
845.525	21667
845.661	21614
845.798	21572
845.934	21648
846.07	21458
846.206	21545
846.342	21515
846.478	21538
846.614	21275
846.75	21222
846.886	21283
847.022	21405
847.158	21317
847.294	21233
847.429	21245
847.565	21154
847.701	21488
847.837	20960
847.972	21024
848.108	21100
848.244	21062
848.379	20880
848.515	20864
848.65	20895
848.786	20960
848.921	20804
849.057	20914
849.192	21028
849.328	20868
849.463	20792
849.598	20853
849.734	20823
849.869	20785
850.004	20678
850.14	20564
850.275	20758
850.41	20514
850.545	20621
850.68	20549
850.815	20667
850.95	20705
851.085	20785
851.22	20712
851.355	20716
851.49	20629
851.625	20678
851.76	20575
851.895	20571
852.03	20514
852.165	20537
852.299	20492
852.434	20689
852.569	20651
852.703	20609
852.838	20765
852.973	20765
853.107	20807
853.242	20499
853.376	20404
853.511	20294
853.645	20465
853.78	20495
853.914	20495
854.048	20495
854.183	20469
854.317	20499
854.451	20598
854.585	20526
854.72	20495
854.854	20522
854.988	20370
855.122	20419
855.256	20233
855.39	20484
855.524	20587
855.658	20480
855.792	20518
855.926	20526
856.06	20545
856.194	20465
856.327	20431
856.461	20263
856.595	20313
856.729	20404
856.862	20564
856.996	20442
857.13	20617
857.263	20556
857.397	20629
857.53	20492
857.664	20495
857.797	20385
857.931	20632
858.064	20442
858.197	20537
858.331	20518
858.464	20419
858.597	20396
858.731	20442
858.864	20423
858.997	20427
859.13	20537
859.263	20609
859.396	20541
859.529	20480
859.662	20514
859.795	20377
859.928	20404
860.061	20613
860.194	20625
860.327	20389
860.46	20438
860.592	20575
860.725	20621
860.858	20503
860.99	20396
861.123	20423
861.256	20419
861.388	20552
861.521	21214
861.653	20233
861.786	20240
861.918	20218
862.05	20294
862.183	20480
862.315	20419
862.447	20537
862.58	20385
862.712	20225
862.844	20206
862.976	20313
863.108	20214
863.24	20651
863.372	20119
863.504	20172
863.636	20161
863.768	20263
863.9	20130
864.032	20126
864.164	20157
864.296	20355
864.428	20355
864.559	20199
864.691	20317
864.823	20256
864.954	20176
865.086	20164
865.217	20092
865.349	20039
865.48	20130
865.612	20126
865.743	20119
865.875	20161
866.006	20081
866.137	20012
866.269	20077
866.4	20020
866.531	20126
866.662	19871
866.793	20081
866.924	20020
867.055	20103
867.186	20103
867.317	20016
867.448	20107
867.579	19921
867.71	19860
867.841	19887
867.972	20020
868.103	20016
868.233	19986
868.364	20024
868.495	20225
868.625	20332
868.756	20358
868.886	20290
869.017	20301
869.147	20252
869.278	20358
869.408	20343
869.539	20305
869.669	20301
869.799	20355
869.929	20442
870.06	20396
870.19	20564
870.32	20488
870.45	20697
870.58	20811
870.71	20804
870.84	20712
870.97	20602
871.1	20617
871.23	20819
871.36	20842
871.489	20823
871.619	20921
871.749	20815
871.879	20914
872.008	20963
872.138	20819
872.267	20868
872.397	20861
872.526	20682
872.656	20720
872.785	20716
872.915	20914
873.044	20975
873.173	21039
873.303	20971
873.432	20921
873.561	20998
873.69	20982
873.819	20918
873.948	20948
874.077	20895
874.206	20826
874.335	20998
874.464	20918
874.593	21272
874.722	21081
874.851	21184
874.979	21176
875.108	21173
875.237	21165
875.365	21085
875.494	21058
875.623	21222
875.751	21165
875.88	21199
876.008	21336
876.136	21336
876.265	21564
876.393	21724
876.521	21591
876.65	21652
876.778	21633
876.906	21530
877.034	21523
877.162	21523
877.29	21469
877.418	21530
877.546	21542
877.674	21488
877.802	21587
877.93	21443
878.058	21549
878.185	21370
878.313	21428
878.441	21603
878.568	21340
878.696	21386
878.824	21523
878.951	21644
879.079	21762
879.206	21724
879.333	21648
879.461	21614
879.588	21667
879.715	21720
879.842	21663
879.97	21614
880.097	21378
880.224	21279
880.351	21435
880.478	21359
880.605	21214
880.732	21416
880.859	21568
880.986	21393
881.112	21351
881.239	21112
881.366	21096
881.493	21096
881.619	20979
881.746	20910
881.872	20918
881.999	20941
882.125	20834
882.252	20960
882.378	20906
882.505	20990
882.631	20765
882.757	20693
882.883	20716
883.01	20708
883.136	20564
883.262	20473
883.388	20347
883.514	20556
883.64	20648
883.766	20575
883.892	20484
884.018	20492
884.143	20629
884.269	20629
884.395	20347
884.52	20298
884.646	20366
884.772	20221
884.897	20142
885.023	20294
885.148	20450
885.274	20457
885.399	20343
885.524	20290
885.65	20282
885.775	20370
885.9	20244
886.025	20362
886.15	20393
886.275	20252
886.4	20161
886.525	20233
886.65	20206
886.775	20157
886.9	20476
887.025	20446
887.149	20172
887.274	20054
887.399	20016
887.523	20142
887.648	20008
887.773	19955
887.897	20180
888.021	20145
888.146	19982
888.27	20206
888.395	20077
888.519	20035
888.643	20024
888.767	20096
888.891	20039
889.015	19811
889.139	19875
889.263	19833
889.387	19986
889.511	19986
889.635	19852
889.759	19830
889.883	19845
890.006	19917
890.13	20008
890.254	19818
890.377	19791
890.501	19647
890.624	19647
890.748	19499
890.871	19495
890.995	19480
891.118	19411
891.241	19514
891.364	19384
891.488	19544
891.611	19468
891.734	19350
891.857	19441
891.98	19430
892.103	19491
892.226	19491
892.349	19350
892.471	19251
892.594	19426
892.717	19381
892.839	19316
892.962	19312
893.085	19499
893.207	19320
893.33	19331
893.452	19282
893.575	19445
893.697	19358
893.819	19567
893.941	19597
894.064	19476
894.186	19255
894.308	19247
894.43	19438
894.552	19548
894.674	19472
894.796	19270
894.918	19422
895.04	19384
895.161	19304
895.283	19422
895.405	19255
895.526	19483
895.648	19381
895.769	19324
895.891	19381
896.012	19377
896.134	19411
896.255	19270
896.376	19308
896.498	19381
896.619	19434
896.74	19396
896.861	19434
896.982	19788
897.103	19791
897.224	19742
897.345	19616
897.466	19552
897.587	19662
897.708	19814
897.828	19708
897.949	19575
898.07	19533
898.19	19441
898.311	19601
898.431	19670
898.552	19658
898.672	19685
898.792	19582
898.913	19434
899.033	19480
899.153	19449
899.273	19373
899.393	19358
899.513	19411
899.633	19346
899.753	19285
899.873	19384
899.993	19457
900.113	19251
900.232	19217
900.352	19278
900.472	19263
900.591	19259
900.711	19160
900.83	19061
900.95	19339
901.069	19244
901.189	18977
901.308	18859
901.427	18688
901.546	18738
901.665	18639
901.784	18764
901.904	18578
902.023	18570
902.141	18338
902.26	18319
902.379	18353
902.498	18235
902.617	18239
902.735	18330
902.854	18190
902.973	18182
903.091	17908
903.21	17965
903.328	17950
903.446	17779
903.565	17855
903.683	17714
903.801	17653
903.919	17733
904.038	17687
904.156	17596
904.274	17676
904.392	17421
904.51	17478
904.627	17661
904.745	17554
904.863	17619
904.981	17349
905.098	17174
905.216	17143
905.334	17220
905.451	17189
905.569	17200
905.686	17204
905.803	17090
905.921	17056
906.038	17151
906.155	17029
906.272	16946
906.389	16942
906.506	16702
906.623	16797
906.74	16793
906.857	16580
906.974	16656
907.091	16771
907.208	16843
907.324	16801
907.441	16672
907.557	16447
907.674	16447
907.79	16363
907.907	16466
908.023	16489
908.139	16508
908.256	16451
908.372	16382
908.488	16356
908.604	16284
908.72	16181
908.836	16291
908.952	16078
909.068	16196
909.184	16322
909.3	16204
909.415	16310
909.531	16150
909.647	15880
909.762	16006
909.878	15892
909.993	15907
910.108	15922
910.224	15838
910.339	15899
910.454	15816
910.57	15747
910.685	15633
910.8	15911
910.915	15842
911.03	15785
911.145	15603
911.259	15622
911.374	15625
911.489	15485
911.604	15431
911.718	15173
911.833	15355
911.947	15211
912.062	15089
912.176	15233
912.291	15302
912.405	15340
912.519	15458
912.633	15466
912.748	15214
912.862	15382
912.976	15066
913.09	14998
913.204	15100
913.318	15176
913.431	15249
913.545	15184
913.659	15241
913.772	15036
913.886	14861
914	14902
914.113	14963
914.226	14979
914.34	14998
914.453	14800
914.566	14982
914.68	14849
914.793	14861
914.906	14598
915.019	14446
915.132	14488
915.245	14518
915.358	14556
915.47	14503
915.583	14564
915.696	14549
915.809	14625
915.921	14640
916.034	14465
916.146	14419
916.259	14526
916.371	14533
916.483	14446
916.595	14427
916.708	14362
916.82	14400
916.932	14313
917.044	14347
917.156	14347
917.268	14149
917.38	14210
917.491	14172
917.603	14176
917.715	14271
917.826	14339
917.938	14100
918.049	14088
918.161	14153
918.272	14252
918.384	14339
918.495	14218
918.606	14058
918.717	13986
918.828	13989
918.939	14016
919.05	13955
919.161	13902
919.272	13826
919.383	13807
919.494	14016
919.604	14164
919.715	13887
919.826	13947
919.936	13898
920.047	13989
920.157	13951
920.267	14050
920.378	13955
920.488	13799
920.598	14138
920.708	14252
920.818	14027
920.928	14130
921.038	14286
921.148	14130
921.258	13898
921.368	13940
921.477	13681
921.587	13776
921.697	13563
921.806	13731
921.916	13575
922.025	13396
922.134	13289
922.244	13384
922.353	13491
922.462	13297
922.571	13149
922.68	13042
922.789	13004
922.898	13065
923.007	13027
923.116	12996
923.224	13065
923.333	13000
923.442	12890
923.55	12871
923.659	12871
923.767	12867
923.876	12783
923.984	12913
924.092	12722
924.201	12703
924.309	12734
924.417	12722
924.525	12631
924.633	12700
924.741	13441
924.849	12513
924.956	12559
925.064	12506
925.172	12407
925.279	12441
925.387	12448
925.494	12471
925.602	12540
925.709	12559
925.816	12330
925.924	12448
926.031	12494
926.138	12410
926.245	12445
926.352	12330
926.459	12357
926.566	12414
926.673	12323
926.779	12213
926.886	12182
926.993	12076
927.099	12034
927.206	12030
927.312	11992
927.419	12079
927.525	12007
927.631	12064
927.737	11992
927.843	11882
927.95	11775
928.056	11866
928.162	11950
928.267	11866
928.373	12407
928.479	11923
928.585	11657
928.69	11855
928.796	11764
928.901	11733
929.007	11604
929.112	11691
929.218	11657
929.323	11680
929.428	11562
929.533	11729
929.638	11528
929.743	11516
929.848	11608
929.953	11436
930.058	11436
930.163	11330
930.267	11322
930.372	11463
930.477	11265
930.581	11543
930.685	11299
930.79	11105
930.894	11239
930.998	11159
931.103	11265
931.207	10824
931.311	10934
931.415	10828
931.519	10565
931.623	10580
