Data from test_V78500241_3115.txt Node
Date: Fri Mar 25 15:31:33 CST 2022
User: usil
Spectrometer: V785-0024
Trigger mode: 0
Integration Time (sec): 4.000000E-1
Scans to average: 1
Nonlinearity correction enabled: false
Boxcar width: 0
Storing dark spectrum: false
XAxis mode: Wavelengths
Number of Pixels in Spectrum: 1024
>>>>>Begin Spectral Data<<<<<
801.071	26739
801.214	26686
801.356	26461
801.499	26530
801.641	26412
801.783	26278
801.926	26237
802.068	26336
802.211	26145
802.353	26229
802.496	26050
802.638	26103
802.78	25795
802.923	26027
803.065	25811
803.208	25966
803.35	25921
803.492	26081
803.635	26183
803.777	25974
803.919	26024
804.061	26381
804.204	26088
804.346	26035
804.488	25875
804.63	26069
804.773	25959
804.915	26100
805.057	26172
805.199	25951
805.341	26119
805.483	26225
805.626	26271
805.768	26035
805.91	26153
806.052	26214
806.194	26172
806.336	26271
806.478	26153
806.62	26073
806.762	26229
806.904	26267
807.046	26602
807.188	26571
807.33	26579
807.472	26476
807.614	26469
807.756	26495
807.898	26336
808.04	26237
808.182	26339
808.324	26275
808.465	26442
808.607	26522
808.749	26682
808.891	26929
809.033	26887
809.174	26956
809.316	26762
809.458	26686
809.6	26583
809.741	26781
809.883	26781
810.025	26982
810.166	26990
810.308	26861
810.45	27036
810.591	26933
810.733	26815
810.875	26754
811.016	26564
811.158	26575
811.299	26697
811.441	26963
811.582	26967
811.724	26686
811.865	26564
812.007	26598
812.148	26792
812.29	26708
812.431	26899
812.573	26998
812.714	27150
812.855	27310
812.997	27287
813.138	27447
813.279	27367
813.421	27199
813.562	27256
813.703	27024
813.845	26845
813.986	26530
814.127	26427
814.268	26366
814.41	26404
814.551	26343
814.692	26438
814.833	26412
814.974	26320
815.115	26396
815.256	26225
815.397	26263
815.539	26237
815.68	26271
815.821	26168
815.962	26107
816.103	26164
816.244	25951
816.385	25803
816.526	25894
816.666	25738
816.807	25613
816.948	25693
817.089	25651
817.23	25689
817.371	25635
817.512	25514
817.653	25559
817.793	25457
817.934	25548
818.075	25712
818.216	25655
818.356	25578
818.497	25403
818.638	25400
818.778	25445
818.919	25331
819.06	25411
819.2	25400
819.341	25521
819.481	25506
819.622	25685
819.762	25883
819.903	25845
820.043	25696
820.184	25662
820.324	25795
820.465	25776
820.605	25590
820.746	25578
820.886	25457
821.026	25727
821.167	25567
821.307	25780
821.447	25537
821.588	25540
821.728	25419
821.868	25289
822.008	25179
822.149	25118
822.289	25110
822.429	24875
822.569	24757
822.709	24677
822.849	24551
822.99	24521
823.13	24513
823.27	24467
823.41	24388
823.55	24300
823.69	24471
823.83	24391
823.97	24330
824.11	24194
824.25	24133
824.389	24194
824.529	24277
824.669	24083
824.809	24315
824.949	24239
825.089	24224
825.228	24171
825.368	24079
825.508	24079
825.648	24007
825.787	24110
825.927	24038
826.067	24148
826.206	24114
826.346	24079
826.485	24064
826.625	23992
826.765	24114
826.904	24144
827.044	23851
827.183	23794
827.323	23672
827.462	23710
827.601	23676
827.741	23783
827.88	23634
828.02	23562
828.159	23726
828.298	23790
828.437	23840
828.577	23687
828.716	23764
828.855	23528
828.994	23455
829.134	23417
829.273	23395
829.412	23417
829.551	23356
829.69	23421
829.829	23490
829.968	23471
830.107	23531
830.246	23337
830.385	23383
830.524	23410
830.663	23322
830.802	23204
830.941	23086
831.08	23022
831.219	23181
831.357	23185
831.496	23345
831.635	23064
831.774	22930
831.913	22801
832.051	22782
832.19	22717
832.329	23052
832.467	22691
832.606	22733
832.744	22679
832.883	22729
833.022	22637
833.16	22702
833.299	22801
833.437	22713
833.576	22858
833.714	22835
833.852	22927
833.991	22790
834.129	22885
834.267	22862
834.406	22816
834.544	22744
834.682	22869
834.821	22774
834.959	22923
835.097	22847
835.235	22877
835.373	22881
835.511	22911
835.65	22710
835.788	22694
835.926	22462
836.064	22398
836.202	22390
836.34	22645
836.478	22599
836.615	22554
836.753	22641
836.891	22755
837.029	22653
837.167	22588
837.305	22656
837.443	22470
837.58	22436
837.718	22592
837.856	22478
837.993	22455
838.131	22622
838.269	22382
838.406	22424
838.544	22310
838.681	22265
838.819	22200
838.956	21987
839.094	22025
839.231	22051
839.369	22249
839.506	22447
839.643	22207
839.781	21960
839.918	21846
840.055	22029
840.193	21869
840.33	21934
840.467	22067
840.604	22048
840.742	22223
840.879	21930
841.016	21705
841.153	21888
841.29	21857
841.427	21873
841.564	21991
841.701	21838
841.838	21869
841.975	21846
842.112	21918
842.249	21720
842.385	21675
842.522	21793
842.659	21759
842.796	21751
842.933	21637
843.069	21561
843.206	21633
843.343	21641
843.479	21770
843.616	21759
843.752	21473
843.889	21473
844.025	21637
844.162	21473
844.298	21488
844.435	21511
844.571	21428
844.708	21496
844.844	21595
844.98	21530
845.117	21572
845.253	21450
845.389	21420
845.525	21389
845.661	21317
845.798	21252
845.934	21199
846.07	21241
846.206	21268
846.342	21420
846.478	21188
846.614	20933
846.75	20853
846.886	20994
847.022	20906
847.158	20925
847.294	20963
847.429	20902
847.565	20937
847.701	21230
847.837	20712
847.972	20533
848.108	20739
848.244	20750
848.379	20602
848.515	20465
848.65	20541
848.786	20488
848.921	20598
849.057	20693
849.192	20632
849.328	20526
849.463	20537
849.598	20530
849.734	20389
849.869	20412
850.004	20229
850.14	20320
850.275	20438
850.41	20218
850.545	20275
850.68	20324
850.815	20419
850.95	20187
851.085	20492
851.22	20358
851.355	20412
851.49	20221
851.625	20225
851.76	20305
851.895	20164
852.03	20324
852.165	20305
852.299	20366
852.434	20298
852.569	20286
852.703	20488
852.838	20336
852.973	20499
853.107	20514
853.242	20355
853.376	20172
853.511	20005
853.645	20142
853.78	20134
853.914	20157
854.048	20126
854.183	20088
854.317	20084
854.451	20351
854.585	20130
854.72	20103
854.854	20161
854.988	20062
855.122	20100
855.256	20054
855.39	20115
855.524	20153
855.658	20218
855.792	20176
855.926	20115
856.06	20221
856.194	20282
856.327	20081
856.461	20024
856.595	20092
856.729	20161
856.862	20248
856.996	20100
857.13	20218
857.263	20309
857.397	20305
857.53	20035
857.664	20187
857.797	20328
857.931	20233
858.064	20275
858.197	20218
858.331	20157
858.464	20016
858.597	20054
858.731	20088
858.864	20065
858.997	20164
859.13	20142
859.263	20142
859.396	20214
859.529	20225
859.662	20024
859.795	20096
859.928	20088
860.061	20206
860.194	20271
860.327	20233
860.46	20172
860.592	20298
860.725	20313
860.858	20218
860.99	20111
861.123	20065
861.256	20062
861.388	20138
861.521	20727
861.653	19898
861.786	19849
861.918	20001
862.05	20050
862.183	20119
862.315	19974
862.447	20134
862.58	19967
862.712	19868
862.844	19883
862.976	19940
863.108	20134
863.24	20225
863.372	19757
863.504	19841
863.636	19750
863.768	19879
863.9	19875
864.032	19788
864.164	19913
864.296	19712
864.428	19970
864.559	20020
864.691	20058
864.823	19947
864.954	19734
865.086	19761
865.217	19826
865.349	19708
865.48	19784
865.612	19723
865.743	19925
865.875	19746
866.006	19677
866.137	19837
866.269	19791
866.4	19681
866.531	19609
866.662	19757
866.793	19753
866.924	19757
867.055	19826
867.186	19704
867.317	19727
867.448	19594
867.579	19651
867.71	19624
867.841	19723
867.972	19734
868.103	19727
868.233	19601
868.364	19677
868.495	19677
868.625	19947
868.756	20054
868.886	19932
869.017	19883
869.147	20073
869.278	20035
869.408	20043
869.539	20012
869.669	19993
869.799	19978
869.929	20202
870.06	20062
870.19	20225
870.32	20225
870.45	20313
870.58	20362
870.71	20431
870.84	20415
870.97	20309
871.1	20431
871.23	20454
871.36	20476
871.489	20465
871.619	20598
871.749	20514
871.879	20682
872.008	20632
872.138	20613
872.267	20575
872.397	20442
872.526	20381
872.656	20412
872.785	20419
872.915	20670
873.044	20663
873.173	20579
873.303	20590
873.432	20735
873.561	20746
873.69	20583
873.819	20606
873.948	20640
874.077	20579
874.206	20522
874.335	20587
874.464	20716
874.593	20819
874.722	20807
874.851	20765
874.979	20899
875.108	20918
875.237	20796
875.365	20697
875.494	20762
875.623	20861
875.751	20861
875.88	20826
876.008	20986
876.136	21074
876.265	21169
876.393	21351
876.521	21252
876.65	21317
876.778	21260
876.906	21058
877.034	21252
877.162	21264
877.29	21184
877.418	21138
877.546	21260
877.674	21233
877.802	21119
877.93	21100
878.058	21150
878.185	21036
878.313	21218
878.441	21150
878.568	21096
878.696	21142
878.824	21222
878.951	21310
879.079	21420
879.206	21629
879.333	21405
879.461	21233
879.588	21283
879.715	21504
879.842	21344
879.97	21176
880.097	20990
880.224	20960
880.351	21017
880.478	21142
880.605	21043
880.732	20994
880.859	21230
880.986	21032
881.112	20990
881.239	20956
881.366	20796
881.493	20606
881.619	20617
881.746	20686
881.872	20488
881.999	20606
882.125	20438
882.252	20651
882.378	20583
882.505	20648
882.631	20461
882.757	20396
882.883	20332
883.01	20408
883.136	20278
883.262	20191
883.388	20199
883.514	20278
883.64	20317
883.766	20252
883.892	20111
884.018	20126
884.143	20393
884.269	20389
884.395	20115
884.52	19932
884.646	20103
884.772	19830
884.897	19909
885.023	19921
885.148	20024
885.274	20138
885.399	20077
885.524	20073
885.65	19925
885.775	20039
885.9	19993
886.025	20134
886.15	20145
886.275	19951
886.4	19989
886.525	19841
886.65	19928
886.775	19883
886.9	20161
887.025	20237
887.149	20050
887.274	19822
887.399	19750
887.523	19731
887.648	19833
887.773	19738
887.897	19909
888.021	19746
888.146	19757
888.27	19845
888.395	19826
888.519	19693
888.643	19795
888.767	19674
888.891	19708
889.015	19601
889.139	19712
889.263	19563
889.387	19662
889.511	19715
889.635	19784
889.759	19552
889.883	19521
890.006	19601
890.13	19723
890.254	19491
890.377	19457
890.501	19403
890.624	19320
890.748	19373
890.871	19217
890.995	19240
891.118	19046
891.241	19221
891.364	19110
891.488	19289
891.611	19122
891.734	19213
891.857	19187
891.98	19141
892.103	19198
892.226	19179
892.349	19263
892.471	18985
892.594	19175
892.717	19057
892.839	19053
892.962	19046
893.085	19160
893.207	19137
893.33	18894
893.452	19034
893.575	19088
893.697	19038
893.819	19137
893.941	19221
894.064	19175
894.186	18970
894.308	19042
894.43	19164
894.552	19217
894.674	19179
894.796	19027
894.918	18989
895.04	19137
895.161	19164
895.283	19008
895.405	19050
895.526	19202
895.648	19034
895.769	19084
895.891	19069
896.012	19225
896.134	19053
896.255	19076
896.376	19031
896.498	19168
896.619	19168
896.74	19099
896.861	19084
896.982	19578
897.103	19563
897.224	19274
897.345	19346
897.466	19289
897.587	19419
897.708	19335
897.828	19415
897.949	19324
898.07	19122
898.19	19285
898.311	19449
898.431	19384
898.552	19285
898.672	19476
898.792	19369
898.913	19301
899.033	19270
899.153	19190
899.273	19099
899.393	19031
899.513	19141
899.633	19046
899.753	19141
899.873	19080
899.993	19080
900.113	18996
900.232	19137
900.352	18928
900.472	18901
900.591	18894
900.711	18798
900.83	18798
900.95	19088
901.069	18894
901.189	18825
901.308	18650
901.427	18456
901.546	18570
901.665	18486
901.784	18563
901.904	18296
902.023	18304
902.141	18057
902.26	18007
902.379	18102
902.498	18068
902.617	17878
902.735	18140
902.854	17942
902.973	17878
903.091	17718
903.21	17672
903.328	17783
903.446	17665
903.565	17600
903.683	17577
903.801	17490
903.919	17383
904.038	17459
904.156	17261
904.274	17322
904.392	17265
904.51	17204
904.627	17246
904.745	17204
904.863	17398
904.981	17121
905.098	16976
905.216	16911
905.334	16968
905.451	16972
905.569	16892
905.686	16961
905.803	17052
905.921	16736
906.038	16923
906.155	16809
906.272	16622
906.389	16702
906.506	16626
906.623	16493
906.74	16500
906.857	16379
906.974	16440
907.091	16485
907.208	16603
907.324	16573
907.441	16356
907.557	16188
907.674	16249
907.79	16166
907.907	16230
908.023	16253
908.139	16226
908.256	16196
908.372	16128
908.488	16120
908.604	16017
908.72	15926
908.836	15964
908.952	15857
909.068	16071
909.184	16086
909.3	16036
909.415	15968
909.531	15972
909.647	15717
909.762	15682
909.878	15618
909.993	15778
910.108	15568
910.224	15705
910.339	15625
910.454	15530
910.57	15428
910.685	15405
910.8	15656
910.915	15618
911.03	15466
911.145	15302
911.259	15146
911.374	15321
911.489	15108
911.604	15154
911.718	15081
911.833	15077
911.947	14990
912.062	14887
912.176	14960
912.291	15043
912.405	15051
912.519	15222
912.633	15245
912.748	15047
912.862	15009
912.976	14823
913.09	14777
913.204	14807
913.318	14880
913.431	14979
913.545	14948
913.659	14979
913.772	14849
913.886	14739
914	14682
914.113	14781
914.226	14895
914.34	14769
914.453	14488
914.566	14693
914.68	14625
914.793	14518
914.906	14351
915.019	14355
915.132	14244
915.245	14309
915.358	14362
915.47	14294
915.583	14393
915.696	14396
915.809	14256
915.921	14446
916.034	14221
916.146	14248
916.259	14218
916.371	14332
916.483	14343
916.595	14126
916.708	14164
916.82	14271
916.932	14115
917.044	14130
917.156	14088
917.268	13978
917.38	14001
917.491	13970
917.603	14027
917.715	14050
917.826	14050
917.938	14012
918.049	13826
918.161	13997
918.272	14134
918.384	14107
918.495	13993
918.606	13719
918.717	13647
918.828	13772
918.939	13849
919.05	13753
919.161	13616
919.272	13620
919.383	13616
919.494	13845
919.604	13902
919.715	13845
919.826	13613
919.936	13780
920.047	13795
920.157	13708
920.267	13864
920.378	13811
920.488	13742
920.598	13906
920.708	13989
920.818	13936
920.928	13860
921.038	14084
921.148	13997
921.258	13712
921.368	13605
921.477	13605
921.587	13472
921.697	13339
921.806	13502
921.916	13282
922.025	13263
922.134	13099
922.244	13129
922.353	13209
922.462	13076
922.571	13023
922.68	12859
922.789	12798
922.898	12863
923.007	12692
923.116	12859
923.224	12772
923.333	12776
923.442	12703
923.55	12612
923.659	12669
923.767	12646
923.876	12593
923.984	12734
924.092	12639
924.201	12570
924.309	12608
924.417	12547
924.525	12498
924.633	12509
924.741	13400
924.849	12224
924.956	12403
925.064	12300
925.172	12258
925.279	12163
925.387	12304
925.494	12243
925.602	12433
925.709	12410
925.816	12247
925.924	12209
926.031	12292
926.138	12136
926.245	12213
926.352	12232
926.459	12228
926.566	12350
926.673	12133
926.779	12083
926.886	12102
926.993	11904
927.099	11893
927.206	11828
927.312	11813
927.419	11935
927.525	11855
927.631	11863
927.737	11695
927.843	11752
927.95	11630
928.056	11623
928.162	11688
928.267	11745
928.373	12311
928.479	11805
928.585	11532
928.69	11630
928.796	11729
928.901	11558
929.007	11433
929.112	11554
929.218	11520
929.323	11444
929.428	11398
929.533	11566
929.638	11402
929.743	11364
929.848	11543
929.953	11349
930.058	11356
930.163	11227
930.267	11162
930.372	11239
930.477	11098
930.581	11330
930.685	11201
930.79	10984
930.894	11098
930.998	10946
931.103	11075
931.207	10778
931.311	10733
931.415	10588
931.519	10398
931.623	10462
