Data from test_V78500241_3307.txt Node
Date: Fri Mar 25 15:32:53 CST 2022
User: usil
Spectrometer: V785-0024
Trigger mode: 0
Integration Time (sec): 4.000000E-1
Scans to average: 1
Nonlinearity correction enabled: false
Boxcar width: 0
Storing dark spectrum: false
XAxis mode: Wavelengths
Number of Pixels in Spectrum: 1024
>>>>>Begin Spectral Data<<<<<
801.071	27298
801.214	27214
801.356	26944
801.499	26792
801.641	26785
801.783	26659
801.926	26838
802.068	26648
802.211	26659
802.353	26590
802.496	26511
802.638	26453
802.78	26457
802.923	26278
803.065	26339
803.208	26332
803.35	26355
803.492	26457
803.635	26552
803.777	26488
803.919	26545
804.061	26861
804.204	26617
804.346	26404
804.488	26434
804.63	26533
804.773	26351
804.915	26575
805.057	26602
805.199	26606
805.341	26602
805.483	26765
805.626	26583
805.768	26511
805.91	26632
806.052	26686
806.194	26522
806.336	26724
806.478	26606
806.62	26564
806.762	26640
806.904	26914
807.046	27192
807.188	27009
807.33	27112
807.472	27127
807.614	26971
807.756	27013
807.898	26872
808.04	26724
808.182	26864
808.324	27001
808.465	26937
808.607	27047
808.749	27184
808.891	27382
809.033	27481
809.174	27405
809.316	27096
809.458	27226
809.6	27195
809.741	27420
809.883	27321
810.025	27374
810.166	27492
810.308	27511
810.45	27545
810.591	27374
810.733	27283
810.875	27032
811.016	27096
811.158	27047
811.299	27382
811.441	27439
811.582	27279
811.724	27249
811.865	27154
812.007	27039
812.148	27260
812.29	27252
812.431	27393
812.573	27603
812.714	27561
812.855	27857
812.997	27876
813.138	27907
813.279	27812
813.421	27747
813.562	27690
813.703	27564
813.845	27382
813.986	27123
814.127	26956
814.268	26960
814.41	26842
814.551	26724
814.692	27028
814.833	26792
814.974	26693
815.115	26864
815.256	26815
815.397	26788
815.539	26708
815.68	26636
815.821	26579
815.962	26564
816.103	26594
816.244	26453
816.385	26552
816.526	26358
816.666	26221
816.807	26191
816.948	26218
817.089	26271
817.23	26183
817.371	26191
817.512	25932
817.653	26062
817.793	26077
817.934	26180
818.075	26134
818.216	26202
818.356	25997
818.497	26020
818.638	25906
818.778	25940
818.919	26024
819.06	26088
819.2	26005
819.341	26210
819.481	26043
819.622	26290
819.762	26530
819.903	26336
820.043	26385
820.184	26374
820.324	26286
820.465	26393
820.605	26180
820.746	26214
820.886	26096
821.026	26202
821.167	26256
821.307	26298
821.447	26073
821.588	26012
821.728	25925
821.868	25814
822.008	25708
822.149	25502
822.289	25670
822.429	25304
822.569	25282
822.709	25107
822.849	25225
822.99	25247
823.13	25217
823.27	25012
823.41	25015
823.55	24897
823.69	24989
823.83	24973
823.97	24791
824.11	24715
824.25	24791
824.389	24738
824.529	24856
824.669	24700
824.809	24802
824.949	24703
825.089	24844
825.228	24783
825.368	24650
825.508	24688
825.648	24601
825.787	24608
825.927	24703
826.067	24559
826.206	24635
826.346	24608
826.485	24601
826.625	24673
826.765	24700
826.904	24620
827.044	24410
827.183	24338
827.323	24247
827.462	24357
827.601	24300
827.741	24235
827.88	24308
828.02	24186
828.159	24247
828.298	24273
828.437	24380
828.577	24319
828.716	24403
828.855	24091
828.994	24114
829.134	24003
829.273	24098
829.412	24102
829.551	24041
829.69	24038
829.829	24083
829.968	24102
830.107	24034
830.246	24213
830.385	23939
830.524	24072
830.663	23821
830.802	23733
830.941	23665
831.08	23691
831.219	23676
831.357	23760
831.496	23889
831.635	23570
831.774	23554
831.913	23589
832.051	23467
832.19	23509
832.329	23577
832.467	23410
832.606	23280
832.744	23391
832.883	23315
833.022	23280
833.16	23311
833.299	23402
833.437	23383
833.576	23421
833.714	23402
833.852	23467
833.991	23402
834.129	23406
834.267	23452
834.406	23391
834.544	23474
834.682	23471
834.821	23322
834.959	23596
835.097	23414
835.235	23558
835.373	23387
835.511	23467
835.65	23296
835.788	23345
835.926	23155
836.064	23124
836.202	23208
836.34	23387
836.478	23280
836.615	23166
836.753	23273
836.891	23296
837.029	23269
837.167	23136
837.305	23143
837.443	23166
837.58	23010
837.718	23132
837.856	23140
837.993	23044
838.131	23086
838.269	23060
838.406	23014
838.544	22904
838.681	22733
838.819	22755
838.956	22653
839.094	22474
839.231	22611
839.369	22729
839.506	23067
839.643	22748
839.781	22565
839.918	22584
840.055	22641
840.193	22538
840.33	22466
840.467	22592
840.604	22656
840.742	22892
840.879	22398
841.016	22516
841.153	22325
841.29	22554
841.427	22516
841.564	22516
841.701	22489
841.838	22398
841.975	22329
842.112	22516
842.249	22497
842.385	22303
842.522	22550
842.659	22379
842.796	22211
842.933	22253
843.069	22051
843.206	22207
843.343	22341
843.479	22265
843.616	22276
843.752	22090
843.889	22040
844.025	22147
844.162	22040
844.298	22196
844.435	22010
844.571	22051
844.708	22128
844.844	22291
844.98	22154
845.117	22154
845.253	22025
845.389	21918
845.525	21930
845.661	21945
845.798	21785
845.934	21690
846.07	21679
846.206	21804
846.342	22040
846.478	21800
846.614	21606
846.75	21519
846.886	21507
847.022	21713
847.158	21606
847.294	21545
847.429	21545
847.565	21534
847.701	21800
847.837	21306
847.972	21317
848.108	21344
848.244	21275
848.379	21161
848.515	21081
848.65	21077
848.786	21066
848.921	21081
849.057	21127
849.192	21279
849.328	21173
849.463	21100
849.598	21036
849.734	21058
849.869	21024
850.004	20948
850.14	20902
850.275	20921
850.41	20823
850.545	20906
850.68	20849
850.815	20944
850.95	20914
851.085	21138
851.22	20918
851.355	20891
851.49	20819
851.625	20845
851.76	20914
851.895	20788
852.03	20910
852.165	20815
852.299	20906
852.434	20895
852.569	20925
852.703	20769
852.838	20941
852.973	21013
853.107	20944
853.242	20830
853.376	20769
853.511	20693
853.645	20625
853.78	20743
853.914	20731
854.048	20686
854.183	20724
854.317	20621
854.451	20925
854.585	20762
854.72	20667
854.854	20830
854.988	20621
855.122	20788
855.256	20499
855.39	20640
855.524	20758
855.658	20727
855.792	20731
855.926	20575
856.06	20701
856.194	20834
856.327	20689
856.461	20689
856.595	20518
856.729	20670
856.862	20788
856.996	20739
857.13	20811
857.263	20781
857.397	20861
857.53	20689
857.664	20758
857.797	20800
857.931	20746
858.064	20636
858.197	20697
858.331	20735
858.464	20541
858.597	20716
858.731	20625
858.864	20693
858.997	20651
859.13	20750
859.263	20754
859.396	20792
859.529	20701
859.662	20693
859.795	20758
859.928	20758
860.061	20941
860.194	20773
860.327	20731
860.46	20697
860.592	20857
860.725	20921
860.858	20883
860.99	20705
861.123	20609
861.256	20571
861.388	20750
861.521	21313
861.653	20556
861.786	20461
861.918	20644
862.05	20644
862.183	20613
862.315	20598
862.447	20674
862.58	20632
862.712	20377
862.844	20419
862.976	20530
863.108	20492
863.24	21085
863.372	20366
863.504	20374
863.636	20358
863.768	20545
863.9	20385
864.032	20358
864.164	20396
864.296	20541
864.428	20552
864.559	20473
864.691	20594
864.823	20480
864.954	20362
865.086	20381
865.217	20328
865.349	20229
865.48	20275
865.612	20339
865.743	20492
865.875	20278
866.006	20282
866.137	20275
866.269	20332
866.4	20351
866.531	20301
866.662	20195
866.793	20393
866.924	20237
867.055	20256
867.186	20286
867.317	20214
867.448	20244
867.579	20362
867.71	20161
867.841	20168
867.972	20267
868.103	20130
868.233	20328
868.364	20275
868.495	20385
868.625	20461
868.756	20667
868.886	20412
869.017	20492
869.147	20727
869.278	20651
869.408	20590
869.539	20564
869.669	20636
869.799	20541
869.929	20674
870.06	20625
870.19	20769
870.32	20807
870.45	20857
870.58	20895
870.71	20960
870.84	20986
870.97	20902
871.1	20979
871.23	21093
871.36	21249
871.489	21032
871.619	21024
871.749	21131
871.879	21207
872.008	21214
872.138	21142
872.267	21146
872.397	21001
872.526	20895
872.656	20975
872.785	20975
872.915	21055
873.044	21089
873.173	21070
873.303	21188
873.432	21321
873.561	21268
873.69	21066
873.819	21135
873.948	21142
874.077	21123
874.206	21062
874.335	21188
874.464	21279
874.593	21351
874.722	21401
874.851	21473
874.979	21515
875.108	21359
875.237	21378
875.365	21310
875.494	21428
875.623	21477
875.751	21401
875.88	21355
876.008	21488
876.136	21709
876.265	21789
876.393	21975
876.521	21835
876.65	21743
876.778	21736
876.906	21770
877.034	21732
877.162	21747
877.29	21705
877.418	21789
877.546	21774
877.674	21850
877.802	21797
877.93	21694
878.058	21743
878.185	21648
878.313	21576
878.441	21701
878.568	21568
878.696	21587
878.824	21720
878.951	21941
879.079	21873
879.206	22025
879.333	21808
879.461	21831
879.588	21922
879.715	21934
879.842	22131
879.97	21865
880.097	21622
880.224	21644
880.351	21610
880.478	21644
880.605	21530
880.732	21606
880.859	21800
880.986	21682
881.112	21580
881.239	21386
881.366	21340
881.493	21131
881.619	21226
881.746	21184
881.872	21188
881.999	21096
882.125	21119
882.252	21218
882.378	21173
882.505	21188
882.631	20952
882.757	20785
882.883	20925
883.01	20819
883.136	20838
883.262	20625
883.388	20644
883.514	20830
883.64	20921
883.766	20682
883.892	20613
884.018	20655
884.143	20765
884.269	20906
884.395	20541
884.52	20476
884.646	20469
884.772	20381
884.897	20606
885.023	20469
885.148	20754
885.274	20670
885.399	20556
885.524	20568
885.65	20526
885.775	20438
885.9	20324
886.025	20663
886.15	20602
886.275	20343
886.4	20434
886.525	20495
886.65	20366
886.775	20434
886.9	20663
887.025	20697
887.149	20457
887.274	20290
887.399	20195
887.523	20317
887.648	20298
887.773	20233
887.897	20317
888.021	20237
888.146	20244
888.27	20339
888.395	20415
888.519	20244
888.643	20290
888.767	20419
888.891	20214
889.015	20088
889.139	20142
889.263	20043
889.387	20096
889.511	20336
889.635	20237
889.759	20134
889.883	20054
890.006	20126
890.13	20138
890.254	20050
890.377	20035
890.501	19841
890.624	19784
890.748	19898
890.871	19795
890.995	19655
891.118	19677
891.241	19635
891.364	19681
891.488	19833
891.611	19807
891.734	19704
891.857	19647
891.98	19727
892.103	19833
892.226	19605
892.349	19552
892.471	19392
892.594	19445
892.717	19590
892.839	19487
892.962	19525
893.085	19635
893.207	19567
893.33	19445
893.452	19491
893.575	19609
893.697	19571
893.819	19742
893.941	19727
894.064	19795
894.186	19578
894.308	19445
894.43	19670
894.552	19677
894.674	19674
894.796	19468
894.918	19567
895.04	19514
895.161	19594
895.283	19552
895.405	19495
895.526	19575
895.648	19613
895.769	19571
895.891	19643
896.012	19635
896.134	19693
896.255	19635
896.376	19559
896.498	19586
896.619	19670
896.74	19578
896.861	19685
896.982	19997
897.103	20142
897.224	19883
897.345	19818
897.466	19765
897.587	19731
897.708	19864
897.828	19868
897.949	19849
898.07	19666
898.19	19807
898.311	19879
898.431	19708
898.552	19788
898.672	19852
898.792	19921
898.913	19875
899.033	19696
899.153	19552
899.273	19472
899.393	19514
899.513	19616
899.633	19491
899.753	19544
899.873	19529
899.993	19571
900.113	19533
900.232	19540
900.352	19491
900.472	19316
900.591	19304
900.711	19453
900.83	19251
900.95	19403
901.069	19449
901.189	19148
901.308	19126
901.427	19000
901.546	18985
901.665	19008
901.784	19008
901.904	18852
902.023	18707
902.141	18445
902.26	18471
902.379	18528
902.498	18479
902.617	18456
902.735	18460
902.854	18350
902.973	18342
903.091	18102
903.21	18121
903.328	18110
903.446	18049
903.565	17980
903.683	18022
903.801	17950
903.919	17973
904.038	17836
904.156	17668
904.274	17843
904.392	17691
904.51	17676
904.627	17642
904.745	17752
904.863	17752
904.981	17497
905.098	17356
905.216	17383
905.334	17334
905.451	17372
905.569	17273
905.686	17482
905.803	17337
905.921	17166
906.038	17227
906.155	17185
906.272	17075
906.389	17151
906.506	16938
906.623	16942
906.74	16930
906.857	16873
906.974	16938
907.091	16911
907.208	17128
907.324	16976
907.441	16869
907.557	16733
907.674	16694
907.79	16596
907.907	16603
908.023	16706
908.139	16729
908.256	16630
908.372	16561
908.488	16565
908.604	16398
908.72	16265
908.836	16417
908.952	16337
909.068	16451
909.184	16402
909.3	16325
909.415	16421
909.531	16428
909.647	16192
909.762	15998
909.878	16002
909.993	16078
910.108	16067
910.224	15953
910.339	16059
910.454	15972
910.57	15823
910.685	15842
910.8	16158
910.915	15953
911.03	15808
911.145	15679
911.259	15778
911.374	15690
911.489	15652
911.604	15481
911.718	15424
911.833	15466
911.947	15389
912.062	15233
912.176	15420
912.291	15492
912.405	15428
912.519	15686
912.633	15671
912.748	15481
912.862	15454
912.976	15325
913.09	15226
913.204	15214
913.318	15329
913.431	15408
913.545	15317
913.659	15321
913.772	15245
913.886	15039
914	15066
914.113	15180
914.226	15142
914.34	15028
914.453	14979
914.566	14975
914.68	14914
914.793	14960
914.906	14705
915.019	14777
915.132	14667
915.245	14689
915.358	14686
915.47	14712
915.583	14686
915.696	14792
915.809	14754
915.921	14758
916.034	14678
916.146	14621
916.259	14621
916.371	14613
916.483	14636
916.595	14590
916.708	14476
916.82	14545
916.932	14530
917.044	14488
917.156	14492
917.268	14336
917.38	14259
917.491	14396
917.603	14393
917.715	14438
917.826	14522
917.938	14324
918.049	14161
918.161	14309
918.272	14431
918.384	14473
918.495	14389
918.606	14142
918.717	14050
918.828	14149
918.939	14164
919.05	14084
919.161	14084
919.272	13986
919.383	13982
919.494	14126
919.604	14358
919.715	14195
919.826	13963
919.936	13963
920.047	14157
920.157	14157
920.267	14259
920.378	14195
920.488	14043
920.598	14161
920.708	14389
920.818	14252
920.928	14180
921.038	14358
921.148	14362
921.258	14084
921.368	13982
921.477	13955
921.587	13830
921.697	13723
921.806	13757
921.916	13734
922.025	13597
922.134	13533
922.244	13480
922.353	13472
922.462	13491
922.571	13266
922.68	13160
922.789	13217
922.898	13114
923.007	13072
923.116	13103
923.224	13129
923.333	13206
923.442	12894
923.55	12981
923.659	12989
923.767	13053
923.876	12901
923.984	13004
924.092	12810
924.201	12867
924.309	12947
924.417	12829
924.525	12749
924.633	12890
924.741	13784
924.849	12639
924.956	12722
925.064	12456
925.172	12528
925.279	12525
925.387	12658
925.494	12486
925.602	12673
925.709	12620
925.816	12494
925.924	12570
926.031	12646
926.138	12513
926.245	12627
926.352	12361
926.459	12536
926.566	12582
926.673	12456
926.779	12308
926.886	12311
926.993	12171
927.099	12186
927.206	12091
927.312	12011
927.419	12159
927.525	12060
927.631	12117
927.737	11969
927.843	11988
927.95	11851
928.056	11969
928.162	11958
928.267	12034
928.373	12433
928.479	12106
928.585	11851
928.69	11977
928.796	11977
928.901	11855
929.007	11668
929.112	11874
929.218	11775
929.323	11722
929.428	11802
929.533	11901
929.638	11665
929.743	11608
929.848	11737
929.953	11691
930.058	11570
930.163	11429
930.267	11501
930.372	11524
930.477	11379
930.581	11611
930.685	11463
930.79	11376
930.894	11345
930.998	11337
931.103	11490
931.207	11113
931.311	11083
931.415	10930
931.519	10809
931.623	10675
