Data from test_V78500241_3411.txt Node
Date: Fri Mar 25 15:33:36 CST 2022
User: usil
Spectrometer: V785-0024
Trigger mode: 0
Integration Time (sec): 4.000000E-1
Scans to average: 1
Nonlinearity correction enabled: false
Boxcar width: 0
Storing dark spectrum: false
XAxis mode: Wavelengths
Number of Pixels in Spectrum: 1024
>>>>>Begin Spectral Data<<<<<
801.071	27363
801.214	27256
801.356	27081
801.499	27017
801.641	26792
801.783	26826
801.926	26929
802.068	26899
802.211	26727
802.353	26682
802.496	26511
802.638	26530
802.78	26495
802.923	26355
803.065	26336
803.208	26419
803.35	26400
803.492	26556
803.635	26644
803.777	26511
803.919	26629
804.061	26899
804.204	26644
804.346	26769
804.488	26651
804.63	26590
804.773	26480
804.915	26678
805.057	26819
805.199	26693
805.341	26712
805.483	26746
805.626	26739
805.768	26648
805.91	26686
806.052	26861
806.194	26609
806.336	26906
806.478	26804
806.62	26819
806.762	26807
806.904	27020
807.046	27142
807.188	27043
807.33	27157
807.472	27150
807.614	27096
807.756	27024
807.898	26979
808.04	26796
808.182	26853
808.324	26975
808.465	27085
808.607	27192
808.749	27188
808.891	27386
809.033	27603
809.174	27439
809.316	27287
809.458	27279
809.6	27154
809.741	27462
809.883	27488
810.025	27485
810.166	27583
810.308	27557
810.45	27614
810.591	27450
810.733	27466
810.875	27485
811.016	27173
811.158	27237
811.299	27481
811.441	27473
811.582	27462
811.724	27298
811.865	27363
812.007	27306
812.148	27382
812.29	27329
812.431	27454
812.573	27606
812.714	27682
812.855	27728
812.997	27930
813.138	28051
813.279	27994
813.421	27766
813.562	27717
813.703	27793
813.845	27435
813.986	27230
814.127	27169
814.268	26937
814.41	27188
814.551	26963
814.692	27089
814.833	26769
814.974	26914
815.115	26857
815.256	26720
815.397	26777
815.539	26929
815.68	26788
815.821	26667
815.962	26883
816.103	26659
816.244	26476
816.385	26461
816.526	26396
816.666	26404
816.807	26244
816.948	26290
817.089	26290
817.23	26153
817.371	26286
817.512	26248
817.653	26153
817.793	26210
817.934	26267
818.075	26286
818.216	26195
818.356	26130
818.497	26092
818.638	25959
818.778	26024
818.919	25845
819.06	26077
819.2	26016
819.341	26290
819.481	26301
819.622	26518
819.762	26564
819.903	26484
820.043	26351
820.184	26324
820.324	26347
820.465	26488
820.605	26301
820.746	26469
820.886	26199
821.026	26244
821.167	26240
821.307	26396
821.447	26267
821.588	26054
821.728	25963
821.868	25868
822.008	25860
822.149	25662
822.289	25708
822.429	25487
822.569	25464
822.709	25308
822.849	25236
822.99	25274
823.13	25263
823.27	25084
823.41	25069
823.55	24924
823.69	25152
823.83	25069
823.97	24977
824.11	24722
824.25	24753
824.389	24848
824.529	24966
824.669	24700
824.809	25004
824.949	24916
825.089	24852
825.228	24817
825.368	24650
825.508	24658
825.648	24631
825.787	24772
825.927	24757
826.067	24646
826.206	24719
826.346	24783
826.485	24779
826.625	24677
826.765	24901
826.904	24696
827.044	24528
827.183	24574
827.323	24452
827.462	24437
827.601	24414
827.741	24338
827.88	24517
828.02	24403
828.159	24334
828.298	24327
828.437	24414
828.577	24498
828.716	24464
828.855	24395
828.994	24087
829.134	24129
829.273	24194
829.412	23973
829.551	24136
829.69	24102
829.829	24186
829.968	24140
830.107	24205
830.246	24178
830.385	24098
830.524	24144
830.663	24022
830.802	23965
830.941	23851
831.08	23703
831.219	23794
831.357	23805
831.496	23965
831.635	23729
831.774	23714
831.913	23615
832.051	23531
832.19	23486
832.329	23497
832.467	23395
832.606	23315
832.744	23364
832.883	23486
833.022	23429
833.16	23425
833.299	23482
833.437	23433
833.576	23493
833.714	23585
833.852	23615
833.991	23680
834.129	23653
834.267	23516
834.406	23505
834.544	23581
834.682	23573
834.821	23471
834.959	23748
835.097	23452
835.235	23558
835.373	23516
835.511	23444
835.65	23463
835.788	23520
835.926	23288
836.064	23109
836.202	23170
836.34	23296
836.478	23402
836.615	23334
836.753	23364
836.891	23425
837.029	23318
837.167	23235
837.305	23318
837.443	23296
837.58	23258
837.718	23315
837.856	23178
837.993	23197
838.131	23284
838.269	23132
838.406	23220
838.544	23064
838.681	22885
838.819	22961
838.956	22634
839.094	22759
839.231	22706
839.369	22812
839.506	23174
839.643	23029
839.781	22740
839.918	22607
840.055	22592
840.193	22569
840.33	22622
840.467	22660
840.604	22641
840.742	22873
840.879	22516
841.016	22508
841.153	22569
841.29	22672
841.427	22596
841.564	22672
841.701	22645
841.838	22493
841.975	22363
842.112	22478
842.249	22485
842.385	22417
842.522	22523
842.659	22443
842.796	22390
842.933	22306
843.069	22325
843.206	22447
843.343	22428
843.479	22478
843.616	22405
843.752	22124
843.889	22181
844.025	22276
844.162	22306
844.298	22105
844.435	22059
844.571	22181
844.708	22257
844.844	22196
844.98	22348
845.117	22226
845.253	22036
845.389	22059
845.525	22124
845.661	21998
845.798	21895
845.934	21949
846.07	21823
846.206	21975
846.342	21930
846.478	22021
846.614	21755
846.75	21587
846.886	21625
847.022	21671
847.158	21641
847.294	21789
847.429	21800
847.565	21701
847.701	21800
847.837	21477
847.972	21272
848.108	21397
848.244	21454
848.379	21272
848.515	21245
848.65	21150
848.786	21180
848.921	21157
849.057	21416
849.192	21428
849.328	21184
849.463	21188
849.598	21146
849.734	21131
849.869	21051
850.004	21028
850.14	20956
850.275	20963
850.41	21009
850.545	20899
850.68	20921
850.815	20929
850.95	20971
851.085	21233
851.22	21104
851.355	20967
851.49	20941
851.625	20872
851.76	21058
851.895	20796
852.03	20929
852.165	20914
852.299	20914
852.434	21047
852.569	21066
852.703	21085
852.838	21131
852.973	21055
853.107	21089
853.242	20979
853.376	20788
853.511	20720
853.645	20689
853.78	20914
853.914	20800
854.048	20880
854.183	20811
854.317	20830
854.451	21051
854.585	20857
854.72	20712
854.854	20902
854.988	20823
855.122	20785
855.256	20727
855.39	20777
855.524	20883
855.658	20834
855.792	20826
855.926	20876
856.06	20941
856.194	20864
856.327	20891
856.461	20689
856.595	20883
856.729	20739
856.862	20834
856.996	20838
857.13	20918
857.263	20906
857.397	20902
857.53	20743
857.664	20857
857.797	20785
857.931	20914
858.064	20891
858.197	20902
858.331	20800
858.464	20720
858.597	20758
858.731	20708
858.864	20800
858.997	20716
859.13	20796
859.263	20929
859.396	20887
859.529	20689
859.662	20720
859.795	20716
859.928	20735
860.061	20902
860.194	21009
860.327	20842
860.46	20686
860.592	20960
860.725	20975
860.858	20998
860.99	20830
861.123	20735
861.256	20701
861.388	20701
861.521	21485
861.653	20731
861.786	20537
861.918	20571
862.05	20632
862.183	20731
862.315	20876
862.447	20842
862.58	20712
862.712	20514
862.844	20431
862.976	20564
863.108	20636
863.24	21104
863.372	20594
863.504	20568
863.636	20549
863.768	20503
863.9	20522
864.032	20450
864.164	20408
864.296	20492
864.428	20594
864.559	20632
864.691	20560
864.823	20590
864.954	20568
865.086	20560
865.217	20381
865.349	20305
865.48	20309
865.612	20499
865.743	20518
865.875	20400
866.006	20320
866.137	20518
866.269	20446
866.4	20480
866.531	20469
866.662	20301
866.793	20309
866.924	20290
867.055	20389
867.186	20423
867.317	20298
867.448	20240
867.579	20309
867.71	20233
867.841	20275
867.972	20454
868.103	20358
868.233	20225
868.364	20324
868.495	20408
868.625	20568
868.756	20648
868.886	20556
869.017	20640
869.147	20712
869.278	20590
869.408	20602
869.539	20545
869.669	20777
869.799	20640
869.929	20834
870.06	20735
870.19	20929
870.32	20998
870.45	20952
870.58	20944
870.71	21150
870.84	20998
870.97	20967
871.1	21058
871.23	21211
871.36	21237
871.489	21169
871.619	21169
871.749	21306
871.879	21188
872.008	21367
872.138	21241
872.267	21245
872.397	21089
872.526	21127
872.656	20982
872.785	20982
872.915	21249
873.044	21313
873.173	21298
873.303	21218
873.432	21420
873.561	21351
873.69	21389
873.819	21256
873.948	21367
874.077	21256
874.206	21207
874.335	21302
874.464	21466
874.593	21477
874.722	21355
874.851	21504
874.979	21454
875.108	21545
875.237	21458
875.365	21428
875.494	21386
875.623	21549
875.751	21488
875.88	21454
876.008	21633
876.136	21667
876.265	21873
876.393	21895
876.521	21926
876.65	21915
876.778	21975
876.906	21804
877.034	21873
877.162	21838
877.29	21842
877.418	21892
877.546	21850
877.674	21827
877.802	21846
877.93	21690
878.058	21922
878.185	21667
878.313	21690
878.441	21770
878.568	21648
878.696	21789
878.824	21804
878.951	21907
879.079	22013
879.206	21994
879.333	22006
879.461	21850
879.588	21892
879.715	22017
879.842	22128
879.97	21922
880.097	21652
880.224	21694
880.351	21618
880.478	21842
880.605	21622
880.732	21736
880.859	21941
880.986	21610
881.112	21720
881.239	21610
881.366	21393
881.493	21359
881.619	21260
881.746	21332
881.872	21317
881.999	21291
882.125	21195
882.252	21313
882.378	21062
882.505	21291
882.631	21032
882.757	20971
882.883	21062
883.01	21062
883.136	20948
883.262	20864
883.388	20743
883.514	20918
883.64	20933
883.766	20944
883.892	20686
884.018	20758
884.143	20773
884.269	20941
884.395	20571
884.52	20606
884.646	20701
884.772	20609
884.897	20579
885.023	20598
885.148	20667
885.274	20762
885.399	20659
885.524	20507
885.65	20598
885.775	20556
885.9	20545
886.025	20651
886.15	20689
886.275	20465
886.4	20484
886.525	20514
886.65	20526
886.775	20530
886.9	20606
887.025	20758
887.149	20530
887.274	20400
887.399	20415
887.523	20305
887.648	20214
887.773	20240
887.897	20415
888.021	20374
888.146	20358
888.27	20415
888.395	20446
888.519	20465
888.643	20343
888.767	20427
888.891	20221
889.015	20214
889.139	20210
889.263	20126
889.387	20244
889.511	20438
889.635	20240
889.759	20092
889.883	20088
890.006	20164
890.13	20267
890.254	20096
890.377	20111
890.501	19940
890.624	19951
890.748	19894
890.871	19769
890.995	19769
891.118	19757
891.241	19753
891.364	19731
891.488	19852
891.611	19696
891.734	19727
891.857	19727
891.98	19712
892.103	19795
892.226	19666
892.349	19689
892.471	19514
892.594	19594
892.717	19788
892.839	19674
892.962	19674
893.085	19704
893.207	19712
893.33	19571
893.452	19605
893.575	19757
893.697	19628
893.819	19784
893.941	19803
894.064	19830
894.186	19666
894.308	19628
894.43	19753
894.552	19769
894.674	19791
894.796	19567
894.918	19708
895.04	19521
895.161	19769
895.283	19685
895.405	19609
895.526	19681
895.648	19639
895.769	19704
895.891	19788
896.012	19753
896.134	19696
896.255	19643
896.376	19639
896.498	19693
896.619	19742
896.74	19704
896.861	19689
896.982	20046
897.103	20187
897.224	19955
897.345	19989
897.466	19849
897.587	19909
897.708	20046
897.828	19909
897.949	19715
898.07	19780
898.19	19860
898.311	19959
898.431	19799
898.552	19879
898.672	19974
898.792	20058
898.913	19890
899.033	19791
899.153	19689
899.273	19571
899.393	19761
899.513	19727
899.633	19670
899.753	19689
899.873	19518
899.993	19674
900.113	19651
900.232	19578
900.352	19521
900.472	19476
900.591	19381
900.711	19430
900.83	19365
900.95	19677
901.069	19563
901.189	19316
901.308	19107
901.427	18985
901.546	18977
901.665	19050
901.784	18924
901.904	18783
902.023	18791
902.141	18593
902.26	18566
902.379	18673
902.498	18555
902.617	18547
902.735	18536
902.854	18551
902.973	18422
903.091	18270
903.21	18239
903.328	18224
903.446	18049
903.565	18034
903.683	17977
903.801	17828
903.919	18064
904.038	18015
904.156	17840
904.274	17813
904.392	17805
904.51	17805
904.627	17764
904.745	17946
904.863	17771
904.981	17608
905.098	17512
905.216	17414
905.334	17547
905.451	17497
905.569	17406
905.686	17440
905.803	17376
905.921	17353
906.038	17410
906.155	17242
906.272	17136
906.389	17136
906.506	16938
906.623	16953
906.74	17041
906.857	16896
906.974	16828
907.091	17022
907.208	17105
907.324	16980
907.441	16873
907.557	16824
907.674	16733
907.79	16656
907.907	16717
908.023	16725
908.139	16801
908.256	16584
908.372	16649
908.488	16649
908.604	16588
908.72	16379
908.836	16436
908.952	16371
909.068	16474
909.184	16618
909.3	16432
909.415	16523
909.531	16371
909.647	16158
909.762	16116
909.878	16059
909.993	16143
910.108	16086
910.224	16097
910.339	16147
910.454	16029
910.57	15880
910.685	15945
910.8	16223
910.915	16128
911.03	15922
911.145	15873
911.259	15743
911.374	15762
911.489	15637
911.604	15755
911.718	15523
911.833	15584
911.947	15477
912.062	15420
912.176	15515
912.291	15500
912.405	15500
912.519	15732
912.633	15694
912.748	15534
912.862	15443
912.976	15313
913.09	15272
913.204	15294
913.318	15317
913.431	15428
913.545	15393
913.659	15412
913.772	15207
913.886	15249
914	15043
914.113	15264
914.226	15252
914.34	15203
914.453	14952
914.566	15119
914.68	15062
914.793	14998
914.906	14785
915.019	14712
915.132	14610
915.245	14758
915.358	14758
915.47	14663
915.583	14758
915.696	14674
915.809	14895
915.921	14910
916.034	14735
916.146	14629
916.259	14655
916.371	14762
916.483	14632
916.595	14587
916.708	14594
916.82	14629
916.932	14636
917.044	14484
917.156	14526
917.268	14427
917.38	14530
917.491	14381
917.603	14446
917.715	14404
917.826	14610
917.938	14351
918.049	14298
918.161	14396
918.272	14526
918.384	14503
918.495	14298
918.606	14286
918.717	14096
918.828	14130
918.939	14256
919.05	14100
919.161	14111
919.272	13986
919.383	14027
919.494	14195
919.604	14309
919.715	14214
919.826	14088
919.936	14084
920.047	14221
920.157	14073
920.267	14317
920.378	14134
920.488	14195
920.598	14317
920.708	14415
920.818	14294
920.928	14298
921.038	14507
921.148	14332
921.258	14058
921.368	14035
921.477	13970
921.587	13791
921.697	13693
921.806	13959
921.916	13826
922.025	13510
922.134	13567
922.244	13567
922.353	13556
922.462	13468
922.571	13362
922.68	13331
922.789	13225
922.898	13221
923.007	13194
923.116	13282
923.224	13187
923.333	13149
923.442	13034
923.55	12977
923.659	13031
923.767	13091
923.876	13038
923.984	13057
924.092	12966
924.201	12894
924.309	12981
924.417	12970
924.525	12875
924.633	12848
924.741	13689
924.849	12662
924.956	12719
925.064	12669
925.172	12570
925.279	12673
925.387	12688
925.494	12696
925.602	12798
925.709	12700
925.816	12528
925.924	12570
926.031	12623
926.138	12528
926.245	12658
926.352	12479
926.459	12601
926.566	12639
926.673	12528
926.779	12395
926.886	12384
926.993	12266
927.099	12224
927.206	12205
927.312	12167
927.419	12258
927.525	12190
927.631	12319
927.737	12091
927.843	12003
927.95	12003
928.056	11984
928.162	12095
928.267	12060
928.373	12642
928.479	12140
928.585	11920
928.69	12011
928.796	12072
928.901	11851
929.007	11817
929.112	11916
929.218	11882
929.323	11767
929.428	11718
929.533	11874
929.638	11668
929.743	11695
929.848	11767
929.953	11745
930.058	11642
930.163	11486
930.267	11501
930.372	11649
930.477	11410
930.581	11699
930.685	11478
930.79	11345
930.894	11433
930.998	11250
931.103	11440
931.207	11064
931.311	11060
931.415	10961
931.519	10786
931.623	10733
