Data from test_V78500241_637.txt Node
Date: Fri Mar 25 15:14:17 CST 2022
User: usil
Spectrometer: V785-0024
Trigger mode: 0
Integration Time (sec): 4.000000E-1
Scans to average: 1
Nonlinearity correction enabled: false
Boxcar width: 0
Storing dark spectrum: false
XAxis mode: Wavelengths
Number of Pixels in Spectrum: 1024
>>>>>Begin Spectral Data<<<<<
801.071	27663
801.214	27549
801.356	27439
801.499	27306
801.641	27256
801.783	27233
801.926	27359
802.068	27340
802.211	27188
802.353	26979
802.496	26788
802.638	26956
802.78	26883
802.923	26811
803.065	26864
803.208	26857
803.35	27055
803.492	26937
803.635	27005
803.777	26990
803.919	27005
804.061	27294
804.204	27066
804.346	27055
804.488	26960
804.63	26914
804.773	26929
804.915	27039
805.057	27093
805.199	27077
805.341	27249
805.483	27199
805.626	27180
805.768	26986
805.91	27089
806.052	27192
806.194	27001
806.336	27329
806.478	27119
806.62	27150
806.762	27226
806.904	27359
807.046	27625
807.188	27481
807.33	27648
807.472	27717
807.614	27530
807.756	27583
807.898	27519
808.04	27401
808.182	27447
808.324	27462
808.465	27382
808.607	27583
808.749	27755
808.891	27797
809.033	27953
809.174	27968
809.316	27625
809.458	27785
809.6	27762
809.741	27953
809.883	27892
810.025	27899
810.166	28173
810.308	28109
810.45	27956
810.591	27949
810.733	27850
810.875	27743
811.016	27736
811.158	27637
811.299	27911
811.441	27953
811.582	27781
811.724	27861
811.865	27778
812.007	27682
812.148	27816
812.29	27899
812.431	27907
812.573	28067
812.714	28219
812.855	28344
812.997	28462
813.138	28531
813.279	28401
813.421	28382
813.562	28508
813.703	28223
813.845	28025
813.986	27857
814.127	27690
814.268	27526
814.41	27625
814.551	27294
814.692	27576
814.833	27408
814.974	27427
815.115	27538
815.256	27393
815.397	27469
815.539	27450
815.68	27241
815.821	27249
815.962	27245
816.103	27260
816.244	27249
816.385	27032
816.526	27165
816.666	26857
816.807	26796
816.948	26883
817.089	26937
817.23	26705
817.371	26880
817.512	26853
817.653	26769
817.793	26731
817.934	26682
818.075	26940
818.216	26727
818.356	26743
818.497	26674
818.638	26530
818.778	26476
818.919	26473
819.06	26621
819.2	26811
819.341	26758
819.481	26739
819.622	26960
819.762	27123
819.903	27055
820.043	26967
820.184	26902
820.324	26834
820.465	26952
820.605	27020
820.746	26933
820.886	26735
821.026	26864
821.167	26880
821.307	26982
821.447	26918
821.588	26758
821.728	26579
821.868	26552
822.008	26237
822.149	26233
822.289	26298
822.429	25944
822.569	25932
822.709	26077
822.849	25776
822.99	25772
823.13	25704
823.27	25723
823.41	25586
823.55	25491
823.69	25590
823.83	25647
823.97	25529
824.11	25369
824.25	25396
824.389	25487
824.529	25479
824.669	25407
824.809	25594
824.949	25445
825.089	25514
825.228	25438
825.368	25156
825.508	25293
825.648	25301
825.787	25396
825.927	25263
826.067	25426
826.206	25221
826.346	25400
826.485	25263
826.625	25324
826.765	25411
826.904	25240
827.044	25145
827.183	25103
827.323	24890
827.462	25015
827.601	25069
827.741	24954
827.88	24973
828.02	24905
828.159	25084
828.298	25110
828.437	25046
828.577	24958
828.716	25126
828.855	24772
828.994	24677
829.134	24696
829.273	24768
829.412	24700
829.551	24604
829.69	24772
829.829	24810
829.968	24715
830.107	24631
830.246	24722
830.385	24620
830.524	24551
830.663	24490
830.802	24414
830.941	24311
831.08	24281
831.219	24532
831.357	24277
831.496	24528
831.635	24232
831.774	24319
831.913	24171
832.051	24030
832.19	24133
832.329	24186
832.467	24133
832.606	23958
832.744	24045
832.883	23980
833.022	24095
833.16	23961
833.299	23999
833.437	24015
833.576	24125
833.714	24110
833.852	23996
833.991	24186
834.129	24117
834.267	24136
834.406	23988
834.544	24015
834.682	24095
834.821	23927
834.959	24190
835.097	24076
835.235	24041
835.373	23988
835.511	23946
835.65	23878
835.788	23999
835.926	23813
836.064	23691
836.202	23748
836.34	23866
836.478	23935
836.615	23958
836.753	23851
836.891	23912
837.029	23885
837.167	23783
837.305	23741
837.443	23843
837.58	23684
837.718	23889
837.856	23665
837.993	23684
838.131	23668
838.269	23630
838.406	23630
838.544	23638
838.681	23383
838.819	23341
838.956	23147
839.094	23105
839.231	23337
839.369	23448
839.506	23634
839.643	23497
839.781	23143
839.918	23204
840.055	23193
840.193	23170
840.33	23185
840.467	23071
840.604	23086
840.742	23452
840.879	23041
841.016	22938
841.153	22938
841.29	23189
841.427	23044
841.564	23174
841.701	23143
841.838	23132
841.975	22957
842.112	23044
842.249	22942
842.385	22847
842.522	22984
842.659	22976
842.796	22881
842.933	22873
843.069	22843
843.206	22824
843.343	22904
843.479	22968
843.616	22885
843.752	22592
843.889	22744
844.025	22816
844.162	22592
844.298	22858
844.435	22649
844.571	22615
844.708	22634
844.844	22824
844.98	22740
845.117	22763
845.253	22603
845.389	22413
845.525	22592
845.661	22508
845.798	22428
845.934	22546
846.07	22409
846.206	22363
846.342	22508
846.478	22474
846.614	22143
846.75	22086
846.886	22207
847.022	22097
847.158	22116
847.294	22204
847.429	22131
847.565	22044
847.701	22314
847.837	21934
847.972	21797
848.108	21991
848.244	21922
848.379	21759
848.515	21797
848.65	21671
848.786	21663
848.921	21755
849.057	21918
849.192	21770
849.328	21846
849.463	21679
849.598	21762
849.734	21507
849.869	21534
850.004	21450
850.14	21466
850.275	21450
850.41	21435
850.545	21439
850.68	21393
850.815	21549
850.95	21447
851.085	21644
851.22	21583
851.355	21466
851.49	21416
851.625	21526
851.76	21458
851.895	21393
852.03	21450
852.165	21389
852.299	21439
852.434	21614
852.569	21447
852.703	21389
852.838	21435
852.973	21553
853.107	21603
853.242	21336
853.376	21340
853.511	21249
853.645	21180
853.78	21526
853.914	21351
854.048	21348
854.183	21294
854.317	21226
854.451	21595
854.585	21302
854.72	21302
854.854	21397
854.988	21150
855.122	21249
855.256	21135
855.39	21203
855.524	21222
855.658	21199
855.792	21291
855.926	21355
856.06	21378
856.194	21370
856.327	21351
856.461	21291
856.595	21283
856.729	21214
856.862	21291
856.996	21275
857.13	21325
857.263	21485
857.397	21389
857.53	21195
857.664	21359
857.797	21351
857.931	21416
858.064	21374
858.197	21420
858.331	21203
858.464	21176
858.597	21218
858.731	21298
858.864	21260
858.997	21298
859.13	21329
859.263	21389
859.396	21348
859.529	21378
859.662	21302
859.795	21203
859.928	21237
860.061	21447
860.194	21496
860.327	21412
860.46	21275
860.592	21412
860.725	21435
860.858	21485
860.99	21245
861.123	21192
861.256	21279
861.388	21291
861.521	22116
861.653	21211
861.786	21096
861.918	21176
862.05	21264
862.183	21230
862.315	21188
862.447	21306
862.58	21218
862.712	20998
862.844	21077
862.976	21184
863.108	20929
863.24	21564
863.372	21036
863.504	21062
863.636	20838
863.768	21055
863.9	20918
864.032	20887
864.164	21032
864.296	20967
864.428	20998
864.559	21043
864.691	21104
864.823	21146
864.954	20990
865.086	20982
865.217	20979
865.349	20834
865.48	20921
865.612	20979
865.743	21062
865.875	21005
866.006	20868
866.137	20960
866.269	20899
866.4	20937
866.531	20921
866.662	20868
866.793	20823
866.924	20781
867.055	20762
867.186	20887
867.317	20933
867.448	20754
867.579	20857
867.71	20842
867.841	20834
867.972	20758
868.103	20826
868.233	20929
868.364	20925
868.495	20899
868.625	21146
868.756	21287
868.886	21051
869.017	20975
869.147	21211
869.278	21119
869.408	21108
869.539	21108
869.669	21093
869.799	21146
869.929	21165
870.06	21154
870.19	21389
870.32	21370
870.45	21313
870.58	21443
870.71	21523
870.84	21458
870.97	21523
871.1	21538
871.23	21580
871.36	21583
871.489	21485
871.619	21724
871.749	21568
871.879	21641
872.008	21739
872.138	21641
872.267	21606
872.397	21526
872.526	21534
872.656	21545
872.785	21500
872.915	21743
873.044	21747
873.173	21511
873.303	21823
873.432	21751
873.561	21751
873.69	21701
873.819	21660
873.948	21793
874.077	21766
874.206	21625
874.335	21743
874.464	21751
874.593	22013
874.722	21846
874.851	21968
874.979	21823
875.108	21911
875.237	21865
875.365	21812
875.494	21979
875.623	21907
875.751	21698
875.88	22010
876.008	22013
876.136	22059
876.265	22196
876.393	22481
876.521	22341
876.65	22382
876.778	22363
876.906	22192
877.034	22226
877.162	22238
877.29	22097
877.418	22287
877.546	22287
877.674	22253
877.802	22333
877.93	22299
878.058	22223
878.185	22154
878.313	22246
878.441	22276
878.568	22101
878.696	22124
878.824	22363
878.951	22394
879.079	22409
879.206	22447
879.333	22390
879.461	22147
879.588	22497
879.715	22447
879.842	22512
879.97	22348
880.097	22051
880.224	22185
880.351	22029
880.478	22029
880.605	21975
880.732	22090
880.859	22211
880.986	22090
881.112	22051
881.239	22025
881.366	21983
881.493	21850
881.619	21580
881.746	21728
881.872	21614
881.999	21671
882.125	21496
882.252	21724
882.378	21762
882.505	21660
882.631	21564
882.757	21420
882.883	21530
883.01	21317
883.136	21310
883.262	21245
883.388	21119
883.514	21397
883.64	21469
883.766	21363
883.892	21127
884.018	21256
884.143	21249
884.269	21367
884.395	21138
884.52	20948
884.646	21001
884.772	20868
884.897	20796
885.023	20918
885.148	20990
885.274	21058
885.399	21085
885.524	21089
885.65	21024
885.775	20963
885.9	20910
886.025	21100
886.15	20967
886.275	20979
886.4	20872
886.525	20811
886.65	20895
886.775	20849
886.9	21074
887.025	21165
887.149	20929
887.274	20849
887.399	20708
887.523	20724
887.648	20804
887.773	20552
887.897	20941
888.021	20811
888.146	20583
888.27	20853
888.395	20880
888.519	20861
888.643	20838
888.767	20716
888.891	20594
889.015	20609
889.139	20693
889.263	20613
889.387	20636
889.511	20693
889.635	20636
889.759	20423
889.883	20457
890.006	20446
890.13	20708
890.254	20404
890.377	20442
890.501	20355
890.624	20362
890.748	20339
890.871	20229
890.995	20206
891.118	20058
891.241	20176
891.364	20191
891.488	20370
891.611	20126
891.734	20107
891.857	20073
891.98	20164
892.103	20077
892.226	20107
892.349	20039
892.471	19925
892.594	20069
892.717	20157
892.839	20058
892.962	20012
893.085	20058
893.207	20043
893.33	19913
893.452	19921
893.575	20065
893.697	20035
893.819	20153
893.941	20275
894.064	20168
894.186	20092
894.308	20043
894.43	20035
894.552	20195
894.674	20115
894.796	20046
894.918	20050
895.04	20008
895.161	20119
895.283	19951
895.405	19989
895.526	20001
895.648	19989
895.769	20012
895.891	20050
896.012	20138
896.134	19963
896.255	19993
896.376	20031
896.498	20016
896.619	20035
896.74	20088
896.861	20164
896.982	20324
897.103	20434
897.224	20328
897.345	20195
897.466	20309
897.587	20221
897.708	20412
897.828	20157
897.949	20176
898.07	20115
898.19	20115
898.311	20393
898.431	20161
898.552	20183
898.672	20263
898.792	20210
898.913	20317
899.033	20168
899.153	20122
899.273	20001
899.393	20107
899.513	20096
899.633	20016
899.753	20031
899.873	19940
899.993	20069
900.113	19826
900.232	20016
900.352	19887
900.472	19845
900.591	19727
900.711	19784
900.83	19742
900.95	19989
901.069	19963
901.189	19738
901.308	19403
901.427	19362
901.546	19460
901.665	19327
901.784	19453
901.904	19175
902.023	19198
902.141	18943
902.26	18814
902.379	18973
902.498	18966
902.617	18810
902.735	19012
902.854	18806
902.973	18779
903.091	18593
903.21	18578
903.328	18551
903.446	18467
903.565	18346
903.683	18254
903.801	18243
903.919	18384
904.038	18243
904.156	18148
904.274	18247
904.392	18076
904.51	18053
904.627	18076
904.745	18129
904.863	18228
904.981	17984
905.098	17802
905.216	17805
905.334	17859
905.451	17828
905.569	17809
905.686	17748
905.803	17783
905.921	17505
906.038	17741
906.155	17680
906.272	17490
906.389	17440
906.506	17433
906.623	17322
906.74	17387
906.857	17220
906.974	17258
907.091	17376
907.208	17395
907.324	17376
907.441	17189
907.557	17079
907.674	17045
907.79	17037
907.907	17048
908.023	17029
908.139	17052
908.256	16938
908.372	17025
908.488	16961
908.604	16782
908.72	16679
908.836	16801
908.952	16774
909.068	16843
909.184	16786
909.3	16927
909.415	16850
909.531	16717
909.647	16504
909.762	16489
909.878	16363
909.993	16535
910.108	16398
910.224	16409
910.339	16538
910.454	16344
910.57	16322
910.685	16246
910.8	16558
910.915	16478
911.03	16299
911.145	16120
911.259	16124
911.374	16124
911.489	16124
911.604	16025
911.718	15835
911.833	15857
911.947	15671
912.062	15690
912.176	15755
912.291	15884
912.405	15816
912.519	15972
912.633	15930
912.748	15998
912.862	15686
912.976	15610
913.09	15488
913.204	15618
913.318	15637
913.431	15705
913.545	15793
913.659	15663
913.772	15641
913.886	15393
914	15473
914.113	15568
914.226	15633
914.34	15485
914.453	15340
914.566	15496
914.68	15351
914.793	15245
914.906	15150
915.019	14990
915.132	14925
915.245	15089
915.358	15157
915.47	15032
915.583	15062
915.696	15047
915.809	15161
915.921	15218
916.034	14921
916.146	14899
916.259	14887
916.371	15047
916.483	15024
916.595	14899
916.708	14956
916.82	14819
916.932	14876
917.044	14750
917.156	14826
917.268	14659
917.38	14629
917.491	14682
917.603	14697
917.715	14754
917.826	14773
917.938	14720
918.049	14571
918.161	14678
918.272	14788
918.384	14712
918.495	14575
918.606	14507
918.717	14473
918.828	14492
918.939	14366
919.05	14358
919.161	14427
919.272	14286
919.383	14358
919.494	14518
919.604	14689
919.715	14454
919.826	14362
919.936	14450
920.047	14514
920.157	14556
920.267	14602
920.378	14484
920.488	14366
920.598	14549
920.708	14750
920.818	14552
920.928	14518
921.038	14754
921.148	14727
921.258	14438
921.368	14275
921.477	14168
921.587	14172
921.697	14142
921.806	14077
921.916	13932
922.025	13906
922.134	13864
922.244	13624
922.353	13887
922.462	13719
922.571	13693
922.68	13506
922.789	13422
922.898	13472
923.007	13400
923.116	13400
923.224	13422
923.333	13343
923.442	13369
923.55	13308
923.659	13304
923.767	13445
923.876	13225
923.984	13365
924.092	13209
924.201	13263
924.309	13126
924.417	13190
924.525	13141
924.633	13225
924.741	13925
924.849	12943
924.956	13080
925.064	12962
925.172	12863
925.279	12882
925.387	12901
925.494	12958
925.602	12981
925.709	12894
925.816	12810
925.924	12848
926.031	12993
926.138	12814
926.245	12840
926.352	12700
926.459	12928
926.566	12973
926.673	12734
926.779	12654
926.886	12620
926.993	12521
927.099	12551
927.206	12422
927.312	12414
927.419	12502
927.525	12479
927.631	12452
927.737	12384
927.843	12327
927.95	12247
928.056	12289
928.162	12247
928.267	12315
928.373	12932
928.479	12422
928.585	12175
928.69	12216
928.796	12262
928.901	12106
929.007	11980
929.112	12102
929.218	12110
929.323	12064
929.428	11999
929.533	12057
929.638	11999
929.743	11999
929.848	11980
929.953	11908
930.058	11824
930.163	11699
930.267	11699
930.372	11836
930.477	11668
930.581	11836
930.685	11668
930.79	11619
930.894	11600
930.998	11512
931.103	11714
931.207	11395
931.311	11307
931.415	11159
931.519	10866
931.623	10972
