Data from test_V78500241_1010.txt Node
Date: Fri Mar 25 15:16:53 CST 2022
User: usil
Spectrometer: V785-0024
Trigger mode: 0
Integration Time (sec): 4.000000E-1
Scans to average: 1
Nonlinearity correction enabled: false
Boxcar width: 0
Storing dark spectrum: false
XAxis mode: Wavelengths
Number of Pixels in Spectrum: 1024
>>>>>Begin Spectral Data<<<<<
801.071	28390
801.214	28276
801.356	27934
801.499	27945
801.641	27876
801.783	27812
801.926	27800
802.068	27835
802.211	27781
802.353	27747
802.496	27511
802.638	27538
802.78	27458
802.923	27329
803.065	27545
803.208	27386
803.35	27523
803.492	27557
803.635	27713
803.777	27515
803.919	27739
804.061	28048
804.204	27713
804.346	27732
804.488	27591
804.63	27690
804.773	27564
804.915	27876
805.057	27751
805.199	27739
805.341	27812
805.483	27926
805.626	27800
805.768	27713
805.91	27892
806.052	27857
806.194	27762
806.336	28109
806.478	27884
806.62	27983
806.762	27854
806.904	28177
807.046	28367
807.188	28352
807.33	28253
807.472	28382
807.614	28188
807.756	28363
807.898	28131
808.04	28029
808.182	28006
808.324	28204
808.465	28128
808.607	28348
808.749	28421
808.891	28592
809.033	28660
809.174	28596
809.316	28481
809.458	28637
809.6	28466
809.741	28618
809.883	28698
810.025	28843
810.166	28942
810.308	28839
810.45	28717
810.591	28786
810.733	28565
810.875	28538
811.016	28367
811.158	28489
811.299	28546
811.441	28596
811.582	28691
811.724	28561
811.865	28527
812.007	28516
812.148	28561
812.29	28542
812.431	28691
812.573	28885
812.714	28919
812.855	29105
812.997	29178
813.138	29303
813.279	29288
813.421	29128
813.562	28957
813.703	28915
813.845	28702
813.986	28519
814.127	28329
814.268	28352
814.41	28265
814.551	28246
814.692	28291
814.833	28120
814.974	28272
815.115	28169
815.256	28147
815.397	28051
815.539	28002
815.68	28124
815.821	28051
815.962	28051
816.103	28025
816.244	27922
816.385	27888
816.526	27861
816.666	27610
816.807	27583
816.948	27538
817.089	27644
817.23	27622
817.371	27504
817.512	27759
817.653	27675
817.793	27595
817.934	27454
818.075	27561
818.216	27599
818.356	27549
818.497	27431
818.638	27363
818.778	27287
818.919	27188
819.06	27386
819.2	27382
819.341	27504
819.481	27523
819.622	27694
819.762	27854
819.903	27930
820.043	27876
820.184	27701
820.324	27789
820.465	27705
820.605	27778
820.746	27720
820.886	27667
821.026	27656
821.167	27713
821.307	27728
821.447	27637
821.588	27469
821.728	27283
821.868	27150
822.008	27142
822.149	27066
822.289	27017
822.429	26883
822.569	26708
822.709	26655
822.849	26564
822.99	26594
823.13	26533
823.27	26629
823.41	26511
823.55	26263
823.69	26533
823.83	26465
823.97	26343
824.11	26142
824.25	26271
824.389	26263
824.529	26377
824.669	26183
824.809	26385
824.949	26282
825.089	26377
825.228	26286
825.368	26157
825.508	26157
825.648	26031
825.787	26183
825.927	26153
826.067	26115
826.206	26092
826.346	26237
826.485	26195
826.625	26035
826.765	26252
826.904	26134
827.044	25921
827.183	25928
827.323	25685
827.462	25917
827.601	25788
827.741	25791
827.88	25925
828.02	25613
828.159	25746
828.298	25765
828.437	26035
828.577	25826
828.716	25791
828.855	25677
828.994	25529
829.134	25582
829.273	25575
829.412	25464
829.551	25476
829.69	25521
829.829	25586
829.968	25693
830.107	25613
830.246	25575
830.385	25468
830.524	25525
830.663	25183
830.802	25289
830.941	25133
831.08	25072
831.219	25312
831.357	25266
831.496	25354
831.635	25110
831.774	25152
831.913	25107
832.051	24954
832.19	24947
832.329	24958
832.467	24859
832.606	24798
832.744	24757
832.883	24882
833.022	24852
833.16	24928
833.299	24935
833.437	24890
833.576	24848
833.714	24966
833.852	24878
833.991	24962
834.129	25034
834.267	24932
834.406	24966
834.544	25012
834.682	24973
834.821	24814
834.959	25023
835.097	24844
835.235	24875
835.373	24798
835.511	24943
835.65	24760
835.788	24707
835.926	24684
836.064	24646
836.202	24631
836.34	24627
836.478	24848
836.615	24726
836.753	24817
836.891	24692
837.029	24783
837.167	24703
837.305	24696
837.443	24490
837.58	24566
837.718	24597
837.856	24570
837.993	24490
838.131	24646
838.269	24460
838.406	24479
838.544	24376
838.681	24254
838.819	24167
838.956	24182
839.094	23992
839.231	24117
839.369	24232
839.506	24429
839.643	24228
839.781	24087
839.918	23942
840.055	24125
840.193	24003
840.33	23946
840.467	23927
840.604	23954
840.742	24190
840.879	23756
841.016	23866
841.153	23908
841.29	24068
841.427	23897
841.564	24041
841.701	23920
841.838	23878
841.975	23904
842.112	23729
842.249	23745
842.385	23699
842.522	23920
842.659	23756
842.796	23589
842.933	23707
843.069	23596
843.206	23535
843.343	23771
843.479	23802
843.616	23775
843.752	23531
843.889	23615
844.025	23596
844.162	23531
844.298	23646
844.435	23330
844.571	23516
844.708	23619
844.844	23543
844.98	23623
845.117	23646
845.253	23455
845.389	23376
845.525	23410
845.661	23414
845.798	23231
845.934	23280
846.07	23296
846.206	23311
846.342	23296
846.478	23174
846.614	22987
846.75	22908
846.886	22858
847.022	23010
847.158	22923
847.294	22980
847.429	22923
847.565	22987
847.701	23128
847.837	22649
847.972	22630
848.108	22786
848.244	22611
848.379	22462
848.515	22561
848.65	22497
848.786	22569
848.921	22504
849.057	22634
849.192	22577
849.328	22451
849.463	22630
849.598	22516
849.734	22436
849.869	22382
850.004	22246
850.14	22303
850.275	22154
850.41	22314
850.545	22246
850.68	22306
850.815	22166
850.95	22344
851.085	22390
851.22	22402
851.355	22200
851.49	22280
851.625	22333
851.76	22211
851.895	22185
852.03	22112
852.165	22211
852.299	22371
852.434	22325
852.569	22306
852.703	22402
852.838	22417
852.973	22459
853.107	22394
853.242	22234
853.376	22173
853.511	21888
853.645	22048
853.78	22188
853.914	22181
854.048	22207
854.183	22051
854.317	22150
854.451	22322
854.585	22211
854.72	22097
854.854	22226
854.988	22078
855.122	22112
855.256	22040
855.39	22090
855.524	22173
855.658	22150
855.792	22112
855.926	22070
856.06	22249
856.194	22265
856.327	22055
856.461	22013
856.595	22086
856.729	22196
856.862	22253
856.996	22078
857.13	22211
857.263	22299
857.397	22162
857.53	22078
857.664	22093
857.797	22219
857.931	22287
858.064	22177
858.197	22211
858.331	22017
858.464	22055
858.597	22025
858.731	22032
858.864	22116
858.997	22040
859.13	22120
859.263	22029
859.396	22253
859.529	21998
859.662	22169
859.795	22109
859.928	21930
860.061	22299
860.194	22322
860.327	22139
860.46	22097
860.592	22181
860.725	22325
860.858	22272
860.99	22124
861.123	22032
861.256	22078
861.388	22067
861.521	22850
861.653	22090
861.786	21842
861.918	22154
862.05	22078
862.183	21945
862.315	22025
862.447	22234
862.58	22017
862.712	21709
862.844	21884
862.976	21861
863.108	21808
863.24	22200
863.372	21698
863.504	21762
863.636	21812
863.768	21869
863.9	21762
864.032	21686
864.164	21808
864.296	21823
864.428	21892
864.559	21888
864.691	21850
864.823	21778
864.954	21800
865.086	21884
865.217	21599
865.349	21690
865.48	21793
865.612	21629
865.743	21884
865.875	21656
866.006	21724
866.137	21720
866.269	21739
866.4	21595
866.531	21603
866.662	21595
866.793	21637
866.924	21766
867.055	21701
867.186	21694
867.317	21477
867.448	21504
867.579	21648
867.71	21545
867.841	21500
867.972	21644
868.103	21549
868.233	21625
868.364	21633
868.495	21690
868.625	21861
868.756	21895
868.886	21892
869.017	21762
869.147	21895
869.278	21926
869.408	21865
869.539	21899
869.669	21922
869.799	21861
869.929	21991
870.06	21869
870.19	22272
870.32	22158
870.45	22200
870.58	22162
870.71	22280
870.84	22276
870.97	22215
871.1	22192
871.23	22447
871.36	22261
871.489	22280
871.619	22440
871.749	22394
871.879	22474
872.008	22481
872.138	22421
872.267	22390
872.397	22432
872.526	22310
872.656	22242
872.785	22242
872.915	22478
873.044	22546
873.173	22470
873.303	22542
873.432	22466
873.561	22622
873.69	22512
873.819	22527
873.948	22580
874.077	22447
874.206	22348
874.335	22440
874.464	22698
874.593	22656
874.722	22637
874.851	22721
874.979	22611
875.108	22835
875.237	22656
875.365	22626
875.494	22561
875.623	22733
875.751	22573
875.88	22717
876.008	22919
876.136	22790
876.265	23064
876.393	23170
876.521	23166
876.65	23151
876.778	23006
876.906	23056
877.034	23006
877.162	23090
877.29	22995
877.418	23010
877.546	23003
877.674	23029
877.802	22984
877.93	22930
878.058	23014
878.185	22961
878.313	22915
878.441	23003
878.568	22755
878.696	22923
878.824	23037
878.951	23029
879.079	23223
879.206	23414
879.333	23261
879.461	23006
879.588	23189
879.715	23261
879.842	23368
879.97	23041
880.097	22809
880.224	22858
880.351	23003
880.478	22828
880.605	22889
880.732	22877
880.859	22999
880.986	22816
881.112	22900
881.239	22611
881.366	22656
881.493	22481
881.619	22341
881.746	22455
881.872	22508
881.999	22436
882.125	22402
882.252	22371
882.378	22413
882.505	22557
882.631	22257
882.757	22131
882.883	22116
883.01	22162
883.136	22124
883.262	22029
883.388	21953
883.514	22192
883.64	22002
883.766	21926
883.892	21918
884.018	21876
884.143	22090
884.269	22177
884.395	21800
884.52	21675
884.646	21739
884.772	21633
884.897	21652
885.023	21755
885.148	21953
885.274	21793
885.399	21762
885.524	21736
885.65	21583
885.775	21759
885.9	21648
886.025	21804
886.15	21873
886.275	21686
886.4	21625
886.525	21614
886.65	21644
886.775	21637
886.9	21884
887.025	21926
887.149	21618
887.274	21633
887.399	21526
887.523	21538
887.648	21507
887.773	21325
887.897	21507
888.021	21462
888.146	21336
888.27	21492
888.395	21698
888.519	21462
888.643	21629
888.767	21454
888.891	21412
889.015	21355
889.139	21397
889.263	21260
889.387	21389
889.511	21428
889.635	21416
889.759	21260
889.883	21157
890.006	21374
890.13	21359
890.254	21150
890.377	21279
890.501	21195
890.624	20921
890.748	21062
890.871	21047
890.995	20815
891.118	20708
891.241	20971
891.364	20853
891.488	20963
891.611	20864
891.734	20872
891.857	20925
891.98	20765
892.103	20914
892.226	20925
892.349	20739
892.471	20556
892.594	20754
892.717	20731
892.839	20655
892.962	20811
893.085	20762
893.207	20712
893.33	20587
893.452	20667
893.575	20739
893.697	20609
893.819	20857
893.941	21043
894.064	20914
894.186	20606
894.308	20686
894.43	20857
894.552	20883
894.674	20746
894.796	20640
894.918	20777
895.04	20613
895.161	20724
895.283	20663
895.405	20579
895.526	20773
895.648	20651
895.769	20689
895.891	20727
896.012	20765
896.134	20659
896.255	20644
896.376	20727
896.498	20743
896.619	20762
896.74	20720
896.861	20857
896.982	20956
897.103	21195
897.224	20975
897.345	20929
897.466	20785
897.587	20853
897.708	20975
897.828	20937
897.949	20918
898.07	20819
898.19	20804
898.311	20948
898.431	20834
898.552	20769
898.672	20925
898.792	20899
898.913	20910
899.033	20845
899.153	20663
899.273	20613
899.393	20533
899.513	20731
899.633	20708
899.753	20644
899.873	20556
899.993	20693
900.113	20492
900.232	20594
900.352	20446
900.472	20465
900.591	20362
900.711	20396
900.83	20370
900.95	20492
901.069	20450
901.189	20415
901.308	20065
901.427	20054
901.546	20016
901.665	20100
901.784	20035
901.904	19753
902.023	19723
902.141	19506
902.26	19548
902.379	19575
902.498	19495
902.617	19506
902.735	19529
902.854	19480
902.973	19468
903.091	19171
903.21	19141
903.328	19141
903.446	19000
903.565	19027
903.683	19042
903.801	18890
903.919	18939
904.038	18878
904.156	18738
904.274	18863
904.392	18665
904.51	18650
904.627	18711
904.745	18722
904.863	18764
904.981	18532
905.098	18407
905.216	18407
905.334	18437
905.451	18407
905.569	18407
905.686	18441
905.803	18433
905.921	18197
906.038	18311
906.155	18106
906.272	18098
906.389	18095
906.506	17904
906.623	18019
906.74	17969
906.857	17802
906.974	17802
907.091	17939
907.208	18019
907.324	18034
907.441	17927
907.557	17710
907.674	17577
907.79	17604
907.907	17520
908.023	17665
908.139	17665
908.256	17653
908.372	17566
908.488	17463
908.604	17406
908.72	17391
908.836	17440
908.952	17353
909.068	17360
909.184	17543
909.3	17345
909.415	17364
909.531	17292
909.647	17090
909.762	17037
909.878	17033
909.993	17083
910.108	16987
910.224	17071
910.339	16930
910.454	16930
910.57	16812
910.685	16717
910.8	17189
910.915	17071
911.03	16896
911.145	16653
911.259	16596
911.374	16679
911.489	16649
911.604	16535
911.718	16333
911.833	16398
911.947	16306
912.062	16223
912.176	16306
912.291	16322
912.405	16344
912.519	16538
912.633	16588
912.748	16344
912.862	16249
912.976	16284
913.09	16105
913.204	16215
913.318	16253
913.431	16367
913.545	16268
913.659	16314
913.772	16211
913.886	16055
914	15987
914.113	16086
914.226	16078
914.34	16090
914.453	15888
914.566	16017
914.68	15987
914.793	15949
914.906	15720
915.019	15625
915.132	15504
915.245	15663
915.358	15530
915.47	15637
915.583	15564
915.696	15580
915.809	15667
915.921	15667
916.034	15530
916.146	15519
916.259	15389
916.371	15507
916.483	15561
916.595	15435
916.708	15405
916.82	15348
916.932	15272
917.044	15226
917.156	15249
917.268	15241
917.38	15226
917.491	15165
917.603	15252
917.715	15325
917.826	15298
917.938	15127
918.049	15017
918.161	15112
918.272	15306
918.384	15298
918.495	15112
918.606	15081
918.717	14952
918.828	14921
918.939	14971
919.05	14785
919.161	14994
919.272	14819
919.383	14830
919.494	14986
919.604	15192
919.715	14899
919.826	14857
919.936	14868
920.047	15020
920.157	14899
920.267	15070
920.378	14967
920.488	14921
920.598	15051
920.708	15275
920.818	14971
920.928	15009
921.038	15180
921.148	15169
921.258	14880
921.368	14765
921.477	14697
921.587	14511
921.697	14473
921.806	14590
921.916	14533
922.025	14358
922.134	14259
922.244	14161
922.353	14305
922.462	14138
922.571	14031
922.68	14024
922.789	13898
922.898	13944
923.007	13887
923.116	14005
923.224	13951
923.333	13845
923.442	13784
923.55	13803
923.659	13841
923.767	13780
923.876	13677
923.984	13841
924.092	13636
924.201	13620
924.309	13712
924.417	13677
924.525	13502
924.633	13597
924.741	14492
924.849	13384
924.956	13453
925.064	13285
925.172	13304
925.279	13320
925.387	13301
925.494	13411
925.602	13457
925.709	13381
925.816	13206
925.924	13339
926.031	13266
926.138	13171
926.245	13346
926.352	13122
926.459	13259
926.566	13358
926.673	13164
926.779	13160
926.886	13107
926.993	12928
927.099	12764
927.206	12840
927.312	12878
927.419	12859
927.525	12821
927.631	12837
927.737	12802
927.843	12722
927.95	12749
928.056	12639
928.162	12669
928.267	12692
928.373	13156
928.479	12627
928.585	12521
928.69	12563
928.796	12753
928.901	12563
929.007	12414
929.112	12547
929.218	12452
929.323	12456
929.428	12292
929.533	12528
929.638	12300
929.743	12445
929.848	12296
929.953	12300
930.058	12334
930.163	12038
930.267	12041
930.372	12167
930.477	12045
930.581	12346
930.685	12163
930.79	11946
930.894	11950
930.998	11897
931.103	12064
931.207	11649
931.311	11668
931.415	11532
931.519	11436
931.623	11280
