Data from test_V78500241_1869.txt Node
Date: Fri Mar 25 15:22:52 CST 2022
User: usil
Spectrometer: V785-0024
Trigger mode: 0
Integration Time (sec): 4.000000E-1
Scans to average: 1
Nonlinearity correction enabled: false
Boxcar width: 0
Storing dark spectrum: false
XAxis mode: Wavelengths
Number of Pixels in Spectrum: 1024
>>>>>Begin Spectral Data<<<<<
801.071	27876
801.214	27819
801.356	27542
801.499	27481
801.641	27515
801.783	27416
801.926	27405
802.068	27405
802.211	27272
802.353	27192
802.496	27077
802.638	27119
802.78	27138
802.923	27013
803.065	26967
803.208	26944
803.35	27077
803.492	27138
803.635	27146
803.777	27093
803.919	27268
804.061	27408
804.204	27298
804.346	27112
804.488	27100
804.63	27188
804.773	27188
804.915	27127
805.057	27313
805.199	27123
805.341	27302
805.483	27420
805.626	27397
805.768	27214
805.91	27291
806.052	27260
806.194	27279
806.336	27515
806.478	27424
806.62	27306
806.762	27310
806.904	27667
807.046	27732
807.188	27599
807.33	27751
807.472	27755
807.614	27652
807.756	27747
807.898	27656
808.04	27580
808.182	27641
808.324	27686
808.465	27622
808.607	27934
808.749	27964
808.891	28055
809.033	28154
809.174	28086
809.316	27956
809.458	27876
809.6	27914
809.741	28044
809.883	28120
810.025	28226
810.166	28154
810.308	28204
810.45	28169
810.591	28162
810.733	28017
810.875	28051
811.016	27827
811.158	27717
811.299	27934
811.441	28055
811.582	28147
811.724	28013
811.865	28025
812.007	28044
812.148	28010
812.29	27903
812.431	28230
812.573	28333
812.714	28291
812.855	28596
812.997	28538
813.138	28717
813.279	28550
813.421	28508
813.562	28405
813.703	28352
813.845	28169
813.986	27953
814.127	27652
814.268	27644
814.41	27705
814.551	27629
814.692	27713
814.833	27625
814.974	27679
815.115	27739
815.256	27618
815.397	27595
815.539	27564
815.68	27359
815.821	27435
815.962	27405
816.103	27370
816.244	27427
816.385	27313
816.526	27135
816.666	27001
816.807	27055
816.948	26960
817.089	27020
817.23	27001
817.371	26956
817.512	26952
817.653	26819
817.793	26986
817.934	26967
818.075	26910
818.216	27066
818.356	27020
818.497	26948
818.638	26697
818.778	26659
818.919	26826
819.06	26746
819.2	26876
819.341	26925
819.481	26849
819.622	27039
819.762	27325
819.903	27294
820.043	27112
820.184	27024
820.324	27142
820.465	27051
820.605	26967
820.746	27085
820.886	26940
821.026	26979
821.167	27138
821.307	26998
821.447	27024
821.588	26895
821.728	26743
821.868	26492
822.008	26541
822.149	26355
822.289	26469
822.429	26134
822.569	26145
822.709	26164
822.849	25898
822.99	25978
823.13	25951
823.27	25871
823.41	25746
823.55	25647
823.69	25719
823.83	25871
823.97	25799
824.11	25422
824.25	25441
824.389	25556
824.529	25670
824.669	25613
824.809	25655
824.949	25693
825.089	25575
825.228	25613
825.368	25476
825.508	25460
825.648	25483
825.787	25487
825.927	25559
826.067	25476
826.206	25533
826.346	25499
826.485	25483
826.625	25506
826.765	25613
826.904	25377
827.044	25175
827.183	25145
827.323	25091
827.462	25168
827.601	25099
827.741	25095
827.88	25232
828.02	25015
828.159	25190
828.298	25175
828.437	25255
828.577	25168
828.716	25308
828.855	25148
828.994	24791
829.134	24897
829.273	24886
829.412	24886
829.551	24779
829.69	24890
829.829	24901
829.968	24871
830.107	24916
830.246	24871
830.385	24916
830.524	24753
830.663	24559
830.802	24673
830.941	24448
831.08	24540
831.219	24661
831.357	24669
831.496	24749
831.635	24380
831.774	24604
831.913	24372
832.051	24292
832.19	24353
832.329	24388
832.467	24273
832.606	24125
832.744	24194
832.883	24186
833.022	24091
833.16	24258
833.299	24182
833.437	24152
833.576	24152
833.714	24315
833.852	24258
833.991	24220
834.129	24327
834.267	24346
834.406	24346
834.544	24213
834.682	24186
834.821	24209
834.959	24498
835.097	24129
835.235	24311
835.373	24197
835.511	24228
835.65	24053
835.788	23999
835.926	24041
836.064	23999
836.202	23920
836.34	23927
836.478	24129
836.615	24041
836.753	24155
836.891	24148
837.029	24034
837.167	24064
837.305	24003
837.443	23950
837.58	23836
837.718	24003
837.856	23889
837.993	23889
838.131	23980
838.269	23859
838.406	23847
838.544	23714
838.681	23570
838.819	23585
838.956	23387
839.094	23311
839.231	23585
839.369	23695
839.506	23695
839.643	23665
839.781	23288
839.918	23391
840.055	23421
840.193	23376
840.33	23223
840.467	23383
840.604	23353
840.742	23611
840.879	23189
841.016	23204
841.153	23162
841.29	23482
841.427	23356
841.564	23474
841.701	23383
841.838	23341
841.975	23174
842.112	23216
842.249	23166
842.385	23018
842.522	23265
842.659	23147
842.796	23113
842.933	23025
843.069	23071
843.206	23033
843.343	23109
843.479	23159
843.616	22995
843.752	22869
843.889	22881
844.025	23025
844.162	22854
844.298	23006
844.435	22805
844.571	22763
844.708	22816
844.844	23060
844.98	23033
845.117	22839
845.253	22771
845.389	22630
845.525	22569
845.661	22561
845.798	22611
845.934	22565
846.07	22550
846.206	22592
846.342	22694
846.478	22603
846.614	22363
846.75	22249
846.886	22261
847.022	22337
847.158	22390
847.294	22318
847.429	22272
847.565	22375
847.701	22508
847.837	22070
847.972	21880
848.108	22101
848.244	22067
848.379	22036
848.515	21895
848.65	21907
848.786	21880
848.921	21979
849.057	21949
849.192	21975
849.328	21930
849.463	21930
849.598	21823
849.734	21686
849.869	21747
850.004	21709
850.14	21633
850.275	21701
850.41	21553
850.545	21553
850.68	21622
850.815	21690
850.95	21648
851.085	21838
851.22	21732
851.355	21694
851.49	21538
851.625	21564
851.76	21675
851.895	21564
852.03	21549
852.165	21629
852.299	21686
852.434	21652
852.569	21732
852.703	21599
852.838	21743
852.973	21827
853.107	21785
853.242	21622
853.376	21496
853.511	21367
853.645	21519
853.78	21701
853.914	21667
854.048	21405
854.183	21397
854.317	21450
854.451	21641
854.585	21492
854.72	21492
854.854	21561
854.988	21447
855.122	21530
855.256	21336
855.39	21412
855.524	21591
855.658	21481
855.792	21477
855.926	21416
856.06	21587
856.194	21389
856.327	21530
856.461	21431
856.595	21496
856.729	21564
856.862	21580
856.996	21481
857.13	21637
857.263	21587
857.397	21542
857.53	21485
857.664	21545
857.797	21564
857.931	21625
858.064	21568
858.197	21644
858.331	21496
858.464	21488
858.597	21272
858.731	21488
858.864	21564
858.997	21450
859.13	21625
859.263	21530
859.396	21606
859.529	21416
859.662	21405
859.795	21424
859.928	21424
860.061	21603
860.194	21580
860.327	21599
860.46	21583
860.592	21625
860.725	21637
860.858	21500
860.99	21469
861.123	21344
861.256	21488
861.388	21424
861.521	22276
861.653	21424
861.786	21351
861.918	21298
862.05	21317
862.183	21424
862.315	21389
862.447	21408
862.58	21287
862.712	21188
862.844	21176
862.976	21340
863.108	21302
863.24	21633
863.372	21161
863.504	21233
863.636	21123
863.768	21233
863.9	21252
864.032	21119
864.164	21131
864.296	21207
864.428	21405
864.559	21180
864.691	21321
864.823	21176
864.954	21150
865.086	21138
865.217	21127
865.349	21077
865.48	21028
865.612	21123
865.743	21249
865.875	21058
866.006	20982
866.137	21089
866.269	21074
866.4	21138
866.531	20933
866.662	20986
866.793	21036
866.924	21047
867.055	21036
867.186	20990
867.317	20967
867.448	21032
867.579	21001
867.71	20933
867.841	20838
867.972	20990
868.103	20937
868.233	20921
868.364	21066
868.495	21127
868.625	21256
868.756	21367
868.886	21036
869.017	21275
869.147	21332
869.278	21443
869.408	21252
869.539	21203
869.669	21332
869.799	21291
869.929	21348
870.06	21317
870.19	21576
870.32	21583
870.45	21576
870.58	21580
870.71	21629
870.84	21778
870.97	21686
871.1	21743
871.23	21743
871.36	21850
871.489	21682
871.619	21941
871.749	21800
871.879	21819
872.008	21903
872.138	21835
872.267	21895
872.397	21698
872.526	21732
872.656	21705
872.785	21686
872.915	21945
873.044	21953
873.173	21911
873.303	21846
873.432	21922
873.561	22013
873.69	21880
873.819	22006
873.948	21808
874.077	21956
874.206	21838
874.335	21850
874.464	22044
874.593	22166
874.722	22025
874.851	22192
874.979	22116
875.108	22158
875.237	22013
875.365	21994
875.494	22109
875.623	22215
875.751	22109
875.88	22040
876.008	22169
876.136	22318
876.265	22386
876.393	22672
876.521	22413
876.65	22485
876.778	22440
876.906	22432
877.034	22356
877.162	22394
877.29	22356
877.418	22523
877.546	22462
877.674	22421
877.802	22424
877.93	22329
878.058	22394
878.185	22261
878.313	22413
878.441	22398
878.568	22287
878.696	22356
878.824	22398
878.951	22474
879.079	22664
879.206	22675
879.333	22523
879.461	22546
879.588	22626
879.715	22668
879.842	22710
879.97	22550
880.097	22333
880.224	22219
880.351	22341
880.478	22257
880.605	22150
880.732	22188
880.859	22432
880.986	22295
881.112	22280
881.239	22116
881.366	21975
881.493	21857
881.619	21827
881.746	21816
881.872	21838
881.999	21720
882.125	21781
882.252	21911
882.378	21945
882.505	21854
882.631	21682
882.757	21591
882.883	21557
883.01	21576
883.136	21515
883.262	21473
883.388	21424
883.514	21595
883.64	21576
883.766	21378
883.892	21264
884.018	21378
884.143	21466
884.269	21477
884.395	21340
884.52	21256
884.646	21310
884.772	21055
884.897	21024
885.023	21161
885.148	21222
885.274	21302
885.399	21268
885.524	21237
885.65	21184
885.775	21291
885.9	21116
886.025	21325
886.15	21382
886.275	21161
886.4	21039
886.525	21138
886.65	21123
886.775	21089
886.9	21291
887.025	21443
887.149	21135
887.274	20925
887.399	20967
887.523	20948
887.648	20933
887.773	20891
887.897	20941
888.021	20944
888.146	20830
888.27	21138
888.395	21032
888.519	21005
888.643	20956
888.767	21028
888.891	20838
889.015	20701
889.139	20762
889.263	20743
889.387	20819
889.511	20960
889.635	20967
889.759	20716
889.883	20792
890.006	20876
890.13	20823
890.254	20689
890.377	20629
890.501	20522
890.624	20507
890.748	20431
890.871	20408
890.995	20278
891.118	20164
891.241	20301
891.364	20282
891.488	20377
891.611	20252
891.734	20183
891.857	20438
891.98	20229
892.103	20415
892.226	20282
892.349	20298
892.471	20039
892.594	20191
892.717	20149
892.839	20206
892.962	20248
893.085	20332
893.207	20176
893.33	20115
893.452	20252
893.575	20195
893.697	20191
893.819	20358
893.941	20400
894.064	20332
894.186	20111
894.308	20115
894.43	20362
894.552	20328
894.674	20347
894.796	20043
894.918	20271
895.04	20115
895.161	20252
895.283	20214
895.405	20062
895.526	20119
895.648	20248
895.769	20202
895.891	20199
896.012	20199
896.134	20199
896.255	20107
896.376	20096
896.498	20233
896.619	20256
896.74	20294
896.861	20252
896.982	20609
897.103	20663
897.224	20469
897.345	20423
897.466	20278
897.587	20476
897.708	20697
897.828	20465
897.949	20423
898.07	20267
898.19	20355
898.311	20492
898.431	20362
898.552	20415
898.672	20476
898.792	20526
898.913	20530
899.033	20263
899.153	20202
899.273	20119
899.393	20275
899.513	20191
899.633	20016
899.753	20157
899.873	20142
899.993	20115
900.113	19997
900.232	20145
900.352	20126
900.472	20077
900.591	19917
900.711	19856
900.83	19715
900.95	20065
901.069	19944
901.189	19917
901.308	19620
901.427	19575
901.546	19620
901.665	19655
901.784	19540
901.904	19396
902.023	19320
902.141	19255
902.26	18958
902.379	19042
902.498	19080
902.617	18943
902.735	18951
902.854	19008
902.973	18977
903.091	18646
903.21	18608
903.328	18703
903.446	18547
903.565	18574
903.683	18490
903.801	18445
903.919	18399
904.038	18418
904.156	18292
904.274	18334
904.392	18334
904.51	18232
904.627	18205
904.745	18346
904.863	18239
904.981	18057
905.098	17904
905.216	17882
905.334	17996
905.451	18026
905.569	17931
905.686	18053
905.803	17832
905.921	17699
906.038	17802
906.155	17824
906.272	17676
906.389	17680
906.506	17482
906.623	17497
906.74	17417
906.857	17372
906.974	17429
907.091	17566
907.208	17581
907.324	17463
907.441	17410
907.557	17204
907.674	17147
907.79	17132
907.907	17124
908.023	17200
908.139	17174
908.256	17132
908.372	17083
908.488	17083
908.604	16980
908.72	16976
908.836	17029
908.952	16980
909.068	16927
909.184	17041
909.3	16892
909.415	16877
909.531	16961
909.647	16634
909.762	16596
909.878	16649
909.993	16653
910.108	16691
910.224	16611
910.339	16531
910.454	16470
910.57	16390
910.685	16325
910.8	16618
910.915	16588
911.03	16402
911.145	16352
911.259	16268
911.374	16257
911.489	16181
911.604	16147
911.718	15884
911.833	15975
911.947	15816
912.062	15739
912.176	15949
912.291	15941
912.405	15846
912.519	16097
912.633	16124
912.748	16013
912.862	15930
912.976	15751
913.09	15667
913.204	15743
913.318	15800
913.431	15915
913.545	15751
913.659	15907
913.772	15717
913.886	15591
914	15485
914.113	15591
914.226	15679
914.34	15614
914.453	15469
914.566	15648
914.68	15553
914.793	15523
914.906	15249
915.019	15150
915.132	15176
915.245	15127
915.358	15188
915.47	15184
915.583	15173
915.696	15199
915.809	15252
915.921	15344
916.034	15161
916.146	15036
916.259	15089
916.371	15211
916.483	15093
916.595	15085
916.708	14986
916.82	15104
916.932	15100
917.044	15024
917.156	14880
917.268	14857
917.38	14842
917.491	14712
917.603	14838
917.715	14925
917.826	14925
917.938	14750
918.049	14663
918.161	14826
918.272	14887
918.384	14899
918.495	14743
918.606	14579
918.717	14625
918.828	14610
918.939	14590
919.05	14385
919.161	14511
919.272	14404
919.383	14488
919.494	14712
919.604	14769
919.715	14560
919.826	14434
919.936	14575
920.047	14583
920.157	14533
920.267	14792
920.378	14552
920.488	14465
920.598	14731
920.708	14830
920.818	14716
920.928	14724
921.038	14876
921.148	14823
921.258	14499
921.368	14457
921.477	14221
921.587	14233
921.697	14115
921.806	14225
921.916	14157
922.025	14073
922.134	13936
922.244	13837
922.353	13936
922.462	13712
922.571	13715
922.68	13601
922.789	13563
922.898	13552
923.007	13449
923.116	13518
923.224	13552
923.333	13548
923.442	13346
923.55	13343
923.659	13411
923.767	13514
923.876	13293
923.984	13502
924.092	13308
924.201	13358
924.309	13282
924.417	13247
924.525	13225
924.633	13293
924.741	14202
924.849	13050
924.956	13206
925.064	12977
925.172	13027
925.279	12970
925.387	12993
925.494	13053
925.602	13137
925.709	13031
925.816	12905
925.924	12966
926.031	13023
926.138	12939
926.245	12951
926.352	12814
926.459	13038
926.566	13008
926.673	12772
926.779	12730
926.886	12711
926.993	12578
927.099	12525
927.206	12547
927.312	12498
927.419	12620
927.525	12540
927.631	12604
927.737	12338
927.843	12334
927.95	12243
928.056	12330
928.162	12346
928.267	12391
928.373	12897
928.479	12452
928.585	12163
928.69	12361
928.796	12281
928.901	12224
929.007	12136
929.112	12277
929.218	12285
929.323	12117
929.428	12057
929.533	12201
929.638	12026
929.743	12083
929.848	11984
929.953	12064
930.058	11901
930.163	11764
930.267	11805
930.372	11893
930.477	11870
930.581	11863
930.685	11790
930.79	11623
930.894	11752
930.998	11661
931.103	11790
931.207	11455
931.311	11356
931.415	11288
931.519	10995
931.623	11014
