Data from test_V78500241_178.txt Node
Date: Fri Mar 25 15:11:06 CST 2022
User: usil
Spectrometer: V785-0024
Trigger mode: 0
Integration Time (sec): 4.000000E-1
Scans to average: 1
Nonlinearity correction enabled: false
Boxcar width: 0
Storing dark spectrum: false
XAxis mode: Wavelengths
Number of Pixels in Spectrum: 1024
>>>>>Begin Spectral Data<<<<<
801.071	27507
801.214	27526
801.356	27359
801.499	27230
801.641	27112
801.783	27043
801.926	27074
802.068	26982
802.211	27005
802.353	26842
802.496	26800
802.638	26602
802.78	26785
802.923	26648
803.065	26465
803.208	26492
803.35	26640
803.492	26629
803.635	26648
803.777	26693
803.919	26765
804.061	27043
804.204	26758
804.346	26655
804.488	26571
804.63	26697
804.773	26488
804.915	26609
805.057	26655
805.199	26712
805.341	26594
805.483	26815
805.626	26811
805.768	26701
805.91	26720
806.052	26697
806.194	26727
806.336	26853
806.478	26670
806.62	26746
806.762	26853
806.904	26979
807.046	27165
807.188	27218
807.33	27020
807.472	27173
807.614	27055
807.756	27017
807.898	26967
808.04	26960
808.182	26910
808.324	27028
808.465	26880
808.607	27119
808.749	27260
808.891	27329
809.033	27530
809.174	27184
809.316	27291
809.458	27291
809.6	27260
809.741	27336
809.883	27462
810.025	27481
810.166	27523
810.308	27447
810.45	27587
810.591	27401
810.733	27218
810.875	27108
811.016	27028
811.158	27169
811.299	27214
811.441	27313
811.582	27207
811.724	27165
811.865	27074
812.007	27138
812.148	27108
812.29	27161
812.431	27378
812.573	27321
812.714	27549
812.855	27633
812.997	27778
813.138	27873
813.279	27804
813.421	27698
813.562	27519
813.703	27545
813.845	27481
813.986	26975
814.127	26914
814.268	26800
814.41	26899
814.551	26800
814.692	26887
814.833	26804
814.974	26777
815.115	26750
815.256	26583
815.397	26598
815.539	26545
815.68	26571
815.821	26385
815.962	26651
816.103	26518
816.244	26343
816.385	26278
816.526	26294
816.666	25986
816.807	25947
816.948	26096
817.089	26020
817.23	25993
817.371	26016
817.512	26035
817.653	25970
817.793	26005
817.934	26031
818.075	25868
818.216	25955
818.356	25830
818.497	25814
818.638	25723
818.778	25689
818.919	25677
819.06	25681
819.2	25833
819.341	25906
819.481	25849
819.622	26020
819.762	26305
819.903	26229
820.043	26100
820.184	25864
820.324	25955
820.465	26024
820.605	25947
820.746	25909
820.886	25883
821.026	25917
821.167	25841
821.307	26065
821.447	25723
821.588	25742
821.728	25643
821.868	25468
822.008	25285
822.149	25453
822.289	25308
822.429	25046
822.569	25069
822.709	25000
822.849	24677
822.99	24787
823.13	24886
823.27	24684
823.41	24532
823.55	24525
823.69	24582
823.83	24707
823.97	24593
824.11	24365
824.25	24395
824.389	24475
824.529	24376
824.669	24460
824.809	24479
824.949	24467
825.089	24407
825.228	24388
825.368	24220
825.508	24201
825.648	24266
825.787	24285
825.927	24353
826.067	24152
826.206	24072
826.346	24334
826.485	24315
826.625	24148
826.765	24346
826.904	24163
827.044	24038
827.183	23870
827.323	23870
827.462	23965
827.601	23680
827.741	23855
827.88	23847
828.02	23809
828.159	23882
828.298	24041
828.437	23988
828.577	23783
828.716	24018
828.855	23646
828.994	23520
829.134	23642
829.273	23554
829.412	23551
829.551	23608
829.69	23573
829.829	23611
829.968	23611
830.107	23695
830.246	23573
830.385	23505
830.524	23486
830.663	23311
830.802	23265
830.941	22999
831.08	23185
831.219	23299
831.357	23288
831.496	23330
831.635	23102
831.774	23056
831.913	23022
832.051	23010
832.19	23010
832.329	22995
832.467	22915
832.606	22729
832.744	22801
832.883	22862
833.022	22908
833.16	22744
833.299	22694
833.437	22911
833.576	22904
833.714	22824
833.852	22866
833.991	22934
834.129	22919
834.267	22812
834.406	22866
834.544	22881
834.682	22881
834.821	22812
834.959	22934
835.097	22706
835.235	22908
835.373	22858
835.511	22824
835.65	22584
835.788	22618
835.926	22550
836.064	22447
836.202	22432
836.34	22687
836.478	22748
836.615	22672
836.753	22713
836.891	22831
837.029	22630
837.167	22706
837.305	22592
837.443	22577
837.58	22557
837.718	22527
837.856	22577
837.993	22459
838.131	22489
838.269	22493
838.406	22424
838.544	22261
838.681	22181
838.819	22059
838.956	22036
839.094	21888
839.231	22074
839.369	22246
839.506	22382
839.643	22207
839.781	21975
839.918	21869
840.055	21873
840.193	21876
840.33	21785
840.467	21819
840.604	21903
840.742	22070
840.879	21846
841.016	21785
841.153	21804
841.29	22032
841.427	21823
841.564	21911
841.701	21895
841.838	21861
841.975	21781
842.112	21751
842.249	21701
842.385	21622
842.522	21827
842.659	21717
842.796	21576
842.933	21656
843.069	21641
843.206	21587
843.343	21587
843.479	21656
843.616	21663
843.752	21386
843.889	21283
844.025	21374
844.162	21298
844.298	21473
844.435	21348
844.571	21298
844.708	21370
844.844	21496
844.98	21504
845.117	21351
845.253	21275
845.389	21260
845.525	21188
845.661	21237
845.798	21055
845.934	20990
846.07	21051
846.206	21051
846.342	20982
846.478	20998
846.614	20845
846.75	20727
846.886	20823
847.022	20811
847.158	20804
847.294	20834
847.429	20861
847.565	20724
847.701	21047
847.837	20469
847.972	20415
848.108	20598
848.244	20655
848.379	20393
848.515	20389
848.65	20343
848.786	20408
848.921	20317
849.057	20446
849.192	20423
849.328	20362
849.463	20339
849.598	20412
849.734	20199
849.869	20336
850.004	20138
850.14	20122
850.275	20122
850.41	20001
850.545	20020
850.68	20153
850.815	20229
850.95	20161
851.085	20229
851.22	20248
851.355	20122
851.49	20058
851.625	20084
851.76	20103
851.895	19967
852.03	19947
852.165	20069
852.299	20142
852.434	20130
852.569	20161
852.703	20058
852.838	20142
852.973	20202
853.107	20218
853.242	20054
853.376	19887
853.511	19811
853.645	19925
853.78	20111
853.914	19967
854.048	19849
854.183	19970
854.317	19879
854.451	20062
854.585	19955
854.72	19871
854.854	19940
854.988	19887
855.122	19830
855.256	19799
855.39	19917
855.524	20027
855.658	20138
855.792	19955
855.926	19925
856.06	19944
856.194	20069
856.327	19951
856.461	19879
856.595	19849
856.729	19814
856.862	19970
856.996	19982
857.13	19993
857.263	19932
857.397	19944
857.53	19917
857.664	20024
857.797	19989
857.931	20046
858.064	19860
858.197	19978
858.331	19913
858.464	19765
858.597	19780
858.731	19822
858.864	19765
858.997	19887
859.13	19928
859.263	19947
859.396	19868
859.529	19871
859.662	19799
859.795	19818
859.928	19963
860.061	20115
860.194	20065
860.327	20001
860.46	19818
860.592	20069
860.725	20092
860.858	20069
860.99	19928
861.123	19753
861.256	19814
861.388	19799
861.521	20602
861.653	19757
861.786	19689
861.918	19639
862.05	19776
862.183	19894
862.315	19833
862.447	20039
862.58	19845
862.712	19620
862.844	19556
862.976	19647
863.108	19780
863.24	19940
863.372	19563
863.504	19476
863.636	19556
863.768	19632
863.9	19609
864.032	19411
864.164	19639
864.296	19624
864.428	19666
864.559	19632
864.691	19738
864.823	19719
864.954	19605
865.086	19605
865.217	19460
865.349	19453
865.48	19445
865.612	19575
865.743	19594
865.875	19510
866.006	19388
866.137	19529
866.269	19518
866.4	19495
866.531	19468
866.662	19441
866.793	19491
866.924	19422
867.055	19499
867.186	19502
867.317	19308
867.448	19316
867.579	19308
867.71	19453
867.841	19441
867.972	19434
868.103	19388
868.233	19460
868.364	19430
868.495	19594
868.625	19594
868.756	19761
868.886	19537
869.017	19632
869.147	19746
869.278	19841
869.408	19677
869.539	19670
869.669	19712
869.799	19769
869.929	19879
870.06	19769
870.19	19970
870.32	19784
870.45	19898
870.58	20134
870.71	20176
870.84	20138
870.97	19986
871.1	20043
871.23	20130
871.36	20434
871.489	20195
871.619	20298
871.749	20317
871.879	20275
872.008	20457
872.138	20248
872.267	20187
872.397	20103
872.526	20157
872.656	20073
872.785	20016
872.915	20320
873.044	20320
873.173	20259
873.303	20400
873.432	20377
873.561	20495
873.69	20347
873.819	20320
873.948	20313
874.077	20221
874.206	20286
874.335	20248
874.464	20412
874.593	20522
874.722	20503
874.851	20583
874.979	20606
875.108	20629
875.237	20476
875.365	20408
875.494	20537
875.623	20629
875.751	20522
875.88	20632
876.008	20746
876.136	20735
876.265	20899
876.393	21085
876.521	21085
876.65	21032
876.778	21028
876.906	20853
877.034	20788
877.162	20902
877.29	20785
877.418	20849
877.546	20853
877.674	20960
877.802	20868
877.93	20842
878.058	20804
878.185	20750
878.313	20849
878.441	20937
878.568	20716
878.696	20853
878.824	20986
878.951	20986
879.079	21058
879.206	21252
879.333	20952
879.461	20826
879.588	21032
879.715	21135
879.842	21173
879.97	20823
880.097	20693
880.224	20735
880.351	20739
880.478	20762
880.605	20693
880.732	20773
880.859	20971
880.986	20750
881.112	20621
881.239	20499
881.366	20484
881.493	20347
881.619	20320
881.746	20389
881.872	20313
881.999	20351
882.125	20256
882.252	20275
882.378	20404
882.505	20476
882.631	20191
882.757	20062
882.883	20187
883.01	20107
883.136	19959
883.262	20043
883.388	19871
883.514	20180
883.64	20161
883.766	20043
883.892	19879
884.018	19902
884.143	20054
884.269	20153
884.395	19803
884.52	19757
884.646	19746
884.772	19559
884.897	19605
885.023	19731
885.148	19776
885.274	19784
885.399	19860
885.524	19685
885.65	19742
885.775	19742
885.9	19723
886.025	19909
886.15	19784
886.275	19742
886.4	19632
886.525	19601
886.65	19594
886.775	19704
886.9	19845
887.025	19967
887.149	19628
887.274	19628
887.399	19521
887.523	19472
887.648	19407
887.773	19441
887.897	19540
888.021	19537
888.146	19483
888.27	19594
888.395	19460
888.519	19499
888.643	19582
888.767	19468
888.891	19384
889.015	19179
889.139	19384
889.263	19232
889.387	19430
889.511	19407
889.635	19350
889.759	19301
889.883	19312
890.006	19324
890.13	19464
890.254	19137
890.377	19198
890.501	19156
890.624	19099
890.748	19095
890.871	18920
890.995	18856
891.118	18806
891.241	18935
891.364	18734
891.488	18958
891.611	18726
891.734	18829
891.857	18947
891.98	18795
892.103	18920
892.226	18897
892.349	18734
892.471	18669
892.594	18867
892.717	18852
892.839	18772
892.962	18802
893.085	18806
893.207	18882
893.33	18639
893.452	18806
893.575	18833
893.697	18833
893.819	18913
893.941	19034
894.064	18966
894.186	18681
894.308	18757
894.43	18920
894.552	18989
894.674	18913
894.796	18703
894.918	18726
895.04	18825
895.161	18821
895.283	18939
895.405	18760
895.526	18833
895.648	18875
895.769	18848
895.891	18886
896.012	18970
896.134	18817
896.255	18894
896.376	18837
896.498	18779
896.619	18867
896.74	18905
896.861	18951
896.982	19274
897.103	19339
897.224	19206
897.345	19122
897.466	19034
897.587	19103
897.708	19266
897.828	19164
897.949	18954
898.07	18863
898.19	18962
898.311	19156
898.431	19046
898.552	19080
898.672	19107
898.792	19171
898.913	19023
899.033	18973
899.153	18768
899.273	18738
899.393	18920
899.513	18867
899.633	18696
899.753	18856
899.873	18897
899.993	18939
900.113	18760
900.232	18863
900.352	18722
900.472	18692
900.591	18677
900.711	18642
900.83	18452
900.95	18722
901.069	18677
901.189	18551
901.308	18277
901.427	18235
901.546	18171
901.665	18254
901.784	18133
901.904	18129
902.023	18015
902.141	17863
902.26	17718
902.379	17836
902.498	17604
902.617	17634
902.735	17756
902.854	17642
902.973	17691
903.091	17452
903.21	17364
903.328	17448
903.446	17372
903.565	17296
903.683	17273
903.801	17132
903.919	17178
904.038	17143
904.156	17041
904.274	17041
904.392	16934
904.51	16999
904.627	17025
904.745	17006
904.863	17010
904.981	16866
905.098	16615
905.216	16717
905.334	16702
905.451	16752
905.569	16645
905.686	16835
905.803	16672
905.921	16580
906.038	16622
906.155	16603
906.272	16417
906.389	16402
906.506	16200
906.623	16207
906.74	16249
906.857	16215
906.974	16150
907.091	16306
907.208	16325
907.324	16356
907.441	16181
907.557	15941
907.674	15960
907.79	15899
907.907	15827
908.023	15888
908.139	15972
908.256	15873
908.372	15827
908.488	15800
908.604	15663
908.72	15576
908.836	15701
908.952	15572
909.068	15523
909.184	15713
909.3	15717
909.415	15648
909.531	15682
909.647	15367
909.762	15313
909.878	15439
909.993	15492
910.108	15325
910.224	15275
910.339	15306
910.454	15264
910.57	15127
910.685	15097
910.8	15370
910.915	15260
911.03	15165
911.145	14956
911.259	14948
911.374	15009
911.489	14921
911.604	14853
911.718	14743
911.833	14724
911.947	14602
912.062	14454
912.176	14629
912.291	14708
912.405	14667
912.519	14705
912.633	14929
912.748	14758
912.862	14705
912.976	14522
913.09	14461
913.204	14438
913.318	14518
913.431	14587
913.545	14663
913.659	14598
913.772	14568
913.886	14347
914	14248
914.113	14366
914.226	14438
914.34	14431
914.453	14248
914.566	14393
914.68	14248
914.793	14225
914.906	14107
915.019	13864
915.132	13921
915.245	13986
915.358	13982
915.47	14012
915.583	14069
915.696	14008
915.809	14103
915.921	14050
916.034	14005
916.146	13883
916.259	13811
916.371	13997
916.483	13925
916.595	13708
916.708	13822
916.82	13879
916.932	13856
917.044	13811
917.156	13830
917.268	13677
917.38	13753
917.491	13620
917.603	13609
917.715	13753
917.826	13704
917.938	13613
918.049	13552
918.161	13647
918.272	13746
918.384	13696
918.495	13586
918.606	13491
918.717	13472
918.828	13445
918.939	13556
919.05	13384
919.161	13316
919.272	13179
919.383	13369
919.494	13464
919.604	13624
919.715	13441
919.826	13388
919.936	13445
920.047	13449
920.157	13514
920.267	13575
920.378	13384
920.488	13373
920.598	13704
920.708	13712
920.818	13620
920.928	13529
921.038	13674
921.148	13636
921.258	13377
921.368	13266
921.477	13190
921.587	13110
921.697	13072
921.806	13080
921.916	13038
922.025	12798
922.134	12897
922.244	12715
922.353	12886
922.462	12730
922.571	12627
922.68	12452
922.789	12429
922.898	12467
923.007	12369
923.116	12490
923.224	12422
923.333	12521
923.442	12342
923.55	12296
923.659	12346
923.767	12315
923.876	12289
923.984	12357
924.092	12197
924.201	12254
924.309	12285
924.417	12243
924.525	12152
924.633	12239
924.741	12905
924.849	11996
924.956	12072
925.064	11908
925.172	11866
925.279	11912
925.387	11935
925.494	11897
925.602	12095
925.709	12015
925.816	11832
925.924	11882
926.031	12030
926.138	11965
926.245	11958
926.352	11813
926.459	11996
926.566	12022
926.673	11912
926.779	11760
926.886	11695
926.993	11577
927.099	11619
927.206	11486
927.312	11501
927.419	11611
927.525	11570
927.631	11570
927.737	11493
927.843	11345
927.95	11261
928.056	11425
928.162	11482
928.267	11387
928.373	11923
928.479	11490
928.585	11254
928.69	11315
928.796	11364
928.901	11277
929.007	11064
929.112	11280
929.218	11261
929.323	11170
929.428	11143
929.533	11254
929.638	11048
929.743	11121
929.848	11178
929.953	11155
930.058	10984
930.163	10866
930.267	10847
930.372	10995
930.477	10759
930.581	11018
930.685	10885
930.79	10660
930.894	10793
930.998	10729
931.103	10805
931.207	10542
931.311	10455
931.415	10375
931.519	10150
931.623	10143
