Data from test_V78500241_2369.txt Node
Date: Fri Mar 25 15:26:21 CST 2022
User: usil
Spectrometer: V785-0024
Trigger mode: 0
Integration Time (sec): 4.000000E-1
Scans to average: 1
Nonlinearity correction enabled: false
Boxcar width: 0
Storing dark spectrum: false
XAxis mode: Wavelengths
Number of Pixels in Spectrum: 1024
>>>>>Begin Spectral Data<<<<<
801.071	27477
801.214	27412
801.356	27157
801.499	27135
801.641	26834
801.783	26925
801.926	27127
802.068	27100
802.211	26880
802.353	26857
802.496	26598
802.638	26659
802.78	26530
802.923	26617
803.065	26606
803.208	26522
803.35	26765
803.492	26826
803.635	26857
803.777	26686
803.919	26864
804.061	27119
804.204	26948
804.346	26746
804.488	26781
804.63	26883
804.773	26781
804.915	26845
805.057	26925
805.199	26670
805.341	26849
805.483	26933
805.626	26902
805.768	26762
805.91	26902
806.052	27047
806.194	26861
806.336	27089
806.478	26823
806.62	26887
806.762	26944
806.904	27245
807.046	27454
807.188	27321
807.33	27435
807.472	27424
807.614	27245
807.756	27291
807.898	27222
808.04	27192
808.182	27154
808.324	27291
808.465	27264
808.607	27542
808.749	27595
808.891	27667
809.033	27538
809.174	27572
809.316	27420
809.458	27466
809.6	27538
809.741	27629
809.883	27698
810.025	27835
810.166	27831
810.308	27732
810.45	27812
810.591	27785
810.733	27534
810.875	27530
811.016	27370
811.158	27370
811.299	27530
811.441	27656
811.582	27583
811.724	27450
811.865	27382
812.007	27523
812.148	27485
812.29	27481
812.431	27679
812.573	27762
812.714	28017
812.855	27914
812.997	27960
813.138	28185
813.279	28131
813.421	27953
813.562	28044
813.703	27812
813.845	27682
813.986	27477
814.127	27298
814.268	27070
814.41	27131
814.551	27051
814.692	27268
814.833	27188
814.974	27169
815.115	27256
815.256	27089
815.397	27032
815.539	27051
815.68	26899
815.821	26891
815.962	26933
816.103	26929
816.244	26819
816.385	26678
816.526	26686
816.666	26583
816.807	26457
816.948	26396
817.089	26602
817.23	26488
817.371	26446
817.512	26431
817.653	26259
817.793	26347
817.934	26381
818.075	26522
818.216	26473
818.356	26252
818.497	26286
818.638	26271
818.778	26122
818.919	26233
819.06	26286
819.2	26347
819.341	26427
819.481	26381
819.622	26621
819.762	26819
819.903	26693
820.043	26594
820.184	26556
820.324	26434
820.465	26518
820.605	26560
820.746	26526
820.886	26412
821.026	26537
821.167	26484
821.307	26587
821.447	26473
821.588	26438
821.728	26024
821.868	25989
822.008	25947
822.149	26046
822.289	25868
822.429	25658
822.569	25609
822.709	25693
822.849	25499
822.99	25502
823.13	25453
823.27	25343
823.41	25198
823.55	25103
823.69	25209
823.83	25358
823.97	25202
824.11	25084
824.25	24951
824.389	25034
824.529	25164
824.669	25088
824.809	25091
824.949	25065
825.089	25171
825.228	25069
825.368	24939
825.508	24878
825.648	24875
825.787	25053
825.927	25004
826.067	24962
826.206	24985
826.346	25019
826.485	25000
826.625	24886
826.765	25099
826.904	25053
827.044	24700
827.183	24642
827.323	24639
827.462	24654
827.601	24597
827.741	24642
827.88	24814
828.02	24471
828.159	24578
828.298	24707
828.437	24627
828.577	24464
828.716	24669
828.855	24585
828.994	24319
829.134	24380
829.273	24357
829.412	24300
829.551	24296
829.69	24369
829.829	24479
829.968	24380
830.107	24433
830.246	24300
830.385	24140
830.524	24163
830.663	24121
830.802	24091
830.941	23889
831.08	23863
831.219	24079
831.357	23973
831.496	24258
831.635	23832
831.774	23843
831.913	23840
832.051	23737
832.19	23653
832.329	23832
832.467	23604
832.606	23596
832.744	23619
832.883	23627
833.022	23589
833.16	23748
833.299	23779
833.437	23558
833.576	23649
833.714	23615
833.852	23684
833.991	23722
834.129	23695
834.267	23726
834.406	23653
834.544	23756
834.682	23676
834.821	23619
834.959	23813
835.097	23748
835.235	23851
835.373	23775
835.511	23577
835.65	23573
835.788	23524
835.926	23303
836.064	23360
836.202	23543
836.34	23398
836.478	23676
836.615	23649
836.753	23467
836.891	23600
837.029	23452
837.167	23398
837.305	23490
837.443	23330
837.58	23337
837.718	23452
837.856	23334
837.993	23284
838.131	23406
838.269	23311
838.406	23246
838.544	23102
838.681	22999
838.819	22968
838.956	22816
839.094	22824
839.231	22942
839.369	22915
839.506	23159
839.643	23075
839.781	22790
839.918	22793
840.055	22771
840.193	22828
840.33	22752
840.467	22744
840.604	22736
840.742	23083
840.879	22672
841.016	22588
841.153	22698
841.29	22767
841.427	22653
841.564	22771
841.701	22713
841.838	22649
841.975	22634
842.112	22679
842.249	22675
842.385	22508
842.522	22748
842.659	22527
842.796	22512
842.933	22550
843.069	22443
843.206	22523
843.343	22519
843.479	22497
843.616	22485
843.752	22310
843.889	22455
844.025	22417
844.162	22295
844.298	22299
844.435	22322
844.571	22246
844.708	22352
844.844	22569
844.98	22280
845.117	22386
845.253	22219
845.389	22230
845.525	22185
845.661	22207
845.798	21949
845.934	22090
846.07	21869
846.206	22177
846.342	22120
846.478	22036
846.614	21941
846.75	21633
846.886	21625
847.022	21747
847.158	21682
847.294	21686
847.429	21838
847.565	21701
847.701	21922
847.837	21485
847.972	21500
848.108	21667
848.244	21534
848.379	21511
848.515	21279
848.65	21332
848.786	21367
848.921	21393
849.057	21583
849.192	21496
849.328	21370
849.463	21321
849.598	21241
849.734	21329
849.869	21291
850.004	21131
850.14	21028
850.275	21142
850.41	20975
850.545	20967
850.68	21176
850.815	21017
850.95	21043
851.085	21332
851.22	21233
851.355	21028
851.49	21123
851.625	21047
851.76	20975
851.895	20998
852.03	21131
852.165	21074
852.299	21218
852.434	21112
852.569	21195
852.703	21138
852.838	21089
852.973	21218
853.107	21184
853.242	21055
853.376	21062
853.511	20899
853.645	20849
853.78	21062
853.914	20998
854.048	20929
854.183	20876
854.317	21039
854.451	21096
854.585	21077
854.72	21013
854.854	21005
854.988	20872
855.122	20956
855.256	20868
855.39	20929
855.524	20944
855.658	21055
855.792	20986
855.926	21112
856.06	21009
856.194	21138
856.327	21100
856.461	20899
856.595	20845
856.729	20986
856.862	21032
856.996	21096
857.13	21058
857.263	21039
857.397	21043
857.53	20994
857.664	20963
857.797	21032
857.931	21070
858.064	21009
858.197	21062
858.331	21013
858.464	20956
858.597	20876
858.731	20952
858.864	21001
858.997	20921
859.13	20960
859.263	20952
859.396	21089
859.529	20956
859.662	20960
859.795	20982
859.928	20925
860.061	21135
860.194	21195
860.327	20998
860.46	21020
860.592	21096
860.725	21074
860.858	21127
860.99	20975
861.123	20899
861.256	20876
861.388	20883
861.521	21576
861.653	20781
861.786	20686
861.918	20815
862.05	20967
862.183	20914
862.315	20883
862.447	20868
862.58	20883
862.712	20727
862.844	20724
862.976	20800
863.108	20845
863.24	21081
863.372	20598
863.504	20560
863.636	20686
863.768	20712
863.9	20697
864.032	20648
864.164	20731
864.296	20739
864.428	20830
864.559	20686
864.691	20689
864.823	20720
864.954	20655
865.086	20697
865.217	20636
865.349	20560
865.48	20625
865.612	20522
865.743	20659
865.875	20640
866.006	20583
866.137	20541
866.269	20583
866.4	20663
866.531	20579
866.662	20594
866.793	20571
866.924	20625
867.055	20587
867.186	20560
867.317	20583
867.448	20560
867.579	20568
867.71	20522
867.841	20465
867.972	20511
868.103	20450
868.233	20518
868.364	20446
868.495	20609
868.625	20705
868.756	20826
868.886	20678
869.017	20651
869.147	20826
869.278	20830
869.408	20720
869.539	20769
869.669	20834
869.799	20754
869.929	20876
870.06	20857
870.19	21066
870.32	20933
870.45	21074
870.58	21192
870.71	21291
870.84	21321
870.97	21180
871.1	21165
871.23	21264
871.36	21256
871.489	21249
871.619	21329
871.749	21321
871.879	21439
872.008	21454
872.138	21382
872.267	21279
872.397	21230
872.526	21233
872.656	21310
872.785	21313
872.915	21389
873.044	21416
873.173	21428
873.303	21424
873.432	21477
873.561	21542
873.69	21401
873.819	21393
873.948	21386
874.077	21359
874.206	21294
874.335	21306
874.464	21431
874.593	21568
874.722	21694
874.851	21656
874.979	21717
875.108	21606
875.237	21523
875.365	21519
875.494	21511
875.623	21625
875.751	21663
875.88	21644
876.008	21686
876.136	21755
876.265	21987
876.393	22139
876.521	22032
876.65	22090
876.778	22006
876.906	22044
877.034	21979
877.162	21964
877.29	21823
877.418	21979
877.546	21956
877.674	21899
877.802	21812
877.93	21911
878.058	21945
878.185	21854
878.313	21884
878.441	21892
878.568	21736
878.696	21991
878.824	22010
878.951	22135
879.079	22116
879.206	22287
879.333	22124
879.461	22055
879.588	22025
879.715	22177
879.842	22230
879.97	22013
880.097	21774
880.224	21861
880.351	21781
880.478	21873
880.605	21762
880.732	21785
880.859	21869
880.986	21766
881.112	21880
881.239	21622
881.366	21511
881.493	21496
881.619	21325
881.746	21424
881.872	21416
881.999	21329
882.125	21256
882.252	21340
882.378	21336
882.505	21443
882.631	21313
882.757	21074
882.883	21252
883.01	21093
883.136	21017
883.262	20880
883.388	20868
883.514	21108
883.64	21135
883.766	21055
883.892	20857
884.018	20823
884.143	20944
884.269	21127
884.395	20758
884.52	20625
884.646	20804
884.772	20701
884.897	20609
885.023	20617
885.148	20800
885.274	20899
885.399	20705
885.524	20632
885.65	20750
885.775	20735
885.9	20636
886.025	20899
886.15	20777
886.275	20708
886.4	20667
886.525	20731
886.65	20674
886.775	20579
886.9	20876
887.025	20861
887.149	20632
887.274	20598
887.399	20533
887.523	20442
887.648	20476
887.773	20370
887.897	20537
888.021	20537
888.146	20408
888.27	20606
888.395	20568
888.519	20590
888.643	20511
888.767	20454
888.891	20385
889.015	20336
889.139	20370
889.263	20393
889.387	20450
889.511	20503
889.635	20404
889.759	20248
889.883	20301
890.006	20286
890.13	20454
890.254	20225
890.377	20183
890.501	20035
890.624	19921
890.748	20168
890.871	19947
890.995	19928
891.118	19780
891.241	19871
891.364	19978
891.488	20012
891.611	19898
891.734	19940
891.857	19814
891.98	19849
892.103	19955
892.226	19849
892.349	19788
892.471	19704
892.594	19795
892.717	19795
892.839	19742
892.962	19658
893.085	19909
893.207	19845
893.33	19677
893.452	19719
893.575	19780
893.697	19807
893.819	19822
893.941	19959
894.064	19978
894.186	19662
894.308	19689
894.43	19795
894.552	19887
894.674	19864
894.796	19685
894.918	19799
895.04	19689
895.161	19818
895.283	19765
895.405	19670
895.526	19811
895.648	19670
895.769	19830
895.891	19890
896.012	19811
896.134	19807
896.255	19826
896.376	19700
896.498	19822
896.619	19803
896.74	19723
896.861	19826
896.982	20008
897.103	20240
897.224	20073
897.345	20043
897.466	19970
897.587	20058
897.708	20153
897.828	20031
897.949	20005
898.07	19784
898.19	19932
898.311	20149
898.431	20016
898.552	19963
898.672	20020
898.792	20103
898.913	20027
899.033	19814
899.153	19868
899.273	19845
899.393	19677
899.513	19913
899.633	19746
899.753	19814
899.873	19620
899.993	19772
900.113	19635
900.232	19769
900.352	19776
900.472	19556
900.591	19616
900.711	19544
900.83	19441
900.95	19616
901.069	19674
901.189	19400
901.308	19194
901.427	19057
901.546	19168
901.665	19152
901.784	19152
901.904	18939
902.023	18882
902.141	18707
902.26	18684
902.379	18688
902.498	18627
902.617	18601
902.735	18627
902.854	18700
902.973	18536
903.091	18395
903.21	18376
903.328	18232
903.446	18243
903.565	18121
903.683	18159
903.801	18007
903.919	18049
904.038	17992
904.156	17939
904.274	17927
904.392	17977
904.51	17767
904.627	17946
904.745	17927
904.863	17965
904.981	17756
905.098	17474
905.216	17623
905.334	17646
905.451	17478
905.569	17573
905.686	17505
905.803	17493
905.921	17334
906.038	17391
906.155	17364
906.272	17208
906.389	17303
906.506	17098
906.623	17109
906.74	17204
906.857	16957
906.974	17041
907.091	17197
907.208	17223
907.324	17159
907.441	16900
907.557	16934
907.674	16854
907.79	16847
907.907	16797
908.023	16797
908.139	16786
908.256	16740
908.372	16729
908.488	16755
908.604	16565
908.72	16497
908.836	16664
908.952	16577
909.068	16637
909.184	16603
909.3	16531
909.415	16645
909.531	16432
909.647	16257
909.762	16238
909.878	16200
909.993	16299
910.108	16249
910.224	16272
910.339	16150
910.454	16105
910.57	15994
910.685	16013
910.8	16306
910.915	16196
911.03	15972
911.145	15812
911.259	15941
911.374	15800
911.489	15751
911.604	15861
911.718	15644
911.833	15545
911.947	15435
912.062	15389
912.176	15481
912.291	15553
912.405	15530
912.519	15774
912.633	15736
912.748	15629
912.862	15614
912.976	15397
913.09	15363
913.204	15389
913.318	15408
913.431	15553
913.545	15526
913.659	15481
913.772	15336
913.886	15222
914	15222
914.113	15428
914.226	15370
914.34	15245
914.453	15173
914.566	15249
914.68	15146
914.793	15089
914.906	14937
915.019	14823
915.132	14773
915.245	14891
915.358	14887
915.47	14864
915.583	14826
915.696	14826
915.809	14910
915.921	14952
916.034	14815
916.146	14613
916.259	14746
916.371	14815
916.483	14617
916.595	14701
916.708	14724
916.82	14701
916.932	14552
917.044	14594
917.156	14648
917.268	14484
917.38	14480
917.491	14511
917.603	14560
917.715	14514
917.826	14552
917.938	14423
918.049	14427
918.161	14404
918.272	14594
918.384	14590
918.495	14457
918.606	14347
918.717	14244
918.828	14275
918.939	14332
919.05	14157
919.161	14301
919.272	14142
919.383	14103
919.494	14286
919.604	14503
919.715	14225
919.826	14180
919.936	14164
920.047	14282
920.157	14218
920.267	14419
920.378	14317
920.488	14157
920.598	14324
920.708	14518
920.818	14412
920.928	14339
921.038	14495
921.148	14495
921.258	14176
921.368	14123
921.477	14111
921.587	13970
921.697	13841
921.806	13970
921.916	13784
922.025	13647
922.134	13689
922.244	13460
922.353	13628
922.462	13495
922.571	13365
922.68	13297
922.789	13221
922.898	13255
923.007	13236
923.116	13331
923.224	13282
923.333	13270
923.442	13103
923.55	13171
923.659	13171
923.767	13213
923.876	13072
923.984	13145
924.092	13008
924.201	13088
924.309	13015
924.417	13072
924.525	12962
924.633	12913
924.741	13902
924.849	12669
924.956	12894
925.064	12757
925.172	12582
925.279	12688
925.387	12707
925.494	12593
925.602	12791
925.709	12730
925.816	12650
925.924	12692
926.031	12719
926.138	12578
926.245	12715
926.352	12528
926.459	12665
926.566	12688
926.673	12635
926.779	12437
926.886	12414
926.993	12353
927.099	12209
927.206	12247
927.312	12266
927.419	12281
927.525	12273
927.631	12251
927.737	12209
927.843	12148
927.95	12171
928.056	12011
928.162	12110
928.267	12209
928.373	12791
928.479	12197
928.585	11977
928.69	12026
928.796	12045
928.901	11996
929.007	11813
929.112	11961
929.218	11969
929.323	11859
929.428	11764
929.533	11969
929.638	11741
929.743	11745
929.848	11809
929.953	11741
930.058	11688
930.163	11585
930.267	11551
930.372	11672
930.477	11592
930.581	11707
930.685	11589
930.79	11364
930.894	11337
930.998	11368
931.103	11448
931.207	11170
931.311	11006
931.415	11014
931.519	10778
931.623	10790
