Data from test_V78500241_3246.txt Node
Date: Fri Mar 25 15:32:27 CST 2022
User: usil
Spectrometer: V785-0024
Trigger mode: 0
Integration Time (sec): 4.000000E-1
Scans to average: 1
Nonlinearity correction enabled: false
Boxcar width: 0
Storing dark spectrum: false
XAxis mode: Wavelengths
Number of Pixels in Spectrum: 1024
>>>>>Begin Spectral Data<<<<<
801.071	27279
801.214	27279
801.356	26967
801.499	26944
801.641	26788
801.783	26746
801.926	26788
802.068	26727
802.211	26678
802.353	26571
802.496	26712
802.638	26412
802.78	26469
802.923	26336
803.065	26278
803.208	26408
803.35	26377
803.492	26541
803.635	26617
803.777	26579
803.919	26556
804.061	26971
804.204	26678
804.346	26541
804.488	26473
804.63	26606
804.773	26427
804.915	26488
805.057	26667
805.199	26522
805.341	26651
805.483	26762
805.626	26739
805.768	26537
805.91	26651
806.052	26629
806.194	26686
806.336	26716
806.478	26689
806.62	26621
806.762	26674
806.904	26830
807.046	27161
807.188	27116
807.33	27169
807.472	27211
807.614	26853
807.756	26925
807.898	26975
808.04	26830
808.182	27001
808.324	26838
808.465	26876
808.607	27150
808.749	27344
808.891	27275
809.033	27427
809.174	27298
809.316	27180
809.458	27230
809.6	27146
809.741	27313
809.883	27473
810.025	27458
810.166	27622
810.308	27542
810.45	27591
810.591	27386
810.733	27310
810.875	27237
811.016	27222
811.158	27233
811.299	27310
811.441	27363
811.582	27450
811.724	27214
811.865	27424
812.007	27260
812.148	27405
812.29	27378
812.431	27488
812.573	27572
812.714	27599
812.855	27751
812.997	27880
813.138	28135
813.279	27850
813.421	27800
813.562	27755
813.703	27416
813.845	27530
813.986	27039
814.127	27039
814.268	26948
814.41	27089
814.551	26891
814.692	26990
814.833	26815
814.974	26876
815.115	27009
815.256	26743
815.397	26849
815.539	26914
815.68	26815
815.821	26602
815.962	26693
816.103	26800
816.244	26511
816.385	26526
816.526	26400
816.666	26267
816.807	26062
816.948	26259
817.089	26195
817.23	26191
817.371	26172
817.512	26164
817.653	26107
817.793	26043
817.934	26263
818.075	26240
818.216	26225
818.356	26229
818.497	26012
818.638	25963
818.778	25852
818.919	25963
819.06	25845
819.2	26084
819.341	26145
819.481	26122
819.622	26393
819.762	26552
819.903	26423
820.043	26404
820.184	26298
820.324	26320
820.465	26339
820.605	26256
820.746	26119
820.886	26008
821.026	26214
821.167	26107
821.307	26332
821.447	26210
821.588	26073
821.728	25830
821.868	25871
822.008	25753
822.149	25635
822.289	25616
822.429	25384
822.569	25312
822.709	25304
822.849	25228
822.99	25160
823.13	25088
823.27	25042
823.41	24966
823.55	24947
823.69	24871
823.83	24913
823.97	24992
824.11	24760
824.25	24711
824.389	24654
824.529	24814
824.669	24783
824.809	24909
824.949	24947
825.089	24768
825.228	24753
825.368	24722
825.508	24654
825.648	24623
825.787	24757
825.927	24757
826.067	24688
826.206	24654
826.346	24700
826.485	24616
826.625	24760
826.765	24715
826.904	24814
827.044	24346
827.183	24441
827.323	24414
827.462	24384
827.601	24361
827.741	24296
827.88	24490
828.02	24228
828.159	24353
828.298	24277
828.437	24422
828.577	24308
828.716	24395
828.855	24232
828.994	24045
829.134	24102
829.273	24076
829.412	24110
829.551	23988
829.69	24057
829.829	24273
829.968	24117
830.107	24064
830.246	24091
830.385	24152
830.524	23954
830.663	23885
830.802	23851
830.941	23646
831.08	23707
831.219	23726
831.357	23722
831.496	23866
831.635	23722
831.774	23668
831.913	23497
832.051	23627
832.19	23455
832.329	23570
832.467	23448
832.606	23326
832.744	23417
832.883	23444
833.022	23410
833.16	23436
833.299	23444
833.437	23429
833.576	23516
833.714	23448
833.852	23455
833.991	23608
834.129	23680
834.267	23531
834.406	23391
834.544	23520
834.682	23417
834.821	23448
834.959	23573
835.097	23398
835.235	23421
835.373	23497
835.511	23497
835.65	23315
835.788	23284
835.926	23140
836.064	23056
836.202	23090
836.34	23353
836.478	23455
836.615	23151
836.753	23417
836.891	23353
837.029	23341
837.167	23307
837.305	23159
837.443	23178
837.58	23124
837.718	23220
837.856	23147
837.993	23128
838.131	23212
838.269	22957
838.406	23025
838.544	22965
838.681	22797
838.819	22748
838.956	22592
839.094	22615
839.231	22793
839.369	22729
839.506	22942
839.643	22820
839.781	22542
839.918	22611
840.055	22504
840.193	22588
840.33	22519
840.467	22565
840.604	22634
840.742	22824
840.879	22413
841.016	22577
841.153	22459
841.29	22584
841.427	22577
841.564	22634
841.701	22565
841.838	22577
841.975	22405
842.112	22455
842.249	22428
842.385	22318
842.522	22656
842.659	22329
842.796	22348
842.933	22367
843.069	22356
843.206	22333
843.343	22535
843.479	22333
843.616	22314
843.752	22070
843.889	22036
844.025	22238
844.162	22055
844.298	22310
844.435	22177
844.571	22010
844.708	22230
844.844	22318
844.98	22006
845.117	22188
845.253	21991
845.389	21907
845.525	21998
845.661	21998
845.798	21819
845.934	21945
846.07	21789
846.206	21838
846.342	22013
846.478	21903
846.614	21618
846.75	21447
846.886	21667
847.022	21698
847.158	21587
847.294	21644
847.429	21629
847.565	21553
847.701	21812
847.837	21443
847.972	21374
848.108	21405
848.244	21473
848.379	21161
848.515	21070
848.65	21131
848.786	21199
848.921	21214
849.057	21370
849.192	21264
849.328	21214
849.463	21214
849.598	21165
849.734	20986
849.869	21093
850.004	21005
850.14	20944
850.275	21020
850.41	20788
850.545	20929
850.68	20960
850.815	21039
850.95	20979
851.085	21146
851.22	21066
851.355	20918
851.49	20906
851.625	20952
851.76	21062
851.895	20914
852.03	20823
852.165	20883
852.299	21123
852.434	20990
852.569	20979
852.703	20925
852.838	20979
852.973	21066
853.107	21066
853.242	20975
853.376	20750
853.511	20701
853.645	20773
853.78	21028
853.914	20720
854.048	20708
854.183	20735
854.317	20800
854.451	21032
854.585	20857
854.72	20746
854.854	20811
854.988	20750
855.122	20845
855.256	20632
855.39	20693
855.524	20941
855.658	20864
855.792	20743
855.926	20944
856.06	20815
856.194	20910
856.327	20819
856.461	20678
856.595	20773
856.729	20617
856.862	20853
856.996	20864
857.13	21005
857.263	20861
857.397	20891
857.53	20849
857.664	20857
857.797	20788
857.931	20967
858.064	20811
858.197	20872
858.331	20712
858.464	20705
858.597	20693
858.731	20720
858.864	20716
858.997	20861
859.13	20788
859.263	20689
859.396	20941
859.529	20788
859.662	20720
859.795	20727
859.928	20739
860.061	20994
860.194	20994
860.327	20861
860.46	20842
860.592	20986
860.725	20960
860.858	20933
860.99	20883
861.123	20609
861.256	20667
861.388	20868
861.521	21332
861.653	20636
861.786	20594
861.918	20590
862.05	20617
862.183	20788
862.315	20746
862.447	20838
862.58	20678
862.712	20537
862.844	20404
862.976	20613
863.108	20537
863.24	20838
863.372	20522
863.504	20514
863.636	20514
863.768	20560
863.9	20678
864.032	20473
864.164	20587
864.296	20667
864.428	20564
864.559	20560
864.691	20602
864.823	20556
864.954	20438
865.086	20514
865.217	20522
865.349	20263
865.48	20427
865.612	20438
865.743	20575
865.875	20415
866.006	20381
866.137	20366
866.269	20366
866.4	20381
866.531	20328
866.662	20267
866.793	20313
866.924	20313
867.055	20438
867.186	20374
867.317	20336
867.448	20301
867.579	20339
867.71	20286
867.841	20225
867.972	20400
868.103	20362
868.233	20434
868.364	20393
868.495	20450
868.625	20606
868.756	20800
868.886	20552
869.017	20507
869.147	20678
869.278	20693
869.408	20640
869.539	20678
869.669	20670
869.799	20625
869.929	20625
870.06	20686
870.19	21017
870.32	20815
870.45	20979
870.58	20982
870.71	21085
870.84	21123
870.97	20963
871.1	21013
871.23	21157
871.36	21230
871.489	21116
871.619	21272
871.749	21112
871.879	21218
872.008	21222
872.138	21211
872.267	21279
872.397	21089
872.526	21058
872.656	21051
872.785	21051
872.915	21165
873.044	21252
873.173	21146
873.303	21298
873.432	21351
873.561	21199
873.69	21264
873.819	21222
873.948	21317
874.077	21176
874.206	21017
874.335	21291
874.464	21370
874.593	21412
874.722	21386
874.851	21519
874.979	21424
875.108	21500
875.237	21500
875.365	21412
875.494	21466
875.623	21450
875.751	21382
875.88	21561
876.008	21583
876.136	21641
876.265	21972
876.393	22048
876.521	21945
876.65	21918
876.778	21918
876.906	21930
877.034	21819
877.162	21789
877.29	21736
877.418	21736
877.546	21720
877.674	21823
877.802	21994
877.93	21846
878.058	21823
878.185	21690
878.313	21732
878.441	21842
878.568	21606
878.696	21705
878.824	21865
878.951	21899
879.079	22036
879.206	22078
879.333	21884
879.461	21949
879.588	21949
879.715	21979
879.842	22082
879.97	21789
880.097	21739
880.224	21660
880.351	21641
880.478	21751
880.605	21675
880.732	21667
880.859	21903
880.986	21728
881.112	21622
881.239	21450
881.366	21329
881.493	21378
881.619	21275
881.746	21275
881.872	21161
881.999	21154
882.125	21077
882.252	21176
882.378	21336
882.505	21336
882.631	21116
882.757	20948
882.883	20933
883.01	20982
883.136	20811
883.262	20712
883.388	20777
883.514	21013
883.64	21013
883.766	20781
883.892	20625
884.018	20883
884.143	20883
884.269	20990
884.395	20644
884.52	20503
884.646	20571
884.772	20617
884.897	20408
885.023	20514
885.148	20735
885.274	20670
885.399	20720
885.524	20541
885.65	20705
885.775	20480
885.9	20537
886.025	20807
886.15	20720
886.275	20522
886.4	20366
886.525	20583
886.65	20564
886.775	20499
886.9	20556
887.025	20655
887.149	20507
887.274	20282
887.399	20267
887.523	20431
887.648	20244
887.773	20252
887.897	20336
888.021	20454
888.146	20263
888.27	20419
888.395	20301
888.519	20278
888.643	20377
888.767	20366
888.891	20286
889.015	20088
889.139	20187
889.263	20103
889.387	20134
889.511	20324
889.635	20263
889.759	20084
889.883	20103
890.006	20020
890.13	20267
890.254	20130
890.377	20092
890.501	19925
890.624	19753
890.748	19955
890.871	19795
890.995	19689
891.118	19632
891.241	19704
891.364	19734
891.488	19746
891.611	19647
891.734	19655
891.857	19795
891.98	19681
892.103	19826
892.226	19833
892.349	19624
892.471	19552
892.594	19712
892.717	19776
892.839	19677
892.962	19639
893.085	19590
893.207	19609
893.33	19620
893.452	19559
893.575	19590
893.697	19556
893.819	19738
893.941	19795
894.064	19757
894.186	19643
894.308	19651
894.43	19567
894.552	19795
894.674	19811
894.796	19677
894.918	19582
895.04	19647
895.161	19681
895.283	19677
895.405	19495
895.526	19647
895.648	19609
895.769	19533
895.891	19655
896.012	19620
896.134	19791
896.255	19632
896.376	19578
896.498	19571
896.619	19738
896.74	19635
896.861	19578
896.982	19944
897.103	20073
897.224	19860
897.345	19753
897.466	19772
897.587	19932
897.708	19928
897.828	19906
897.949	19864
898.07	19784
898.19	19841
898.311	19967
898.431	19833
898.552	19913
898.672	19871
898.792	19986
898.913	19887
899.033	19772
899.153	19731
899.273	19514
899.393	19601
899.513	19689
899.633	19514
899.753	19685
899.873	19556
899.993	19506
900.113	19590
900.232	19677
900.352	19704
900.472	19419
900.591	19346
900.711	19434
900.83	19445
900.95	19392
901.069	19518
901.189	19304
901.308	19141
901.427	18924
901.546	18935
901.665	19000
901.784	18928
901.904	18852
902.023	18840
902.141	18494
902.26	18635
902.379	18593
902.498	18471
902.617	18471
902.735	18422
902.854	18467
902.973	18445
903.091	18289
903.21	18155
903.328	18133
903.446	18030
903.565	17897
903.683	18045
903.801	17878
903.919	17961
904.038	17992
904.156	17710
904.274	17805
904.392	17733
904.51	17760
904.627	17726
904.745	17718
904.863	17904
904.981	17490
905.098	17410
905.216	17391
905.334	17592
905.451	17452
905.569	17425
905.686	17471
905.803	17440
905.921	17204
906.038	17326
906.155	17193
906.272	17102
906.389	17067
906.506	17014
906.623	16949
906.74	17022
906.857	16881
906.974	16908
907.091	16991
907.208	17079
907.324	16953
907.441	16911
907.557	16752
907.674	16630
907.79	16637
907.907	16618
908.023	16615
908.139	16801
908.256	16710
908.372	16660
908.488	16558
908.604	16443
908.72	16375
908.836	16402
908.952	16451
909.068	16367
909.184	16561
909.3	16424
909.415	16466
909.531	16352
909.647	16128
909.762	16105
909.878	16093
909.993	16090
910.108	16101
910.224	16147
910.339	16150
910.454	16029
910.57	15972
910.685	15880
910.8	16154
910.915	16074
911.03	15907
911.145	15732
911.259	15720
911.374	15736
911.489	15656
911.604	15606
911.718	15507
911.833	15481
911.947	15355
912.062	15313
912.176	15481
912.291	15526
912.405	15504
912.519	15705
912.633	15694
912.748	15549
912.862	15477
912.976	15310
913.09	15116
913.204	15340
913.318	15416
913.431	15268
913.545	15408
913.659	15310
913.772	15313
913.886	15085
914	15222
914.113	15214
914.226	15127
914.34	15192
914.453	14963
914.566	15138
914.68	15047
914.793	14918
914.906	14830
915.019	14826
915.132	14682
915.245	14682
915.358	14651
915.47	14762
915.583	14750
915.696	14750
915.809	14925
915.921	14788
916.034	14712
916.146	14598
916.259	14579
916.371	14708
916.483	14686
916.595	14613
916.708	14594
916.82	14621
916.932	14568
917.044	14484
917.156	14454
917.268	14393
917.38	14457
917.491	14404
917.603	14480
917.715	14507
917.826	14450
917.938	14396
918.049	14267
918.161	14362
918.272	14495
918.384	14415
918.495	14415
918.606	14195
918.717	14050
918.828	14233
918.939	14199
919.05	14081
919.161	14142
919.272	14027
919.383	14020
919.494	14252
919.604	14320
919.715	14103
919.826	14119
919.936	14164
920.047	14176
920.157	14050
920.267	14317
920.378	14119
920.488	14058
920.598	14320
920.708	14415
920.818	14225
920.928	14252
921.038	14503
921.148	14389
921.258	14062
921.368	13917
921.477	13822
921.587	13818
921.697	13837
921.806	13871
921.916	13693
922.025	13601
922.134	13552
922.244	13487
922.353	13544
922.462	13468
922.571	13331
922.68	13232
922.789	13084
922.898	13160
923.007	13103
923.116	13198
923.224	13152
923.333	13209
923.442	13012
923.55	13088
923.659	13053
923.767	13000
923.876	12970
923.984	13091
924.092	12859
924.201	12977
924.309	12947
924.417	12920
924.525	12894
924.633	12916
924.741	13776
924.849	12608
924.956	12829
925.064	12631
925.172	12662
925.279	12597
925.387	12528
925.494	12601
925.602	12757
925.709	12578
925.816	12486
925.924	12555
926.031	12662
926.138	12536
926.245	12570
926.352	12479
926.459	12608
926.566	12669
926.673	12559
926.779	12490
926.886	12414
926.993	12239
927.099	12194
927.206	12182
927.312	12167
927.419	12224
927.525	12197
927.631	12262
927.737	12053
927.843	12098
927.95	11920
928.056	12083
928.162	12076
928.267	12034
928.373	12639
928.479	12038
928.585	11752
928.69	11950
928.796	12026
928.901	11843
929.007	11840
929.112	11878
929.218	11798
929.323	11707
929.428	11722
929.533	12019
929.638	11653
929.743	11718
929.848	11764
929.953	11668
930.058	11516
930.163	11425
930.267	11516
930.372	11516
930.477	11387
930.581	11623
930.685	11429
930.79	11448
930.894	11353
930.998	11277
931.103	11440
931.207	11033
931.311	10968
931.415	10900
931.519	10714
931.623	10759
