Data from test_V78500241_1614.txt Node
Date: Fri Mar 25 15:21:05 CST 2022
User: usil
Spectrometer: V785-0024
Trigger mode: 0
Integration Time (sec): 4.000000E-1
Scans to average: 1
Nonlinearity correction enabled: false
Boxcar width: 0
Storing dark spectrum: false
XAxis mode: Wavelengths
Number of Pixels in Spectrum: 1024
>>>>>Begin Spectral Data<<<<<
801.071	27736
801.214	27671
801.356	27443
801.499	27435
801.641	27233
801.783	27256
801.926	27294
802.068	27317
802.211	27237
802.353	27165
802.496	26910
802.638	26933
802.78	26891
802.923	26887
803.065	27013
803.208	26777
803.35	26887
803.492	27036
803.635	27096
803.777	26876
803.919	27112
804.061	27351
804.204	27199
804.346	27077
804.488	27024
804.63	27066
804.773	27043
804.915	27051
805.057	27165
805.199	27116
805.341	27180
805.483	27275
805.626	27192
805.768	27226
805.91	27363
806.052	27188
806.194	27268
806.336	27359
806.478	27199
806.62	27268
806.762	27298
806.904	27526
807.046	27629
807.188	27663
807.33	27641
807.472	27778
807.614	27557
807.756	27656
807.898	27568
808.04	27374
808.182	27488
808.324	27572
808.465	27488
808.607	27781
808.749	27823
808.891	27808
809.033	28002
809.174	27819
809.316	27857
809.458	27819
809.6	27804
809.741	27987
809.883	27983
810.025	28010
810.166	28150
810.308	28093
810.45	27991
810.591	27979
810.733	27953
810.875	27793
811.016	27694
811.158	27789
811.299	28025
811.441	27972
811.582	28002
811.724	27842
811.865	27812
812.007	27819
812.148	27831
812.29	27869
812.431	28048
812.573	28181
812.714	28188
812.855	28314
812.997	28561
813.138	28653
813.279	28455
813.421	28401
813.562	28238
813.703	28272
813.845	28112
813.986	27846
814.127	27675
814.268	27553
814.41	27523
814.551	27583
814.692	27583
814.833	27466
814.974	27572
815.115	27530
815.256	27336
815.397	27492
815.539	27427
815.68	27427
815.821	27313
815.962	27260
816.103	27306
816.244	27131
816.385	27218
816.526	27089
816.666	26967
816.807	26834
816.948	26914
817.089	26849
817.23	26594
817.371	26788
817.512	26720
817.653	26895
817.793	26754
817.934	26899
818.075	26830
818.216	26788
818.356	26705
818.497	26815
818.638	26640
818.778	26541
818.919	26598
819.06	26640
819.2	26644
819.341	26644
819.481	26781
819.622	27013
819.762	27169
819.903	27070
820.043	27028
820.184	26906
820.324	26899
820.465	26982
820.605	26902
820.746	26838
820.886	26792
821.026	26914
821.167	26804
821.307	26883
821.447	26834
821.588	26815
821.728	26663
821.868	26377
822.008	26362
822.149	26347
822.289	26157
822.429	25875
822.569	25989
822.709	25917
822.849	25887
822.99	25814
823.13	25860
823.27	25601
823.41	25540
823.55	25548
823.69	25632
823.83	25613
823.97	25575
824.11	25468
824.25	25388
824.389	25411
824.529	25666
824.669	25434
824.809	25620
824.949	25460
825.089	25552
825.228	25346
825.368	25289
825.508	25259
825.648	25255
825.787	25327
825.927	25441
826.067	25247
826.206	25346
826.346	25339
826.485	25209
826.625	25293
826.765	25297
826.904	25289
827.044	25122
827.183	25088
827.323	24875
827.462	25050
827.601	24977
827.741	24981
827.88	25072
828.02	24920
828.159	25057
828.298	24958
828.437	25175
828.577	24901
828.716	25076
828.855	24783
828.994	24681
829.134	24753
829.273	24787
829.412	24669
829.551	24677
829.69	24719
829.829	24715
829.968	24802
830.107	24760
830.246	24658
830.385	24734
830.524	24540
830.663	24498
830.802	24479
830.941	24414
831.08	24395
831.219	24403
831.357	24369
831.496	24498
831.635	24251
831.774	24232
831.913	24209
832.051	24228
832.19	24057
832.329	24072
832.467	23996
832.606	24018
832.744	23961
832.883	23874
833.022	23889
833.16	24057
833.299	24022
833.437	23999
833.576	24102
833.714	24087
833.852	24079
833.991	24136
834.129	24205
834.267	24155
834.406	24053
834.544	24129
834.682	24087
834.821	24091
834.959	24148
835.097	24079
835.235	24167
835.373	24030
835.511	24030
835.65	23863
835.788	23984
835.926	23752
836.064	23680
836.202	23714
836.34	23969
836.478	23961
836.615	23889
836.753	23988
836.891	23980
837.029	23923
837.167	23847
837.305	23703
837.443	23821
837.58	23798
837.718	23916
837.856	23745
837.993	23680
838.131	23752
838.269	23570
838.406	23642
838.544	23528
838.681	23349
838.819	23372
838.956	23178
839.094	23181
839.231	23258
839.369	23360
839.506	23623
839.643	23486
839.781	23235
839.918	23155
840.055	23117
840.193	23204
840.33	23109
840.467	23181
840.604	23143
840.742	23417
840.879	22987
841.016	22976
841.153	23033
841.29	23105
841.427	23128
841.564	23220
841.701	23212
841.838	22987
841.975	23025
842.112	22995
842.249	22828
842.385	22767
842.522	23048
842.659	23048
842.796	22889
842.933	22843
843.069	22877
843.206	22809
843.343	22965
843.479	22805
843.616	22881
843.752	22653
843.889	22599
844.025	22877
844.162	22607
844.298	22733
844.435	22637
844.571	22672
844.708	22656
844.844	22805
844.98	22793
845.117	22835
845.253	22637
845.389	22698
845.525	22554
845.661	22592
845.798	22310
845.934	22390
846.07	22329
846.206	22390
846.342	22428
846.478	22360
846.614	22082
846.75	22105
846.886	22059
847.022	22310
847.158	22124
847.294	22158
847.429	22158
847.565	22070
847.701	22287
847.837	21903
847.972	21842
848.108	22010
848.244	21888
848.379	21747
848.515	21622
848.65	21736
848.786	21800
848.921	21686
849.057	21793
849.192	21751
849.328	21690
849.463	21747
849.598	21652
849.734	21682
849.869	21561
850.004	21363
850.14	21542
850.275	21580
850.41	21382
850.545	21386
850.68	21370
850.815	21435
850.95	21439
851.085	21728
851.22	21481
851.355	21431
851.49	21504
851.625	21374
851.76	21386
851.895	21336
852.03	21382
852.165	21424
852.299	21500
852.434	21507
852.569	21511
852.703	21496
852.838	21606
852.973	21485
853.107	21526
853.242	21370
853.376	21260
853.511	21184
853.645	21135
853.78	21458
853.914	21389
854.048	21218
854.183	21325
854.317	21397
854.451	21447
854.585	21325
854.72	21275
854.854	21405
854.988	21245
855.122	21298
855.256	21123
855.39	21306
855.524	21378
855.658	21310
855.792	21233
855.926	21351
856.06	21344
856.194	21428
856.327	21207
856.461	21184
856.595	21287
856.729	21173
856.862	21389
856.996	21332
857.13	21291
857.263	21386
857.397	21279
857.53	21268
857.664	21348
857.797	21424
857.931	21359
858.064	21226
858.197	21405
858.331	21313
858.464	21222
858.597	21085
858.731	21207
858.864	21291
858.997	21310
859.13	21287
859.263	21389
859.396	21389
859.529	21275
859.662	21207
859.795	21203
859.928	21317
860.061	21492
860.194	21599
860.327	21279
860.46	21367
860.592	21359
860.725	21378
860.858	21412
860.99	21359
861.123	21313
861.256	21203
861.388	21226
861.521	21876
861.653	21211
861.786	21135
861.918	21199
862.05	21184
862.183	21275
862.315	21203
862.447	21157
862.58	21165
862.712	20941
862.844	21032
862.976	21089
863.108	20963
863.24	21351
863.372	21009
863.504	20994
863.636	21017
863.768	20960
863.9	20925
864.032	20933
864.164	21013
864.296	20998
864.428	21039
864.559	21028
864.691	21085
864.823	20979
864.954	20876
865.086	20960
865.217	21020
865.349	20826
865.48	20754
865.612	20872
865.743	20963
865.875	20842
866.006	20769
866.137	20781
866.269	20887
866.4	20963
866.531	20883
866.662	20819
866.793	20815
866.924	20834
867.055	20899
867.186	20785
867.317	20899
867.448	20609
867.579	20727
867.71	20739
867.841	20625
867.972	20868
868.103	20750
868.233	20823
868.364	20845
868.495	20906
868.625	21096
868.756	21131
868.886	21070
869.017	20986
869.147	21104
869.278	21093
869.408	21127
869.539	21055
869.669	21180
869.799	21199
869.929	21294
870.06	21203
870.19	21450
870.32	21287
870.45	21329
870.58	21481
870.71	21549
870.84	21557
870.97	21424
871.1	21439
871.23	21660
871.36	21625
871.489	21610
871.619	21587
871.749	21580
871.879	21682
872.008	21800
872.138	21576
872.267	21679
872.397	21587
872.526	21454
872.656	21500
872.785	21477
872.915	21778
873.044	21842
873.173	21686
873.303	21838
873.432	21766
873.561	21736
873.69	21766
873.819	21679
873.948	21770
874.077	21610
874.206	21595
874.335	21679
874.464	21766
874.593	21998
874.722	21827
874.851	21956
874.979	21911
875.108	21972
875.237	21713
875.365	21854
875.494	21857
875.623	21903
875.751	21724
875.88	21857
876.008	21998
876.136	22017
876.265	22257
876.393	22379
876.521	22341
876.65	22386
876.778	22375
876.906	22284
877.034	22215
877.162	22185
877.29	22287
877.418	22242
877.546	22318
877.674	22204
877.802	22337
877.93	22314
878.058	22150
878.185	22154
878.313	22238
878.441	22276
878.568	22097
878.696	22257
878.824	22188
878.951	22348
879.079	22470
879.206	22485
879.333	22478
879.461	22280
879.588	22421
879.715	22455
879.842	22519
879.97	22272
880.097	22082
880.224	22059
880.351	22158
880.478	22162
880.605	22097
880.732	22082
880.859	22337
880.986	22063
881.112	22074
881.239	21964
881.366	21873
881.493	21610
881.619	21694
881.746	21698
881.872	21781
881.999	21675
882.125	21618
882.252	21591
882.378	21667
882.505	21701
882.631	21557
882.757	21401
882.883	21450
883.01	21306
883.136	21329
883.262	21211
883.388	21256
883.514	21237
883.64	21412
883.766	21291
883.892	21184
884.018	21245
884.143	21298
884.269	21363
884.395	21089
884.52	20994
884.646	21108
884.772	20971
884.897	20910
885.023	20979
885.148	21047
885.274	21207
885.399	21104
885.524	21013
885.65	21036
885.775	21036
885.9	20990
886.025	21104
886.15	21058
886.275	20929
886.4	20933
886.525	21047
886.65	20880
886.775	20876
886.9	21157
887.025	21131
887.149	20921
887.274	20826
887.399	20781
887.523	20788
887.648	20659
887.773	20693
887.897	20769
888.021	20849
888.146	20785
888.27	20788
888.395	20811
888.519	20686
888.643	20864
888.767	20845
888.891	20716
889.015	20587
889.139	20583
889.263	20533
889.387	20579
889.511	20659
889.635	20689
889.759	20571
889.883	20632
890.006	20590
890.13	20727
890.254	20541
890.377	20579
890.501	20313
890.624	20240
890.748	20328
890.871	20092
890.995	20145
891.118	20012
891.241	20069
891.364	20130
891.488	20233
891.611	20142
891.734	20126
891.857	20233
891.98	20187
892.103	20119
892.226	19959
892.349	20046
892.471	19925
892.594	20035
892.717	20176
892.839	20043
892.962	20062
893.085	20183
893.207	19986
893.33	19909
893.452	19849
893.575	20039
893.697	20005
893.819	20153
893.941	20191
894.064	20096
894.186	19887
894.308	19868
894.43	20088
894.552	20088
894.674	20062
894.796	19940
894.918	19978
895.04	19917
895.161	20065
895.283	20065
895.405	19944
895.526	20058
895.648	20005
895.769	20069
895.891	20073
896.012	20073
896.134	20039
896.255	20130
896.376	19856
896.498	20088
896.619	20077
896.74	20031
896.861	20020
896.982	20320
897.103	20465
897.224	20233
897.345	20248
897.466	20130
897.587	20092
897.708	20473
897.828	20176
897.949	20214
898.07	20035
898.19	20199
898.311	20275
898.431	20145
898.552	20267
898.672	20244
898.792	20263
898.913	20328
899.033	20199
899.153	20043
899.273	19932
899.393	19997
899.513	20046
899.633	19963
899.753	20084
899.873	19947
899.993	19974
900.113	19868
900.232	19875
900.352	19932
900.472	19799
900.591	19742
900.711	19799
900.83	19689
900.95	19803
901.069	19761
901.189	19696
901.308	19480
901.427	19453
901.546	19278
901.665	19411
901.784	19266
901.904	19289
902.023	19046
902.141	19015
902.26	18935
902.379	18928
902.498	18867
902.617	18844
902.735	18882
902.854	18814
902.973	18825
903.091	18623
903.21	18540
903.328	18532
903.446	18418
903.565	18350
903.683	18357
903.801	18251
903.919	18251
904.038	18232
904.156	18144
904.274	18205
904.392	18015
904.51	18102
904.627	18182
904.745	18072
904.863	18110
904.981	17882
905.098	17684
905.216	17783
905.334	17779
905.451	17813
905.569	17809
905.686	17927
905.803	17805
905.921	17608
906.038	17608
906.155	17589
906.272	17436
906.389	17448
906.506	17261
906.623	17425
906.74	17284
906.857	17250
906.974	17254
907.091	17345
907.208	17524
907.324	17448
907.441	17261
907.557	17208
907.674	17086
907.79	16923
907.907	17018
908.023	17178
908.139	17029
908.256	17014
908.372	16980
908.488	16930
908.604	16744
908.72	16771
908.836	16812
908.952	16763
909.068	16687
909.184	16858
909.3	16786
909.415	16782
909.531	16725
909.647	16470
909.762	16523
909.878	16394
909.993	16432
910.108	16493
910.224	16356
910.339	16455
910.454	16371
910.57	16371
910.685	16230
910.8	16561
910.915	16440
911.03	16261
911.145	15998
911.259	16051
911.374	16029
911.489	16101
911.604	15991
911.718	15838
911.833	15751
911.947	15751
912.062	15629
912.176	15827
912.291	15850
912.405	15770
912.519	15998
912.633	15941
912.748	15823
912.862	15720
912.976	15724
913.09	15530
913.204	15523
913.318	15629
913.431	15732
913.545	15682
913.659	15686
913.772	15561
913.886	15447
914	15450
914.113	15523
914.226	15667
914.34	15462
914.453	15363
914.566	15408
914.68	15332
914.793	15260
914.906	15055
915.019	15100
915.132	15039
915.245	15017
915.358	15081
915.47	15070
915.583	15013
915.696	15043
915.809	15123
915.921	15184
916.034	14956
916.146	15005
916.259	14925
916.371	15058
916.483	14929
916.595	14845
916.708	14838
916.82	14788
916.932	14887
917.044	14804
917.156	14872
917.268	14792
917.38	14735
917.491	14716
917.603	14750
917.715	14792
917.826	14720
917.938	14659
918.049	14541
918.161	14579
918.272	14815
918.384	14720
918.495	14651
918.606	14469
918.717	14408
918.828	14484
918.939	14488
919.05	14233
919.161	14381
919.272	14164
919.383	14351
919.494	14484
919.604	14579
919.715	14457
919.826	14347
919.936	14434
920.047	14400
920.157	14415
920.267	14594
920.378	14396
920.488	14324
920.598	14526
920.708	14632
920.818	14526
920.928	14461
921.038	14769
921.148	14629
921.258	14377
921.368	14210
921.477	14240
921.587	14126
921.697	14046
921.806	14145
921.916	14046
922.025	13894
922.134	13696
922.244	13708
922.353	13864
922.462	13670
922.571	13620
922.68	13438
922.789	13438
922.898	13495
923.007	13438
923.116	13590
923.224	13453
923.333	13426
923.442	13263
923.55	13240
923.659	13289
923.767	13335
923.876	13255
923.984	13225
924.092	13202
924.201	13149
924.309	13175
924.417	13133
924.525	13183
924.633	13118
924.741	14039
924.849	12954
924.956	13072
925.064	12867
925.172	12768
925.279	12802
925.387	12890
925.494	12890
925.602	13015
925.709	12871
925.816	12722
925.924	12837
926.031	12844
926.138	12837
926.245	12802
926.352	12715
926.459	12875
926.566	12859
926.673	12711
926.779	12684
926.886	12570
926.993	12410
927.099	12445
927.206	12418
927.312	12410
927.419	12471
927.525	12429
927.631	12475
927.737	12239
927.843	12216
927.95	12205
928.056	12209
928.162	12224
928.267	12262
928.373	12924
928.479	12330
928.585	12091
928.69	12190
928.796	12152
928.901	12068
929.007	12019
929.112	12106
929.218	12110
929.323	12083
929.428	12022
929.533	12079
929.638	11798
929.743	11904
929.848	11992
929.953	11897
930.058	11843
930.163	11611
930.267	11668
930.372	11840
930.477	11672
930.581	11821
930.685	11741
930.79	11554
930.894	11543
930.998	11562
931.103	11722
931.207	11345
931.311	11170
931.415	11143
931.519	10934
931.623	10930
