Data from test_V78500241_95.txt Node
Date: Fri Mar 25 15:10:31 CST 2022
User: usil
Spectrometer: V785-0024
Trigger mode: 0
Integration Time (sec): 4.000000E-1
Scans to average: 1
Nonlinearity correction enabled: false
Boxcar width: 0
Storing dark spectrum: false
XAxis mode: Wavelengths
Number of Pixels in Spectrum: 1024
>>>>>Begin Spectral Data<<<<<
801.071	28493
801.214	28367
801.356	28048
801.499	28006
801.641	27949
801.783	27918
801.926	27998
802.068	27816
802.211	27701
802.353	27770
802.496	27660
802.638	27644
802.78	27466
802.923	27374
803.065	27511
803.208	27511
803.35	27466
803.492	27549
803.635	27637
803.777	27420
803.919	27682
804.061	27960
804.204	27679
804.346	27507
804.488	27393
804.63	27553
804.773	27412
804.915	27603
805.057	27564
805.199	27515
805.341	27610
805.483	27698
805.626	27595
805.768	27439
805.91	27587
806.052	27789
806.194	27534
806.336	27762
806.478	27679
806.62	27580
806.762	27694
806.904	27698
807.046	28150
807.188	28040
807.33	28055
807.472	28021
807.614	27968
807.756	27835
807.898	27861
808.04	27854
808.182	27804
808.324	27819
808.465	27831
808.607	28013
808.749	28131
808.891	28310
809.033	28386
809.174	28238
809.316	28131
809.458	28078
809.6	28166
809.741	28139
809.883	28120
810.025	28249
810.166	28379
810.308	28462
810.45	28280
810.591	28310
810.733	28105
810.875	28048
811.016	27949
811.158	27899
811.299	28223
811.441	28059
811.582	28306
811.724	28173
811.865	27876
812.007	28002
812.148	28021
812.29	28116
812.431	28337
812.573	28421
812.714	28421
812.855	28546
812.997	28687
813.138	28698
813.279	28660
813.421	28504
813.562	28504
813.703	28310
813.845	28249
813.986	27953
814.127	27903
814.268	27576
814.41	27690
814.551	27679
814.692	27770
814.833	27720
814.974	27610
815.115	27576
815.256	27591
815.397	27507
815.539	27477
815.68	27389
815.821	27256
815.962	27458
816.103	27336
816.244	27306
816.385	27135
816.526	27199
816.666	27112
816.807	26819
816.948	26838
817.089	26971
817.23	26811
817.371	26785
817.512	26705
817.653	26845
817.793	26895
817.934	26842
818.075	26758
818.216	26686
818.356	26674
818.497	26602
818.638	26613
818.778	26514
818.919	26503
819.06	26412
819.2	26575
819.341	26739
819.481	26735
819.622	26792
819.762	27131
819.903	26910
820.043	26876
820.184	26899
820.324	26823
820.465	26876
820.605	26929
820.746	26773
820.886	26727
821.026	26754
821.167	26743
821.307	26853
821.447	26739
821.588	26594
821.728	26415
821.868	26271
822.008	26119
822.149	26202
822.289	26138
822.429	25925
822.569	25822
822.709	25890
822.849	25594
822.99	25578
823.13	25677
823.27	25571
823.41	25438
823.55	25365
823.69	25365
823.83	25430
823.97	25327
824.11	25202
824.25	25183
824.389	25126
824.529	25263
824.669	25255
824.809	25358
824.949	25274
825.089	25259
825.228	25133
825.368	24966
825.508	25015
825.648	25019
825.787	25065
825.927	25206
826.067	24958
826.206	25095
826.346	25069
826.485	24951
826.625	25015
826.765	25209
826.904	24977
827.044	24631
827.183	24783
827.323	24650
827.462	24779
827.601	24559
827.741	24509
827.88	24616
828.02	24608
828.159	24490
828.298	24642
828.437	24673
828.577	24536
828.716	24795
828.855	24547
828.994	24323
829.134	24467
829.273	24270
829.412	24410
829.551	24247
829.69	24311
829.829	24422
829.968	24414
830.107	24308
830.246	24266
830.385	24395
830.524	24304
830.663	24136
830.802	23980
830.941	24053
831.08	24053
831.219	24060
831.357	24030
831.496	24171
831.635	23878
831.774	23824
831.913	23756
832.051	23752
832.19	23676
832.329	23722
832.467	23554
832.606	23573
832.744	23509
832.883	23452
833.022	23459
833.16	23551
833.299	23524
833.437	23600
833.576	23634
833.714	23516
833.852	23630
833.991	23615
834.129	23630
834.267	23615
834.406	23558
834.544	23581
834.682	23608
834.821	23493
834.959	23627
835.097	23326
835.235	23486
835.373	23497
835.511	23531
835.65	23425
835.788	23330
835.926	23292
836.064	23250
836.202	23174
836.34	23417
836.478	23478
836.615	23296
836.753	23280
836.891	23395
837.029	23356
837.167	23269
837.305	23318
837.443	23345
837.58	23086
837.718	23277
837.856	23242
837.993	23117
838.131	23284
838.269	23147
838.406	22908
838.544	22858
838.681	22801
838.819	22881
838.956	22615
839.094	22535
839.231	22641
839.369	22778
839.506	22961
839.643	22854
839.781	22550
839.918	22535
840.055	22538
840.193	22592
840.33	22531
840.467	22550
840.604	22489
840.742	22683
840.879	22295
841.016	22432
841.153	22421
841.29	22618
841.427	22500
841.564	22440
841.701	22455
841.838	22402
841.975	22451
842.112	22409
842.249	22276
842.385	22238
842.522	22428
842.659	22249
842.796	22253
842.933	22314
843.069	22169
843.206	22196
843.343	22253
843.479	22181
843.616	22211
843.752	22036
843.889	21892
844.025	22044
844.162	21903
844.298	21911
844.435	21979
844.571	21930
844.708	21956
844.844	22036
844.98	22025
845.117	22063
845.253	21884
845.389	21865
845.525	21823
845.661	21785
845.798	21629
845.934	21793
846.07	21644
846.206	21667
846.342	21667
846.478	21568
846.614	21393
846.75	21336
846.886	21416
847.022	21507
847.158	21450
847.294	21443
847.429	21504
847.565	21336
847.701	21580
847.837	21329
847.972	21138
848.108	21195
848.244	21138
848.379	21146
848.515	20967
848.65	20937
848.786	20967
848.921	20941
849.057	21062
849.192	21024
849.328	21009
849.463	20956
849.598	20906
849.734	20906
849.869	20781
850.004	20758
850.14	20640
850.275	20693
850.41	20655
850.545	20686
850.68	20689
850.815	20758
850.95	20663
851.085	20838
851.22	20853
851.355	20758
851.49	20731
851.625	20720
851.76	20587
851.895	20594
852.03	20625
852.165	20579
852.299	20785
852.434	20819
852.569	20678
852.703	20552
852.838	20773
852.973	20773
853.107	20804
853.242	20693
853.376	20579
853.511	20278
853.645	20507
853.78	20636
853.914	20484
854.048	20686
854.183	20476
854.317	20568
854.451	20644
854.585	20556
854.72	20560
854.854	20560
854.988	20537
855.122	20480
855.256	20339
855.39	20415
855.524	20473
855.658	20541
855.792	20492
855.926	20583
856.06	20560
856.194	20518
856.327	20454
856.461	20434
856.595	20446
856.729	20465
856.862	20476
856.996	20419
857.13	20438
857.263	20568
857.397	20454
857.53	20400
857.664	20366
857.797	20484
857.931	20571
858.064	20507
858.197	20587
858.331	20404
858.464	20362
858.597	20298
858.731	20385
858.864	20332
858.997	20419
859.13	20495
859.263	20492
859.396	20579
859.529	20358
859.662	20282
859.795	20457
859.928	20473
860.061	20533
860.194	20575
860.327	20530
860.46	20332
860.592	20552
860.725	20526
860.858	20590
860.99	20381
861.123	20294
861.256	20301
861.388	20415
861.521	20960
861.653	20393
861.786	20282
861.918	20298
862.05	20431
862.183	20434
862.315	20480
862.447	20545
862.58	20355
862.712	20275
862.844	20176
862.976	20183
863.108	20149
863.24	20682
863.372	20138
863.504	20096
863.636	20168
863.768	20202
863.9	20039
864.032	20050
864.164	20058
864.296	20111
864.428	20214
864.559	20229
864.691	20210
864.823	20115
864.954	20134
865.086	20122
865.217	20016
865.349	19940
865.48	20012
865.612	20035
865.743	20149
865.875	19986
866.006	19986
866.137	19940
866.269	20081
866.4	20008
866.531	19868
866.662	19814
866.793	19974
866.924	20016
867.055	20027
867.186	19959
867.317	19860
867.448	19788
867.579	19856
867.71	19852
867.841	19799
867.972	20027
868.103	19845
868.233	19944
868.364	19925
868.495	20027
868.625	20008
868.756	20275
868.886	20191
869.017	20161
869.147	20328
869.278	20256
869.408	20267
869.539	20199
869.669	20248
869.799	20347
869.929	20294
870.06	20336
870.19	20457
870.32	20473
870.45	20640
870.58	20537
870.71	20575
870.84	20621
870.97	20613
871.1	20602
871.23	20731
871.36	20659
871.489	20743
871.619	20678
871.749	20800
871.879	20781
872.008	20861
872.138	20823
872.267	20682
872.397	20708
872.526	20571
872.656	20556
872.785	20632
872.915	20777
873.044	20876
873.173	20777
873.303	20773
873.432	20796
873.561	20963
873.69	20773
873.819	20796
873.948	20815
874.077	20758
874.206	20689
874.335	20819
874.464	21024
874.593	20929
874.722	21066
874.851	21131
874.979	21169
875.108	21096
875.237	20956
875.365	20891
875.494	21104
875.623	21074
875.751	20979
875.88	20986
876.008	21062
876.136	21157
876.265	21420
876.393	21591
876.521	21507
876.65	21595
876.778	21462
876.906	21443
877.034	21397
877.162	21370
877.29	21310
877.418	21450
877.546	21412
877.674	21485
877.802	21382
877.93	21408
878.058	21317
878.185	21313
878.313	21386
878.441	21329
878.568	21252
878.696	21260
878.824	21370
878.951	21496
879.079	21549
879.206	21595
879.333	21572
879.461	21420
879.588	21485
879.715	21572
879.842	21717
879.97	21481
880.097	21157
880.224	21226
880.351	21237
880.478	21287
880.605	21176
880.732	21214
880.859	21447
880.986	21233
881.112	21302
881.239	21055
881.366	20868
881.493	20804
881.619	20792
881.746	20800
881.872	20762
881.999	20689
882.125	20792
882.252	20853
882.378	20800
882.505	20883
882.631	20670
882.757	20693
882.883	20674
883.01	20549
883.136	20469
883.262	20355
883.388	20400
883.514	20613
883.64	20651
883.766	20336
883.892	20347
884.018	20294
884.143	20446
884.269	20621
884.395	20187
884.52	20271
884.646	20233
884.772	20142
884.897	20161
885.023	20176
885.148	20343
885.274	20301
885.399	20332
885.524	20183
885.65	20153
885.775	20176
885.9	20164
886.025	20225
886.15	20248
886.275	19993
886.4	20069
886.525	20202
886.65	20096
886.775	20138
886.9	20225
887.025	20355
887.149	20126
887.274	20145
887.399	19951
887.523	19833
887.648	19795
887.773	19833
887.897	19944
888.021	20084
888.146	19986
888.27	20020
888.395	20100
888.519	19970
888.643	20016
888.767	19955
888.891	19814
889.015	19772
889.139	19791
889.263	19719
889.387	19856
889.511	19883
889.635	19689
889.759	19727
889.883	19811
890.006	19742
890.13	19871
890.254	19712
890.377	19620
890.501	19495
890.624	19483
890.748	19643
890.871	19331
890.995	19213
891.118	19217
891.241	19331
891.364	19335
891.488	19407
891.611	19350
891.734	19339
891.857	19354
891.98	19388
892.103	19244
892.226	19331
892.349	19339
892.471	19126
892.594	19320
892.717	19217
892.839	19312
892.962	19274
893.085	19400
893.207	19251
893.33	19160
893.452	19244
893.575	19324
893.697	19247
893.819	19434
893.941	19441
894.064	19354
894.186	19217
894.308	19187
894.43	19369
894.552	19407
894.674	19400
894.796	19194
894.918	19228
895.04	19232
895.161	19308
895.283	19304
895.405	19141
895.526	19255
895.648	19202
895.769	19244
895.891	19270
896.012	19301
896.134	19411
896.255	19289
896.376	19209
896.498	19346
896.619	19285
896.74	19392
896.861	19426
896.982	19632
897.103	19830
897.224	19578
897.345	19514
897.466	19411
897.587	19586
897.708	19586
897.828	19559
897.949	19480
898.07	19190
898.19	19441
898.311	19670
898.431	19434
898.552	19388
898.672	19533
898.792	19422
898.913	19578
899.033	19339
899.153	19282
899.273	19164
899.393	19232
899.513	19198
899.633	19225
899.753	19194
899.873	19160
899.993	19244
900.113	19038
900.232	19156
900.352	19236
900.472	19110
900.591	18916
900.711	19050
900.83	19019
900.95	19148
901.069	19065
901.189	18935
901.308	18692
901.427	18779
901.546	18620
901.665	18574
901.784	18635
901.904	18365
902.023	18357
902.141	18235
902.26	18190
902.379	18194
902.498	18045
902.617	18072
902.735	18133
902.854	18034
902.973	18022
903.091	17726
903.21	17828
903.328	17840
903.446	17767
903.565	17707
903.683	17684
903.801	17505
903.919	17554
904.038	17478
904.156	17395
904.274	17497
904.392	17349
904.51	17277
904.627	17372
904.745	17307
904.863	17341
904.981	17121
905.098	17029
905.216	17140
905.334	16968
905.451	17102
905.569	17048
905.686	17109
905.803	16930
905.921	16866
906.038	16866
906.155	16862
906.272	16683
906.389	16721
906.506	16538
906.623	16660
906.74	16546
906.857	16451
906.974	16363
907.091	16630
907.208	16713
907.324	16554
907.441	16531
907.557	16348
907.674	16291
907.79	16177
907.907	16177
908.023	16246
908.139	16257
908.256	16249
908.372	16139
908.488	16158
908.604	15983
908.72	15857
908.836	16013
908.952	15869
909.068	16002
909.184	16067
909.3	15987
909.415	15979
909.531	16032
909.647	15743
909.762	15720
909.878	15591
909.993	15675
910.108	15698
910.224	15698
910.339	15595
910.454	15500
910.57	15424
910.685	15458
910.8	15629
910.915	15618
911.03	15534
911.145	15310
911.259	15180
911.374	15268
911.489	15310
911.604	15135
911.718	14986
911.833	15009
911.947	14804
912.062	14861
912.176	14956
912.291	14921
912.405	14979
912.519	15245
912.633	15222
912.748	15001
912.862	14944
912.976	14895
913.09	14838
913.204	14724
913.318	14708
913.431	14819
913.545	14773
913.659	14883
913.772	14746
913.886	14659
914	14507
914.113	14746
914.226	14773
914.34	14769
914.453	14564
914.566	14716
914.68	14495
914.793	14465
914.906	14278
915.019	14298
915.132	14218
915.245	14263
915.358	14275
915.47	14225
915.583	14271
915.696	14313
915.809	14469
915.921	14461
916.034	14172
916.146	14073
916.259	14050
916.371	14202
916.483	14282
916.595	14111
916.708	14145
916.82	14069
916.932	14096
917.044	14069
917.156	14111
917.268	13936
917.38	13982
917.491	13970
917.603	14008
917.715	14031
917.826	14043
917.938	13917
918.049	13830
918.161	13906
918.272	13997
918.384	14005
918.495	13879
918.606	13769
918.717	13685
918.828	13719
918.939	13757
919.05	13696
919.161	13696
919.272	13563
919.383	13616
919.494	13788
919.604	13871
919.715	13731
919.826	13578
919.936	13616
920.047	13731
920.157	13685
920.267	13814
920.378	13757
920.488	13670
920.598	13799
920.708	13940
920.818	13811
920.928	13750
921.038	14005
921.148	13890
921.258	13586
921.368	13518
921.477	13487
921.587	13457
921.697	13327
921.806	13449
921.916	13278
922.025	13103
922.134	13145
922.244	12939
922.353	13050
922.462	13004
922.571	12886
922.68	12738
922.789	12734
922.898	12684
923.007	12684
923.116	12749
923.224	12700
923.333	12677
923.442	12593
923.55	12479
923.659	12532
923.767	12582
923.876	12464
923.984	12509
924.092	12441
924.201	12494
924.309	12483
924.417	12540
924.525	12426
924.633	12384
924.741	13103
924.849	12258
924.956	12281
925.064	12148
925.172	12129
925.279	12308
925.387	12186
925.494	12167
925.602	12273
925.709	12197
925.816	12083
925.924	12125
926.031	12159
926.138	12136
926.245	12243
926.352	12133
926.459	12087
926.566	12194
926.673	11988
926.779	11927
926.886	11942
926.993	11840
927.099	11775
927.206	11668
927.312	11699
927.419	11813
927.525	11729
927.631	11726
927.737	11737
927.843	11623
927.95	11493
928.056	11524
928.162	11661
928.267	11592
928.373	12266
928.479	11649
928.585	11410
928.69	11558
928.796	11585
928.901	11474
929.007	11239
929.112	11539
929.218	11463
929.323	11372
929.428	11349
929.533	11455
929.638	11212
929.743	11235
929.848	11330
929.953	11410
930.058	11185
930.163	10976
930.267	11037
930.372	11124
930.477	10942
930.581	11235
930.685	11037
930.79	10809
930.894	10995
930.998	10972
931.103	10965
931.207	10744
931.311	10679
931.415	10554
931.519	10318
931.623	10242
