Data from test_V78500241_1347.txt Node
Date: Fri Mar 25 15:19:14 CST 2022
User: usil
Spectrometer: V785-0024
Trigger mode: 0
Integration Time (sec): 4.000000E-1
Scans to average: 1
Nonlinearity correction enabled: false
Boxcar width: 0
Storing dark spectrum: false
XAxis mode: Wavelengths
Number of Pixels in Spectrum: 1024
>>>>>Begin Spectral Data<<<<<
801.071	28215
801.214	28284
801.356	27884
801.499	27732
801.641	27751
801.783	27781
801.926	27930
802.068	27759
802.211	27713
802.353	27595
802.496	27530
802.638	27488
802.78	27321
802.923	27260
803.065	27344
803.208	27294
803.35	27378
803.492	27538
803.635	27618
803.777	27443
803.919	27671
804.061	28040
804.204	27713
804.346	27652
804.488	27523
804.63	27572
804.773	27606
804.915	27568
805.057	27808
805.199	27603
805.341	27614
805.483	27728
805.626	27660
805.768	27682
805.91	27717
806.052	27739
806.194	27686
806.336	28002
806.478	27736
806.62	27774
806.762	27781
806.904	28109
807.046	28226
807.188	28196
807.33	28223
807.472	28246
807.614	28230
807.756	28188
807.898	28044
808.04	28044
808.182	28074
808.324	28120
808.465	28154
808.607	28306
808.749	28592
808.891	28523
809.033	28398
809.174	28333
809.316	28253
809.458	28371
809.6	28325
809.741	28523
809.883	28698
810.025	28691
810.166	28607
810.308	28843
810.45	28546
810.591	28630
810.733	28523
810.875	28470
811.016	28371
811.158	28325
811.299	28607
811.441	28557
811.582	28569
811.724	28440
811.865	28489
812.007	28447
812.148	28421
812.29	28493
812.431	28752
812.573	28752
812.714	28938
812.855	29022
812.997	28938
813.138	29189
813.279	29197
813.421	28923
813.562	29060
813.703	28805
813.845	28656
813.986	28314
814.127	28131
814.268	28196
814.41	28147
814.551	28002
814.692	28082
814.833	28025
814.974	28287
815.115	28040
815.256	28051
815.397	28048
815.539	28082
815.68	27937
815.821	27953
815.962	27880
816.103	27998
816.244	27755
816.385	27614
816.526	27793
816.666	27572
816.807	27523
816.948	27534
817.089	27671
817.23	27488
817.371	27397
817.512	27454
817.653	27389
817.793	27359
817.934	27473
818.075	27538
818.216	27488
818.356	27370
818.497	27287
818.638	27245
818.778	27287
818.919	27230
819.06	27241
819.2	27344
819.341	27264
819.481	27378
819.622	27633
819.762	27766
819.903	27713
820.043	27675
820.184	27519
820.324	27454
820.465	27591
820.605	27504
820.746	27553
820.886	27397
821.026	27424
821.167	27408
821.307	27603
821.447	27287
821.588	27351
821.728	27176
821.868	27032
822.008	26937
822.149	26910
822.289	26845
822.429	26473
822.569	26590
822.709	26526
822.849	26450
822.99	26400
823.13	26461
823.27	26328
823.41	26107
823.55	26100
823.69	26138
823.83	26134
823.97	26225
824.11	26005
824.25	26001
824.389	26077
824.529	26081
824.669	26119
824.809	26180
824.949	26092
825.089	26142
825.228	26107
825.368	25921
825.508	25742
825.648	25993
825.787	25879
825.927	25993
826.067	25947
826.206	26005
826.346	25982
826.485	25913
826.625	25883
826.765	26065
826.904	26027
827.044	25685
827.183	25719
827.323	25597
827.462	25715
827.601	25799
827.741	25670
827.88	25712
828.02	25556
828.159	25647
828.298	25597
828.437	25742
828.577	25556
828.716	25731
828.855	25567
828.994	25312
829.134	25369
829.273	25339
829.412	25240
829.551	25373
829.69	25354
829.829	25373
829.968	25221
830.107	25487
830.246	25346
830.385	25278
830.524	25213
830.663	25110
830.802	25046
830.941	25042
831.08	24973
831.219	25061
831.357	25061
831.496	25247
831.635	24909
831.774	24943
831.913	24916
832.051	24795
832.19	24753
832.329	24654
832.467	24722
832.606	24696
832.744	24673
832.883	24616
833.022	24665
833.16	24513
833.299	24623
833.437	24631
833.576	24825
833.714	24631
833.852	24840
833.991	24753
834.129	24856
834.267	24863
834.406	24715
834.544	24757
834.682	24764
834.821	24795
834.959	24989
835.097	24642
835.235	24768
835.373	24814
835.511	24654
835.65	24578
835.788	24452
835.926	24380
836.064	24319
836.202	24464
836.34	24582
836.478	24601
836.615	24376
836.753	24639
836.891	24494
837.029	24673
837.167	24513
837.305	24448
837.443	24380
837.58	24460
837.718	24525
837.856	24395
837.993	24190
838.131	24357
838.269	24327
838.406	24304
838.544	24114
838.681	23992
838.819	24083
838.956	23786
839.094	23836
839.231	23897
839.369	23984
839.506	24201
839.643	24121
839.781	23767
839.918	23691
840.055	23828
840.193	23649
840.33	23695
840.467	23851
840.604	23756
840.742	24026
840.879	23585
841.016	23672
841.153	23642
841.29	23794
841.427	23627
841.564	23695
841.701	23718
841.838	23657
841.975	23604
842.112	23642
842.249	23615
842.385	23520
842.522	23653
842.659	23524
842.796	23417
842.933	23547
843.069	23372
843.206	23493
843.343	23471
843.479	23402
843.616	23368
843.752	23189
843.889	23353
844.025	23315
844.162	23280
844.298	23414
844.435	23280
844.571	23140
844.708	23280
844.844	23349
844.98	23398
845.117	23395
845.253	23162
845.389	23200
845.525	23204
845.661	23166
845.798	23048
845.934	23174
846.07	22873
846.206	22915
846.342	23037
846.478	23003
846.614	22740
846.75	22683
846.886	22683
847.022	22683
847.158	22744
847.294	22706
847.429	22759
847.565	22637
847.701	22850
847.837	22417
847.972	22333
848.108	22500
848.244	22500
848.379	22390
848.515	22322
848.65	22333
848.786	22299
848.921	22310
849.057	22314
849.192	22451
849.328	22390
849.463	22314
849.598	22261
849.734	22162
849.869	22143
850.004	22059
850.14	22124
850.275	22093
850.41	22036
850.545	22002
850.68	22044
850.815	22200
850.95	22139
851.085	22238
851.22	22078
851.355	22112
851.49	22093
851.625	22093
851.76	22135
851.895	21983
852.03	21998
852.165	22036
852.299	22177
852.434	22135
852.569	22067
852.703	22139
852.838	22173
852.973	22128
853.107	22166
853.242	21934
853.376	21911
853.511	21846
853.645	21953
853.78	22105
853.914	21880
854.048	21922
854.183	21823
854.317	21922
854.451	22040
854.585	21892
854.72	21937
854.854	21964
854.988	21865
855.122	21861
855.256	21865
855.39	21964
855.524	21983
855.658	22051
855.792	21918
855.926	22002
856.06	21934
856.194	21956
856.327	21869
856.461	21941
856.595	21895
856.729	21911
856.862	21941
856.996	22017
857.13	21831
857.263	22067
857.397	22051
857.53	21876
857.664	21983
857.797	21983
857.931	22090
858.064	21937
858.197	22055
858.331	21903
858.464	21800
858.597	21800
858.731	21800
858.864	21808
858.997	21873
859.13	21979
859.263	21899
859.396	21934
859.529	21850
859.662	21888
859.795	21876
859.928	21949
860.061	21960
860.194	22131
860.327	21998
860.46	21892
860.592	21972
860.725	21953
860.858	21975
860.99	21884
861.123	21941
861.256	21945
861.388	21941
861.521	22497
861.653	21778
861.786	21717
861.918	21819
862.05	21808
862.183	21812
862.315	21785
862.447	21865
862.58	21823
862.712	21637
862.844	21523
862.976	21713
863.108	21644
863.24	21865
863.372	21576
863.504	21633
863.636	21728
863.768	21663
863.9	21633
864.032	21488
864.164	21485
864.296	21679
864.428	21701
864.559	21564
864.691	21641
864.823	21561
864.954	21660
865.086	21530
865.217	21435
865.349	21477
865.48	21629
865.612	21500
865.743	21610
865.875	21561
866.006	21416
866.137	21439
866.269	21481
866.4	21500
866.531	21473
866.662	21458
866.793	21530
866.924	21496
867.055	21416
867.186	21458
867.317	21469
867.448	21325
867.579	21504
867.71	21348
867.841	21359
867.972	21386
868.103	21351
868.233	21428
868.364	21462
868.495	21405
868.625	21610
868.756	21728
868.886	21553
869.017	21671
869.147	21694
869.278	21778
869.408	21622
869.539	21671
869.669	21732
869.799	21816
869.929	21747
870.06	21838
870.19	21876
870.32	21892
870.45	21899
870.58	22002
870.71	22097
870.84	22090
870.97	22048
871.1	22067
871.23	22299
871.36	22261
871.489	22211
871.619	22249
871.749	22131
871.879	22268
872.008	22527
872.138	22329
872.267	22276
872.397	22246
872.526	22177
872.656	22013
872.785	22128
872.915	22329
873.044	22284
873.173	22249
873.303	22291
873.432	22246
873.561	22390
873.69	22276
873.819	22272
873.948	22287
874.077	22223
874.206	22272
874.335	22177
874.464	22497
874.593	22341
874.722	22455
874.851	22550
874.979	22360
875.108	22497
875.237	22481
875.365	22417
875.494	22405
875.623	22561
875.751	22489
875.88	22519
876.008	22641
876.136	22641
876.265	22934
876.393	23003
876.521	22824
876.65	22923
876.778	22904
876.906	22847
877.034	22968
877.162	22721
877.29	22771
877.418	22938
877.546	22862
877.674	22793
877.802	22683
877.93	22858
878.058	22786
878.185	22580
878.313	22721
878.441	22771
878.568	22630
878.696	22672
878.824	22767
878.951	22866
879.079	22896
879.206	23052
879.333	22946
879.461	22755
879.588	22919
879.715	22889
879.842	23094
879.97	22911
880.097	22634
880.224	22626
880.351	22687
880.478	22497
880.605	22645
880.732	22626
880.859	22885
880.986	22577
881.112	22809
881.239	22421
881.366	22390
881.493	22238
881.619	22185
881.746	22147
881.872	22185
881.999	22249
882.125	22150
882.252	22246
882.378	22139
882.505	22238
882.631	22078
882.757	21937
882.883	22074
883.01	21880
883.136	21823
883.262	21804
883.388	21656
883.514	21869
883.64	21838
883.766	21800
883.892	21774
884.018	21701
884.143	21755
884.269	21835
884.395	21523
884.52	21515
884.646	21603
884.772	21420
884.897	21507
885.023	21583
885.148	21686
885.274	21587
885.399	21698
885.524	21663
885.65	21538
885.775	21530
885.9	21473
886.025	21504
886.15	21553
886.275	21435
886.4	21382
886.525	21595
886.65	21492
886.775	21431
886.9	21838
887.025	21660
887.149	21370
887.274	21260
887.399	21367
887.523	21287
887.648	21287
887.773	21283
887.897	21310
888.021	21287
888.146	21203
888.27	21412
888.395	21374
888.519	21405
888.643	21233
888.767	21370
888.891	21268
889.015	21138
889.139	21192
889.263	21108
889.387	21180
889.511	21245
889.635	21252
889.759	21062
889.883	21093
890.006	21119
890.13	21237
890.254	21032
890.377	21089
890.501	20883
890.624	20876
890.748	20910
890.871	20705
890.995	20518
891.118	20655
891.241	20625
891.364	20571
891.488	20773
891.611	20788
891.734	20587
891.857	20602
891.98	20621
892.103	20746
892.226	20705
892.349	20560
892.471	20396
892.594	20469
892.717	20644
892.839	20568
892.962	20518
893.085	20552
893.207	20568
893.33	20431
893.452	20507
893.575	20560
893.697	20526
893.819	20708
893.941	20773
894.064	20636
894.186	20393
894.308	20457
894.43	20667
894.552	20651
894.674	20587
894.796	20442
894.918	20541
895.04	20556
895.161	20625
895.283	20499
895.405	20560
895.526	20575
895.648	20522
895.769	20564
895.891	20552
896.012	20575
896.134	20587
896.255	20526
896.376	20499
896.498	20461
896.619	20488
896.74	20522
896.861	20514
896.982	20777
897.103	20986
897.224	20773
897.345	20762
897.466	20655
897.587	20750
897.708	20773
897.828	20727
897.949	20845
898.07	20560
898.19	20678
898.311	20811
898.431	20739
898.552	20754
898.672	20792
898.792	20788
898.913	20644
899.033	20659
899.153	20480
899.273	20438
899.393	20556
899.513	20632
899.633	20427
899.753	20503
899.873	20427
899.993	20484
900.113	20438
900.232	20454
900.352	20412
900.472	20275
900.591	20210
900.711	20240
900.83	20161
900.95	20218
901.069	20393
901.189	20084
901.308	19959
901.427	19830
901.546	19868
901.665	19849
901.784	19761
901.904	19677
902.023	19525
902.141	19419
902.26	19400
902.379	19472
902.498	19445
902.617	19297
902.735	19350
902.854	19289
902.973	19251
903.091	18970
903.21	19076
903.328	19091
903.446	18939
903.565	18741
903.683	18817
903.801	18631
903.919	18783
904.038	18616
904.156	18597
904.274	18673
904.392	18544
904.51	18601
904.627	18532
904.745	18620
904.863	18661
904.981	18384
905.098	18357
905.216	18163
905.334	18304
905.451	18273
905.569	18182
905.686	18125
905.803	18277
905.921	18076
906.038	18174
906.155	18057
906.272	17999
906.389	18053
906.506	17817
906.623	17748
906.74	17775
906.857	17691
906.974	17710
907.091	17843
907.208	17889
907.324	17752
907.441	17703
907.557	17551
907.674	17490
907.79	17501
907.907	17490
908.023	17520
908.139	17490
908.256	17421
908.372	17376
908.488	17280
908.604	17318
908.72	17235
908.836	17170
908.952	17090
909.068	17235
909.184	17387
909.3	17147
909.415	17216
909.531	17143
909.647	16961
909.762	16828
909.878	16911
909.993	16980
910.108	16873
910.224	16839
910.339	16869
910.454	16755
910.57	16672
910.685	16618
910.8	16946
910.915	16850
911.03	16653
911.145	16535
911.259	16542
911.374	16516
911.489	16329
911.604	16257
911.718	16207
911.833	16299
911.947	16200
912.062	16029
912.176	16158
912.291	16234
912.405	16207
912.519	16310
912.633	16455
912.748	16314
912.862	16253
912.976	16166
913.09	15945
913.204	16086
913.318	16040
913.431	16147
913.545	16040
913.659	16067
913.772	15884
913.886	15960
914	15918
914.113	15960
914.226	15903
914.34	15964
914.453	15644
914.566	15934
914.68	15755
914.793	15622
914.906	15519
915.019	15542
915.132	15454
915.245	15523
915.358	15473
915.47	15507
915.583	15530
915.696	15443
915.809	15545
915.921	15557
916.034	15420
916.146	15260
916.259	15291
916.371	15393
916.483	15466
916.595	15332
916.708	15291
916.82	15283
916.932	15146
917.044	15184
917.156	15108
917.268	15089
917.38	15089
917.491	15085
917.603	15089
917.715	15268
917.826	15074
917.938	14929
918.049	14921
918.161	14925
918.272	15085
918.384	15028
918.495	15013
918.606	14891
918.717	14815
918.828	14971
918.939	14845
919.05	14750
919.161	14762
919.272	14617
919.383	14746
919.494	14906
919.604	15024
919.715	14842
919.826	14670
919.936	14769
920.047	14845
920.157	14708
920.267	14956
920.378	14819
920.488	14769
920.598	14906
920.708	15017
920.818	14929
920.928	14842
921.038	15028
921.148	15043
921.258	14773
921.368	14670
921.477	14488
921.587	14556
921.697	14347
921.806	14511
921.916	14351
922.025	14138
922.134	14214
922.244	14142
922.353	14237
922.462	14054
922.571	13944
922.68	13860
922.789	13860
922.898	13879
923.007	13750
923.116	13799
923.224	13784
923.333	13780
923.442	13613
923.55	13518
923.659	13708
923.767	13677
923.876	13510
923.984	13616
924.092	13491
924.201	13628
924.309	13613
924.417	13529
924.525	13521
924.633	13468
924.741	14214
924.849	13327
924.956	13293
925.064	13217
925.172	13126
925.279	13095
925.387	13171
925.494	13137
925.602	13320
925.709	13187
925.816	13027
925.924	13091
926.031	13244
926.138	13103
926.245	13118
926.352	13000
926.459	13194
926.566	13156
926.673	13019
926.779	12909
926.886	12935
926.993	12806
927.099	12722
927.206	12654
927.312	12692
927.419	12806
927.525	12741
927.631	12817
927.737	12578
927.843	12532
927.95	12441
928.056	12551
928.162	12540
928.267	12711
928.373	13255
928.479	12665
928.585	12327
928.69	12471
928.796	12623
928.901	12361
929.007	12315
929.112	12399
929.218	12407
929.323	12323
929.428	12239
929.533	12410
929.638	12171
929.743	12281
929.848	12304
929.953	12190
930.058	12129
930.163	11961
930.267	11965
930.372	12148
930.477	11996
930.581	12186
930.685	12045
930.79	11824
930.894	11851
930.998	11783
931.103	12003
931.207	11581
931.311	11592
931.415	11372
931.519	11178
931.623	11178
