Data from test_V78500241_783.txt Node
Date: Fri Mar 25 15:15:18 CST 2022
User: usil
Spectrometer: V785-0024
Trigger mode: 0
Integration Time (sec): 4.000000E-1
Scans to average: 1
Nonlinearity correction enabled: false
Boxcar width: 0
Storing dark spectrum: false
XAxis mode: Wavelengths
Number of Pixels in Spectrum: 1024
>>>>>Begin Spectral Data<<<<<
801.071	28371
801.214	28154
801.356	27918
801.499	27991
801.641	27979
801.783	27739
801.926	27953
802.068	27793
802.211	27827
802.353	27709
802.496	27682
802.638	27523
802.78	27443
802.923	27447
803.065	27439
803.208	27526
803.35	27496
803.492	27762
803.635	27823
803.777	27603
803.919	27793
804.061	27960
804.204	27793
804.346	27622
804.488	27800
804.63	27751
804.773	27629
804.915	27759
805.057	27979
805.199	27797
805.341	27876
805.483	27808
805.626	27880
805.768	27827
805.91	27800
806.052	27899
806.194	27743
806.336	27945
806.478	28051
806.62	27873
806.762	27922
806.904	28192
807.046	28508
807.188	28299
807.33	28261
807.472	28382
807.614	28295
807.756	28204
807.898	28029
808.04	28093
808.182	28105
808.324	28150
808.465	28238
808.607	28333
808.749	28504
808.891	28565
809.033	28687
809.174	28733
809.316	28637
809.458	28706
809.6	28561
809.741	28748
809.883	28622
810.025	28934
810.166	28915
810.308	28927
810.45	28850
810.591	28858
810.733	28542
810.875	28622
811.016	28565
811.158	28504
811.299	28622
811.441	28710
811.582	28611
811.724	28691
811.865	28436
812.007	28611
812.148	28675
812.29	28542
812.431	28679
812.573	28965
812.714	28961
812.855	29079
812.997	29193
813.138	29318
813.279	29303
813.421	29345
813.562	29193
813.703	28972
813.845	28797
813.986	28527
814.127	28413
814.268	28333
814.41	28360
814.551	28280
814.692	28337
814.833	28401
814.974	28219
815.115	28280
815.256	28093
815.397	28284
815.539	28188
815.68	28246
815.821	28173
815.962	28154
816.103	28128
816.244	27937
816.385	27960
816.526	27975
816.666	27599
816.807	27595
816.948	27564
817.089	27667
817.23	27667
817.371	27656
817.512	27682
817.653	27625
817.793	27568
817.934	27591
818.075	27694
818.216	27652
818.356	27698
818.497	27622
818.638	27317
818.778	27237
818.919	27325
819.06	27454
819.2	27431
819.341	27603
819.481	27424
819.622	27743
819.762	28002
819.903	27770
820.043	27778
820.184	27713
820.324	27648
820.465	27762
820.605	27766
820.746	27766
820.886	27591
821.026	27641
821.167	27789
821.307	27705
821.447	27549
821.588	27599
821.728	27469
821.868	27252
822.008	27024
822.149	27005
822.289	26990
822.429	26705
822.569	26781
822.709	26792
822.849	26579
822.99	26556
823.13	26606
823.27	26492
823.41	26488
823.55	26278
823.69	26408
823.83	26400
823.97	26301
824.11	26313
824.25	26206
824.389	26267
824.529	26278
824.669	26229
824.809	26362
824.949	26317
825.089	26320
825.228	26214
825.368	26134
825.508	26161
825.648	26176
825.787	26100
825.927	26119
826.067	26107
826.206	25902
826.346	26084
826.485	26035
826.625	26100
826.765	26199
826.904	26199
827.044	25795
827.183	25788
827.323	25746
827.462	25864
827.601	25879
827.741	25822
827.88	25925
828.02	25457
828.159	25818
828.298	25727
828.437	25681
828.577	25803
828.716	25917
828.855	25738
828.994	25620
829.134	25487
829.273	25518
829.412	25445
829.551	25422
829.69	25476
829.829	25552
829.968	25544
830.107	25590
830.246	25521
830.385	25354
830.524	25259
830.663	25384
830.802	25282
830.941	25198
831.08	25171
831.219	25118
831.357	25206
831.496	25491
831.635	25160
831.774	25072
831.913	25031
832.051	24821
832.19	24810
832.329	24867
832.467	24783
832.606	24646
832.744	24776
832.883	24772
833.022	24749
833.16	24810
833.299	24749
833.437	24882
833.576	24989
833.714	24973
833.852	24966
833.991	24829
834.129	25023
834.267	24939
834.406	24738
834.544	24962
834.682	24856
834.821	24837
834.959	25076
835.097	24787
835.235	24954
835.373	24848
835.511	24924
835.65	24700
835.788	24764
835.926	24563
836.064	24452
836.202	24448
836.34	24825
836.478	24700
836.615	24711
836.753	24688
836.891	24711
837.029	24578
837.167	24525
837.305	24597
837.443	24559
837.58	24410
837.718	24521
837.856	24464
837.993	24403
838.131	24498
838.269	24308
838.406	24475
838.544	24388
838.681	24194
838.819	24174
838.956	24034
839.094	23973
839.231	23996
839.369	24159
839.506	24353
839.643	24300
839.781	23996
839.918	23790
840.055	24003
840.193	23984
840.33	23897
840.467	23939
840.604	23935
840.742	24228
840.879	23821
841.016	23767
841.153	23817
841.29	23946
841.427	23752
841.564	23767
841.701	23783
841.838	23828
841.975	23691
842.112	23824
842.249	23680
842.385	23608
842.522	23847
842.659	23676
842.796	23558
842.933	23619
843.069	23573
843.206	23642
843.343	23604
843.479	23729
843.616	23737
843.752	23341
843.889	23528
844.025	23490
844.162	23200
844.298	23528
844.435	23337
844.571	23383
844.708	23433
844.844	23516
844.98	23501
845.117	23512
845.253	23311
845.389	23303
845.525	23292
845.661	23185
845.798	23159
845.934	23143
846.07	23117
846.206	23102
846.342	23208
846.478	23044
846.614	22873
846.75	22793
846.886	22801
847.022	22816
847.158	22885
847.294	22862
847.429	22877
847.565	22782
847.701	22999
847.837	22577
847.972	22554
848.108	22713
848.244	22713
848.379	22462
848.515	22519
848.65	22424
848.786	22421
848.921	22504
849.057	22565
849.192	22474
849.328	22550
849.463	22493
849.598	22436
849.734	22436
849.869	22246
850.004	22310
850.14	22242
850.275	22272
850.41	22116
850.545	22112
850.68	22173
850.815	22246
850.95	22215
851.085	22409
851.22	22303
851.355	22246
851.49	22238
851.625	22234
851.76	22261
851.895	22112
852.03	22154
852.165	22169
852.299	22246
852.434	22169
852.569	22219
852.703	22238
852.838	22344
852.973	22436
853.107	22352
853.242	22055
853.376	22040
853.511	21846
853.645	22013
853.78	22192
853.914	22032
854.048	22139
854.183	22017
854.317	22067
854.451	22192
854.585	22051
854.72	21960
854.854	22169
854.988	21865
855.122	21975
855.256	21880
855.39	22070
855.524	22055
855.658	22116
855.792	21926
855.926	22013
856.06	22029
856.194	22147
856.327	21945
856.461	21888
856.595	21899
856.729	21934
856.862	22173
856.996	21991
857.13	21964
857.263	22207
857.397	22177
857.53	22112
857.664	22143
857.797	22006
857.931	22158
858.064	22109
858.197	22181
858.331	22002
858.464	22055
858.597	21949
858.731	22131
858.864	21972
858.997	22120
859.13	22040
859.263	21945
859.396	22097
859.529	21975
859.662	22021
859.795	22051
859.928	22120
860.061	22169
860.194	22131
860.327	22025
860.46	21994
860.592	22044
860.725	22124
860.858	22078
860.99	22082
861.123	21972
861.256	21953
861.388	22059
861.521	22717
861.653	21861
861.786	21774
861.918	21972
862.05	21911
862.183	22010
862.315	22051
862.447	22063
862.58	21926
862.712	21713
862.844	21785
862.976	21835
863.108	21774
863.24	22185
863.372	21747
863.504	21660
863.636	21743
863.768	21827
863.9	21759
864.032	21656
864.164	21622
864.296	21789
864.428	21808
864.559	21766
864.691	21918
864.823	21720
864.954	21591
865.086	21671
865.217	21736
865.349	21530
865.48	21564
865.612	21549
865.743	21804
865.875	21610
866.006	21568
866.137	21603
866.269	21557
866.4	21660
866.531	21450
866.662	21511
866.793	21496
866.924	21477
867.055	21629
867.186	21492
867.317	21454
867.448	21481
867.579	21622
867.71	21443
867.841	21488
867.972	21469
868.103	21534
868.233	21572
868.364	21576
868.495	21644
868.625	21808
868.756	21838
868.886	21823
869.017	21850
869.147	21911
869.278	21850
869.408	21766
869.539	21667
869.669	21823
869.799	21797
869.929	21964
870.06	21922
870.19	22086
870.32	22021
870.45	22253
870.58	22048
870.71	22242
870.84	22215
870.97	22181
871.1	22177
871.23	22356
871.36	22352
871.489	22219
871.619	22356
871.749	22402
871.879	22375
872.008	22432
872.138	22402
872.267	22371
872.397	22135
872.526	22147
872.656	22211
872.785	22207
872.915	22417
873.044	22588
873.173	22436
873.303	22402
873.432	22405
873.561	22455
873.69	22459
873.819	22341
873.948	22440
874.077	22398
874.206	22344
874.335	22352
874.464	22527
874.593	22565
874.722	22721
874.851	22626
874.979	22637
875.108	22645
875.237	22512
875.365	22344
875.494	22618
875.623	22637
875.751	22577
875.88	22615
876.008	22725
876.136	22763
876.265	23052
876.393	23147
876.521	23067
876.65	22923
876.778	22957
876.906	22889
877.034	22869
877.162	23094
877.29	22828
877.418	23079
877.546	23006
877.674	22999
877.802	22942
877.93	22946
878.058	22858
878.185	22744
878.313	22999
878.441	22930
878.568	22748
878.696	22774
878.824	23014
878.951	22869
879.079	23140
879.206	23280
879.333	23121
879.461	22946
879.588	23060
879.715	23113
879.842	23166
879.97	22976
880.097	22660
880.224	22801
880.351	22866
880.478	22892
880.605	22664
880.732	22683
880.859	22991
880.986	22721
881.112	22881
881.239	22611
881.366	22550
881.493	22436
881.619	22459
881.746	22325
881.872	22352
881.999	22314
882.125	22299
882.252	22432
882.378	22455
882.505	22466
882.631	22105
882.757	22200
882.883	22173
883.01	22051
883.136	21915
883.262	21934
883.388	21778
883.514	21937
883.64	22154
883.766	21975
883.892	21850
884.018	21888
884.143	21979
884.269	22109
884.395	21778
884.52	21644
884.646	21705
884.772	21580
884.897	21576
885.023	21599
885.148	21755
885.274	21892
885.399	21770
885.524	21576
885.65	21705
885.775	21690
885.9	21553
886.025	21720
886.15	21755
886.275	21679
886.4	21538
886.525	21641
886.65	21671
886.775	21469
886.9	21728
887.025	21846
887.149	21599
887.274	21469
887.399	21462
887.523	21431
887.648	21454
887.773	21317
887.897	21523
888.021	21488
888.146	21405
888.27	21530
888.395	21587
888.519	21469
888.643	21447
888.767	21447
888.891	21374
889.015	21241
889.139	21317
889.263	21146
889.387	21340
889.511	21367
889.635	21359
889.759	21310
889.883	21169
890.006	21203
890.13	21252
890.254	21074
890.377	21093
890.501	20925
890.624	20982
890.748	21043
890.871	20906
890.995	20769
891.118	20682
891.241	20746
891.364	20842
891.488	20826
891.611	20857
891.734	20762
891.857	20796
891.98	20765
892.103	20902
892.226	20845
892.349	20769
892.471	20583
892.594	20606
892.717	20625
892.839	20670
892.962	20777
893.085	20746
893.207	20659
893.33	20575
893.452	20621
893.575	20731
893.697	20606
893.819	20800
893.941	20788
894.064	20777
894.186	20621
894.308	20533
894.43	20651
894.552	20754
894.674	20762
894.796	20564
894.918	20583
895.04	20514
895.161	20739
895.283	20697
895.405	20560
895.526	20583
895.648	20655
895.769	20568
895.891	20583
896.012	20655
896.134	20743
896.255	20617
896.376	20613
896.498	20552
896.619	20705
896.74	20602
896.861	20727
896.982	20933
897.103	21154
897.224	20998
897.345	20826
897.466	20781
897.587	20853
897.708	20937
897.828	20857
897.949	20697
898.07	20640
898.19	20819
898.311	20941
898.431	20804
898.552	20891
898.672	20910
898.792	20918
898.913	20914
899.033	20716
899.153	20648
899.273	20473
899.393	20640
899.513	20674
899.633	20552
899.753	20667
899.873	20469
899.993	20701
900.113	20522
900.232	20609
900.352	20503
900.472	20423
900.591	20404
900.711	20423
900.83	20370
900.95	20404
901.069	20396
901.189	20313
901.308	20031
901.427	20005
901.546	20016
901.665	20024
901.784	19902
901.904	19849
902.023	19715
902.141	19506
902.26	19453
902.379	19582
902.498	19491
902.617	19388
902.735	19480
902.854	19388
902.973	19476
903.091	19168
903.21	19171
903.328	19072
903.446	19088
903.565	18966
903.683	18882
903.801	18867
903.919	18852
904.038	18852
904.156	18715
904.274	18829
904.392	18604
904.51	18677
904.627	18631
904.745	18833
904.863	18684
904.981	18521
905.098	18372
905.216	18426
905.334	18270
905.451	18418
905.569	18353
905.686	18334
905.803	18251
905.921	18186
906.038	18292
906.155	18121
906.272	18079
906.389	18083
906.506	17809
906.623	17904
906.74	17832
906.857	17840
906.974	17668
907.091	17950
907.208	17988
907.324	17847
907.441	17699
907.557	17539
907.674	17703
907.79	17455
907.907	17512
908.023	17684
908.139	17528
908.256	17535
908.372	17459
908.488	17520
908.604	17425
908.72	17200
908.836	17299
908.952	17277
909.068	17337
909.184	17360
909.3	17345
909.415	17391
909.531	17280
909.647	17052
909.762	16965
909.878	17071
909.993	16938
910.108	16976
910.224	17037
910.339	16930
910.454	16767
910.57	16831
910.685	16755
910.8	16930
910.915	16991
911.03	16816
911.145	16687
911.259	16645
911.374	16641
911.489	16618
911.604	16390
911.718	16322
911.833	16337
911.947	16207
912.062	16185
912.176	16276
912.291	16337
912.405	16207
912.519	16538
912.633	16386
912.748	16405
912.862	16295
912.976	16185
913.09	16074
913.204	16051
913.318	16124
913.431	16192
913.545	16128
913.659	16196
913.772	16010
913.886	15903
914	15838
914.113	16097
914.226	16090
914.34	15972
914.453	15808
914.566	16006
914.68	15835
914.793	15808
914.906	15584
915.019	15637
915.132	15462
915.245	15462
915.358	15523
915.47	15431
915.583	15519
915.696	15526
915.809	15629
915.921	15652
916.034	15511
916.146	15389
916.259	15317
916.371	15496
916.483	15420
916.595	15408
916.708	15466
916.82	15291
916.932	15435
917.044	15302
917.156	15142
917.268	15207
917.38	15249
917.491	15100
917.603	15157
917.715	15245
917.826	15260
917.938	15142
918.049	14998
918.161	15142
918.272	15142
918.384	15279
918.495	15173
918.606	14979
918.717	14823
918.828	14899
918.939	14830
919.05	14800
919.161	14891
919.272	14727
919.383	14743
919.494	14948
919.604	15104
919.715	14823
919.826	14773
919.936	14807
920.047	14910
920.157	14876
920.267	15032
920.378	14883
920.488	14792
920.598	15100
920.708	15203
920.818	14960
920.928	14998
921.038	15157
921.148	15062
921.258	14765
921.368	14762
921.477	14651
921.587	14636
921.697	14537
921.806	14533
921.916	14423
922.025	14229
922.134	14320
922.244	14157
922.353	14256
922.462	14221
922.571	14035
922.68	13932
922.789	13875
922.898	13879
923.007	13883
923.116	13951
923.224	13978
923.333	13852
923.442	13746
923.55	13750
923.659	13723
923.767	13780
923.876	13681
923.984	13708
924.092	13613
924.201	13548
924.309	13696
924.417	13563
924.525	13537
924.633	13544
924.741	14286
924.849	13369
924.956	13445
925.064	13289
925.172	13171
925.279	13293
925.387	13266
925.494	13247
925.602	13430
925.709	13285
925.816	13244
925.924	13221
926.031	13316
926.138	13217
926.245	13179
926.352	13091
926.459	13255
926.566	13316
926.673	13095
926.779	12913
926.886	13061
926.993	12882
927.099	12806
927.206	12817
927.312	12802
927.419	12840
927.525	12909
927.631	12825
927.737	12688
927.843	12669
927.95	12608
928.056	12578
928.162	12684
928.267	12677
928.373	13240
928.479	12673
928.585	12460
928.69	12620
928.796	12566
928.901	12528
929.007	12304
929.112	12441
929.218	12437
929.323	12452
929.428	12350
929.533	12521
929.638	12247
929.743	12235
929.848	12315
929.953	12251
930.058	12155
930.163	12079
930.267	12038
930.372	12167
930.477	11969
930.581	12144
930.685	12057
930.79	11847
930.894	11950
930.998	11878
931.103	12057
931.207	11608
931.311	11570
931.415	11493
931.519	11330
931.623	11307
