Data from test_V78500241_2377.txt Node
Date: Fri Mar 25 15:26:24 CST 2022
User: usil
Spectrometer: V785-0024
Trigger mode: 0
Integration Time (sec): 4.000000E-1
Scans to average: 1
Nonlinearity correction enabled: false
Boxcar width: 0
Storing dark spectrum: false
XAxis mode: Wavelengths
Number of Pixels in Spectrum: 1024
>>>>>Begin Spectral Data<<<<<
801.071	27545
801.214	27401
801.356	27287
801.499	26979
801.641	26933
801.783	27180
801.926	27043
802.068	26963
802.211	26944
802.353	26826
802.496	26735
802.638	26781
802.78	26492
802.923	26746
803.065	26522
803.208	26511
803.35	26792
803.492	26792
803.635	26762
803.777	26655
803.919	26994
804.061	27192
804.204	26781
804.346	26724
804.488	26815
804.63	26682
804.773	26659
804.915	26887
805.057	26887
805.199	26826
805.341	26807
805.483	26842
805.626	26868
805.768	26914
805.91	27005
806.052	26982
806.194	26891
806.336	26948
806.478	26910
806.62	26929
806.762	27024
806.904	27180
807.046	27462
807.188	27329
807.33	27344
807.472	27481
807.614	27283
807.756	27279
807.898	27268
808.04	27165
808.182	27169
808.324	27211
808.465	27173
808.607	27378
808.749	27526
808.891	27637
809.033	27762
809.174	27542
809.316	27557
809.458	27393
809.6	27507
809.741	27591
809.883	27644
810.025	27724
810.166	27774
810.308	27793
810.45	27663
810.591	27595
810.733	27625
810.875	27481
811.016	27405
811.158	27317
811.299	27595
811.441	27694
811.582	27587
811.724	27481
811.865	27519
812.007	27507
812.148	27431
812.29	27477
812.431	27690
812.573	27774
812.714	28040
812.855	27972
812.997	28124
813.138	28253
813.279	28116
813.421	28017
813.562	27994
813.703	27854
813.845	27663
813.986	27523
814.127	27161
814.268	27233
814.41	27180
814.551	27108
814.692	27256
814.833	27085
814.974	27093
815.115	27252
815.256	27017
815.397	27070
815.539	27165
815.68	26967
815.821	26929
815.962	26883
816.103	26899
816.244	26861
816.385	26689
816.526	26636
816.666	26518
816.807	26408
816.948	26469
817.089	26549
817.23	26625
817.371	26446
817.512	26488
817.653	26480
817.793	26347
817.934	26484
818.075	26556
818.216	26408
818.356	26339
818.497	26396
818.638	26111
818.778	26157
818.919	26275
819.06	26176
819.2	26347
819.341	26484
819.481	26511
819.622	26587
819.762	26788
819.903	26701
820.043	26568
820.184	26636
820.324	26625
820.465	26663
820.605	26587
820.746	26446
820.886	26434
821.026	26526
821.167	26476
821.307	26598
821.447	26533
821.588	26408
821.728	26206
821.868	26100
822.008	25966
822.149	25966
822.289	26012
822.429	25689
822.569	25582
822.709	25647
822.849	25521
822.99	25449
823.13	25304
823.27	25400
823.41	25183
823.55	25076
823.69	25331
823.83	25107
823.97	25213
824.11	25053
824.25	24859
824.389	25133
824.529	25164
824.669	25008
824.809	25225
824.949	25084
825.089	25122
825.228	25270
825.368	24989
825.508	24939
825.648	24909
825.787	24992
825.927	24935
826.067	24806
826.206	24757
826.346	24958
826.485	24935
826.625	24810
826.765	25042
826.904	25000
827.044	24776
827.183	24779
827.323	24677
827.462	24779
827.601	24779
827.741	24616
827.88	24646
828.02	24505
828.159	24517
828.298	24741
828.437	24642
828.577	24479
828.716	24711
828.855	24471
828.994	24410
829.134	24311
829.273	24460
829.412	24357
829.551	24311
829.69	24311
829.829	24315
829.968	24403
830.107	24330
830.246	24380
830.385	24308
830.524	24102
830.663	24243
830.802	24144
830.941	24015
831.08	23771
831.219	24095
831.357	24022
831.496	24178
831.635	23824
831.774	23939
831.913	23790
832.051	23779
832.19	23764
832.329	23779
832.467	23771
832.606	23421
832.744	23573
832.883	23653
833.022	23547
833.16	23638
833.299	23611
833.437	23634
833.576	23630
833.714	23630
833.852	23695
833.991	23771
834.129	23676
834.267	23718
834.406	23615
834.544	23737
834.682	23649
834.821	23596
834.959	23843
835.097	23528
835.235	23733
835.373	23653
835.511	23611
835.65	23539
835.788	23535
835.926	23379
836.064	23273
836.202	23421
836.34	23543
836.478	23649
836.615	23478
836.753	23436
836.891	23505
837.029	23493
837.167	23452
837.305	23528
837.443	23452
837.58	23360
837.718	23421
837.856	23326
837.993	23322
838.131	23288
838.269	23376
838.406	23353
838.544	23174
838.681	23010
838.819	23037
838.956	22892
839.094	22831
839.231	22896
839.369	23083
839.506	23216
839.643	23239
839.781	22953
839.918	22843
840.055	22771
840.193	22778
840.33	22801
840.467	22877
840.604	22694
840.742	22915
840.879	22653
841.016	22668
841.153	22683
841.29	22923
841.427	22664
841.564	22801
841.701	22797
841.838	22763
841.975	22637
842.112	22698
842.249	22565
842.385	22443
842.522	22736
842.659	22565
842.796	22527
842.933	22512
843.069	22382
843.206	22561
843.343	22550
843.479	22535
843.616	22542
843.752	22341
843.889	22363
844.025	22500
844.162	22177
844.298	22447
844.435	22424
844.571	22162
844.708	22333
844.844	22455
844.98	22421
845.117	22303
845.253	22242
845.389	22109
845.525	22265
845.661	22253
845.798	22044
845.934	22055
846.07	21964
846.206	22086
846.342	22150
846.478	22044
846.614	21903
846.75	21797
846.886	21648
847.022	21854
847.158	21751
847.294	21865
847.429	21739
847.565	21713
847.701	21915
847.837	21648
847.972	21454
848.108	21572
848.244	21583
848.379	21363
848.515	21439
848.65	21370
848.786	21310
848.921	21351
849.057	21469
849.192	21431
849.328	21443
849.463	21321
849.598	21310
849.734	21321
849.869	21283
850.004	21116
850.14	21237
850.275	21154
850.41	21013
850.545	21032
850.68	21169
850.815	21142
850.95	21173
851.085	21416
851.22	21275
851.355	21138
851.49	21116
851.625	21138
851.76	21055
851.895	21005
852.03	21005
852.165	20994
852.299	21237
852.434	21146
852.569	21142
852.703	21142
852.838	21150
852.973	21180
853.107	21272
853.242	20891
853.376	20986
853.511	20857
853.645	20918
853.78	21001
853.914	21020
854.048	20868
854.183	20925
854.317	21051
854.451	21241
854.585	21051
854.72	21028
854.854	21032
854.988	20948
855.122	20948
855.256	20762
855.39	20899
855.524	20952
855.658	21039
855.792	20925
855.926	21005
856.06	21058
856.194	21135
856.327	20925
856.461	20899
856.595	20853
856.729	20971
856.862	21131
856.996	21005
857.13	20914
857.263	21150
857.397	21028
857.53	20937
857.664	20902
857.797	21036
857.931	20963
858.064	21032
858.197	21001
858.331	20880
858.464	20857
858.597	20921
858.731	20762
858.864	21005
858.997	20948
859.13	21081
859.263	20929
859.396	21013
859.529	20872
859.662	20967
859.795	20986
859.928	21039
860.061	21077
860.194	21131
860.327	21017
860.46	20906
860.592	21089
860.725	21047
860.858	21154
860.99	20982
861.123	20925
861.256	20853
861.388	20902
861.521	21492
861.653	20773
861.786	20689
861.918	20746
862.05	20765
862.183	20857
862.315	20864
862.447	20941
862.58	20910
862.712	20636
862.844	20693
862.976	20804
863.108	20727
863.24	21233
863.372	20568
863.504	20697
863.636	20739
863.768	20651
863.9	20697
864.032	20606
864.164	20609
864.296	20724
864.428	20796
864.559	20868
864.691	20689
864.823	20815
864.954	20640
865.086	20674
865.217	20705
865.349	20393
865.48	20629
865.612	20579
865.743	20587
865.875	20594
866.006	20556
866.137	20587
866.269	20602
866.4	20556
866.531	20537
866.662	20347
866.793	20575
866.924	20446
867.055	20480
867.186	20511
867.317	20537
867.448	20457
867.579	20541
867.71	20484
867.841	20385
867.972	20552
868.103	20507
868.233	20541
868.364	20488
868.495	20469
868.625	20575
868.756	20750
868.886	20678
869.017	20693
869.147	20864
869.278	20796
869.408	20804
869.539	20845
869.669	20857
869.799	20838
869.929	20842
870.06	20788
870.19	21043
870.32	21001
870.45	21176
870.58	21123
870.71	21370
870.84	21275
870.97	21135
871.1	21237
871.23	21389
871.36	21294
871.489	21275
871.619	21306
871.749	21268
871.879	21469
872.008	21329
872.138	21363
872.267	21359
872.397	21260
872.526	21226
872.656	21173
872.785	21108
872.915	21481
873.044	21416
873.173	21363
873.303	21542
873.432	21389
873.561	21515
873.69	21466
873.819	21389
873.948	21412
874.077	21287
874.206	21313
874.335	21378
874.464	21481
874.593	21652
874.722	21690
874.851	21618
874.979	21618
875.108	21717
875.237	21557
875.365	21450
875.494	21595
875.623	21736
875.751	21633
875.88	21648
876.008	21739
876.136	21899
876.265	22067
876.393	22101
876.521	22021
876.65	22166
876.778	21903
876.906	21926
877.034	21934
877.162	22082
877.29	21884
877.418	22101
877.546	22040
877.674	21968
877.802	22048
877.93	21937
878.058	22025
878.185	21770
878.313	22013
878.441	21960
878.568	21652
878.696	21911
878.824	21873
878.951	21907
879.079	22086
879.206	22135
879.333	22055
879.461	22021
879.588	22051
879.715	22257
879.842	22219
879.97	21934
880.097	21785
880.224	21857
880.351	21770
880.478	21785
880.605	21713
880.732	21835
880.859	22112
880.986	21850
881.112	21797
881.239	21751
881.366	21614
881.493	21488
881.619	21325
881.746	21310
881.872	21317
881.999	21340
882.125	21165
882.252	21420
882.378	21329
882.505	21412
882.631	21268
882.757	21024
882.883	21051
883.01	21173
883.136	21009
883.262	21032
883.388	20960
883.514	21108
883.64	21047
883.766	21043
883.892	20792
884.018	20830
884.143	20963
884.269	21165
884.395	20895
884.52	20739
884.646	20800
884.772	20632
884.897	20590
885.023	20720
885.148	20750
885.274	20902
885.399	20826
885.524	20781
885.65	20686
885.775	20735
885.9	20609
886.025	20765
886.15	20788
886.275	20632
886.4	20689
886.525	20606
886.65	20613
886.775	20693
886.9	20834
887.025	20960
887.149	20716
887.274	20564
887.399	20427
887.523	20552
887.648	20358
887.773	20412
887.897	20594
888.021	20606
888.146	20530
888.27	20549
888.395	20575
888.519	20552
888.643	20545
888.767	20511
888.891	20381
889.015	20332
889.139	20336
889.263	20271
889.387	20446
889.511	20389
889.635	20393
889.759	20259
889.883	20259
890.006	20339
890.13	20374
890.254	20259
890.377	20225
890.501	20088
890.624	20035
890.748	20119
890.871	19993
890.995	19849
891.118	19833
891.241	19890
891.364	19883
891.488	19917
891.611	19871
891.734	19845
891.857	19928
891.98	19963
892.103	19841
892.226	19883
892.349	19776
892.471	19693
892.594	19723
892.717	19830
892.839	19704
892.962	19742
893.085	19887
893.207	19734
893.33	19647
893.452	19689
893.575	19883
893.697	19807
893.819	19959
893.941	20043
894.064	19833
894.186	19693
894.308	19765
894.43	19879
894.552	19871
894.674	19944
894.796	19632
894.918	19651
895.04	19670
895.161	19887
895.283	19902
895.405	19715
895.526	19826
895.648	19738
895.769	19700
895.891	19841
896.012	19852
896.134	19894
896.255	19727
896.376	19715
896.498	19715
896.619	19864
896.74	19738
896.861	19894
896.982	20134
897.103	20195
897.224	20024
897.345	19852
897.466	19978
897.587	19951
897.708	20138
897.828	19993
897.949	19928
898.07	19856
898.19	19989
898.311	20145
898.431	19887
898.552	19967
898.672	20035
898.792	20096
898.913	20043
899.033	19849
899.153	19807
899.273	19750
899.393	19753
899.513	19845
899.633	19833
899.753	19791
899.873	19605
899.993	19784
900.113	19731
900.232	19704
900.352	19693
900.472	19632
900.591	19563
900.711	19544
900.83	19476
900.95	19620
901.069	19655
901.189	19464
901.308	19194
901.427	19164
901.546	19179
901.665	19209
901.784	19065
901.904	18989
902.023	18886
902.141	18753
902.26	18681
902.379	18650
902.498	18692
902.617	18620
902.735	18738
902.854	18570
902.973	18532
903.091	18281
903.21	18235
903.328	18334
903.446	18228
903.565	18289
903.683	18140
903.801	18041
903.919	18053
904.038	18057
904.156	17916
904.274	18019
904.392	17904
904.51	17916
904.627	17798
904.745	17908
904.863	17965
904.981	17684
905.098	17680
905.216	17596
905.334	17585
905.451	17642
905.569	17478
905.686	17668
905.803	17459
905.921	17383
906.038	17512
906.155	17292
906.272	17318
906.389	17216
906.506	17090
906.623	17041
906.74	17033
906.857	16957
906.974	16919
907.091	17132
907.208	17200
907.324	17090
907.441	17041
907.557	16938
907.674	16797
907.79	16809
907.907	16733
908.023	16919
908.139	16847
908.256	16649
908.372	16725
908.488	16675
908.604	16523
908.72	16588
908.836	16611
908.952	16554
909.068	16554
909.184	16664
909.3	16516
909.415	16615
909.531	16531
909.647	16257
909.762	16257
909.878	16226
909.993	16238
910.108	16261
910.224	16166
910.339	16268
910.454	16090
910.57	16071
910.685	16036
910.8	16215
910.915	16204
911.03	16044
911.145	15964
911.259	15884
911.374	15816
911.489	15774
911.604	15823
911.718	15610
911.833	15584
911.947	15545
912.062	15393
912.176	15473
912.291	15667
912.405	15591
912.519	15774
912.633	15728
912.748	15644
912.862	15614
912.976	15386
913.09	15367
913.204	15329
913.318	15469
913.431	15466
913.545	15603
913.659	15530
913.772	15435
913.886	15222
914	15249
914.113	15370
914.226	15306
914.34	15363
914.453	15127
914.566	15116
914.68	15081
914.793	15104
914.906	14906
915.019	14857
915.132	14830
915.245	14796
915.358	14883
915.47	14842
915.583	14834
915.696	14861
915.809	14933
915.921	14910
916.034	14785
916.146	14769
916.259	14743
916.371	14937
916.483	14807
916.595	14663
916.708	14697
916.82	14796
916.932	14579
917.044	14606
917.156	14507
917.268	14533
917.38	14499
917.491	14427
917.603	14511
917.715	14579
917.826	14587
917.938	14370
918.049	14294
918.161	14450
918.272	14507
918.384	14511
918.495	14469
918.606	14240
918.717	14275
918.828	14286
918.939	14278
919.05	14199
919.161	14237
919.272	14123
919.383	14084
919.494	14473
919.604	14484
919.715	14218
919.826	14123
919.936	14138
920.047	14320
920.157	14187
920.267	14408
920.378	14221
920.488	14275
920.598	14370
920.708	14518
920.818	14377
920.928	14336
921.038	14526
921.148	14454
921.258	14123
921.368	14065
921.477	13921
921.587	13921
921.697	13951
921.806	13997
921.916	13818
922.025	13693
922.134	13662
922.244	13601
922.353	13670
922.462	13533
922.571	13430
922.68	13365
922.789	13244
922.898	13308
923.007	13209
923.116	13255
923.224	13285
923.333	13228
923.442	13118
923.55	13103
923.659	13114
923.767	13133
923.876	13061
923.984	13084
924.092	13000
924.201	13050
924.309	13023
924.417	12973
924.525	12977
924.633	12928
924.741	13982
924.849	12753
924.956	12897
925.064	12791
925.172	12585
925.279	12665
925.387	12719
925.494	12623
925.602	12817
925.709	12760
925.816	12662
925.924	12654
926.031	12745
926.138	12623
926.245	12639
926.352	12547
926.459	12608
926.566	12711
926.673	12604
926.779	12429
926.886	12437
926.993	12323
927.099	12296
927.206	12220
927.312	12175
927.419	12327
927.525	12342
927.631	12258
927.737	12201
927.843	12121
927.95	12038
928.056	12057
928.162	12155
928.267	12140
928.373	12726
928.479	12216
928.585	11866
928.69	12087
928.796	12129
928.901	12041
929.007	11756
929.112	11942
929.218	11931
929.323	11832
929.428	11745
929.533	11946
929.638	11767
929.743	11710
929.848	11843
929.953	11832
930.058	11718
930.163	11551
930.267	11493
930.372	11634
930.477	11391
930.581	11699
930.685	11543
930.79	11459
930.894	11429
930.998	11315
931.103	11497
931.207	11162
931.311	11105
931.415	10949
931.519	10778
931.623	10790
