Data from test_V78500241_1735.txt Node
Date: Fri Mar 25 15:21:56 CST 2022
User: usil
Spectrometer: V785-0024
Trigger mode: 0
Integration Time (sec): 4.000000E-1
Scans to average: 1
Nonlinearity correction enabled: false
Boxcar width: 0
Storing dark spectrum: false
XAxis mode: Wavelengths
Number of Pixels in Spectrum: 1024
>>>>>Begin Spectral Data<<<<<
801.071	27937
801.214	27846
801.356	27705
801.499	27652
801.641	27416
801.783	27431
801.926	27511
802.068	27466
802.211	27386
802.353	27268
802.496	27180
802.638	27119
802.78	27142
802.923	27085
803.065	27070
803.208	27123
803.35	27074
803.492	27138
803.635	27207
803.777	27116
803.919	27298
804.061	27644
804.204	27302
804.346	27252
804.488	27222
804.63	27310
804.773	27268
804.915	27332
805.057	27481
805.199	27287
805.341	27504
805.483	27405
805.626	27336
805.768	27249
805.91	27401
806.052	27473
806.194	27389
806.336	27591
806.478	27462
806.62	27424
806.762	27625
806.904	27701
807.046	27865
807.188	27857
807.33	27907
807.472	27880
807.614	27762
807.756	27747
807.898	27705
808.04	27587
808.182	27660
808.324	27682
808.465	27762
808.607	27998
808.749	27987
808.891	28040
809.033	28086
809.174	28090
809.316	28128
809.458	27949
809.6	27972
809.741	28150
809.883	28253
810.025	28246
810.166	28322
810.308	28261
810.45	28413
810.591	28287
810.733	28116
810.875	28112
811.016	27831
811.158	27991
811.299	28101
811.441	28226
811.582	28173
811.724	28097
811.865	28074
812.007	27972
812.148	27983
812.29	28036
812.431	28382
812.573	28333
812.714	28421
812.855	28588
812.997	28561
813.138	28866
813.279	28710
813.421	28569
813.562	28440
813.703	28474
813.845	28230
813.986	28040
814.127	27800
814.268	27667
814.41	27724
814.551	27648
814.692	27816
814.833	27545
814.974	27580
815.115	27789
815.256	27564
815.397	27709
815.539	27511
815.68	27606
815.821	27454
815.962	27690
816.103	27504
816.244	27382
816.385	27306
816.526	27348
816.666	27154
816.807	27104
816.948	27005
817.089	27036
817.23	26998
817.371	27051
817.512	26906
817.653	26952
817.793	26937
817.934	26887
818.075	27093
818.216	27112
818.356	27013
818.497	26750
818.638	26826
818.778	26739
818.919	26834
819.06	26876
819.2	26990
819.341	27104
819.481	26952
819.622	26998
819.762	27310
819.903	27157
820.043	27222
820.184	27157
820.324	27169
820.465	27230
820.605	27096
820.746	27173
820.886	26929
821.026	26963
821.167	26925
821.307	27173
821.447	26998
821.588	26921
821.728	26838
821.868	26670
822.008	26530
822.149	26499
822.289	26514
822.429	26252
822.569	26172
822.709	26210
822.849	26122
822.99	25989
823.13	25871
823.27	25955
823.41	25940
823.55	25696
823.69	25791
823.83	25750
823.97	25677
824.11	25632
824.25	25658
824.389	25613
824.529	25719
824.669	25620
824.809	25811
824.949	25738
825.089	25609
825.228	25670
825.368	25483
825.508	25506
825.648	25559
825.787	25533
825.927	25590
826.067	25525
826.206	25422
826.346	25540
826.485	25632
826.625	25605
826.765	25521
826.904	25704
827.044	25377
827.183	25365
827.323	25206
827.462	25438
827.601	25213
827.741	25209
827.88	25240
828.02	25038
828.159	25168
828.298	25343
828.437	25259
828.577	25080
828.716	25335
828.855	25126
828.994	24882
829.134	24848
829.273	24962
829.412	24901
829.551	24848
829.69	24913
829.829	24954
829.968	25027
830.107	24989
830.246	24798
830.385	24791
830.524	24791
830.663	24810
830.802	24753
830.941	24471
831.08	24471
831.219	24612
831.357	24745
831.496	24779
831.635	24589
831.774	24353
831.913	24452
832.051	24304
832.19	24281
832.329	24365
832.467	24315
832.606	24174
832.744	24228
832.883	24190
833.022	24197
833.16	24136
833.299	24273
833.437	24277
833.576	24365
833.714	24220
833.852	24342
833.991	24464
834.129	24422
834.267	24304
834.406	24254
834.544	24353
834.682	24296
834.821	24228
834.959	24376
835.097	24155
835.235	24174
835.373	24296
835.511	24346
835.65	24140
835.788	24228
835.926	24072
836.064	23927
836.202	23984
836.34	24049
836.478	24216
836.615	24102
836.753	24057
836.891	24194
837.029	24102
837.167	24114
837.305	24030
837.443	23973
837.58	23999
837.718	24095
837.856	23980
837.993	23783
838.131	24026
838.269	24011
838.406	23908
838.544	23923
838.681	23710
838.819	23600
838.956	23406
839.094	23410
839.231	23440
839.369	23646
839.506	23760
839.643	23805
839.781	23539
839.918	23395
840.055	23467
840.193	23353
840.33	23356
840.467	23292
840.604	23512
840.742	23577
840.879	23258
841.016	23364
841.153	23334
841.29	23474
841.427	23337
841.564	23379
841.701	23360
841.838	23360
841.975	23273
842.112	23227
842.249	23204
842.385	23178
842.522	23391
842.659	23307
842.796	23094
842.933	23174
843.069	23003
843.206	23124
843.343	23269
843.479	23124
843.616	23124
843.752	22946
843.889	22839
844.025	23143
844.162	22968
844.298	23033
844.435	22915
844.571	22854
844.708	22976
844.844	23075
844.98	22908
845.117	22953
845.253	22740
845.389	22873
845.525	22679
845.661	22752
845.798	22516
845.934	22683
846.07	22721
846.206	22557
846.342	22694
846.478	22649
846.614	22363
846.75	22318
846.886	22390
847.022	22489
847.158	22382
847.294	22405
847.429	22352
847.565	22390
847.701	22531
847.837	22223
847.972	22082
848.108	22166
848.244	22398
848.379	21857
848.515	21937
848.65	21945
848.786	22006
848.921	21903
849.057	22044
849.192	22017
849.328	22040
849.463	22051
849.598	21994
849.734	21861
849.869	21739
850.004	21724
850.14	21762
850.275	21789
850.41	21614
850.545	21660
850.68	21644
850.815	21770
850.95	21793
851.085	21907
851.22	21690
851.355	21739
851.49	21755
851.625	21629
851.76	21606
851.895	21610
852.03	21599
852.165	21660
852.299	21743
852.434	21819
852.569	21679
852.703	21652
852.838	21789
852.973	21823
853.107	21968
853.242	21644
853.376	21549
853.511	21424
853.645	21507
853.78	21568
853.914	21580
854.048	21644
854.183	21545
854.317	21671
854.451	21705
854.585	21526
854.72	21530
854.854	21690
854.988	21393
855.122	21530
855.256	21325
855.39	21492
855.524	21450
855.658	21526
855.792	21663
855.926	21553
856.06	21572
856.194	21622
856.327	21450
856.461	21374
856.595	21313
856.729	21507
856.862	21599
856.996	21462
857.13	21614
857.263	21603
857.397	21496
857.53	21614
857.664	21580
857.797	21656
857.931	21545
858.064	21561
858.197	21576
858.331	21564
858.464	21561
858.597	21420
858.731	21542
858.864	21454
858.997	21542
859.13	21576
859.263	21545
859.396	21538
859.529	21504
859.662	21439
859.795	21458
859.928	21519
860.061	21720
860.194	21766
860.327	21610
860.46	21492
860.592	21675
860.725	21629
860.858	21720
860.99	21595
861.123	21485
861.256	21538
861.388	21439
861.521	22158
861.653	21466
861.786	21252
861.918	21332
862.05	21488
862.183	21526
862.315	21545
862.447	21412
862.58	21370
862.712	21199
862.844	21135
862.976	21283
863.108	21302
863.24	21625
863.372	21127
863.504	21275
863.636	21279
863.768	21169
863.9	21249
864.032	21135
864.164	21195
864.296	21184
864.428	21268
864.559	21374
864.691	21245
864.823	21245
864.954	21176
865.086	21184
865.217	21112
865.349	20944
865.48	21184
865.612	21127
865.743	21142
865.875	21165
866.006	21116
866.137	21157
866.269	21123
866.4	20982
866.531	21039
866.662	20982
866.793	21138
866.924	20883
867.055	21039
867.186	21135
867.317	21009
867.448	20944
867.579	21017
867.71	21089
867.841	20963
867.972	21116
868.103	21074
868.233	20956
868.364	20975
868.495	21089
868.625	21154
868.756	21310
868.886	21241
869.017	21218
869.147	21370
869.278	21374
869.408	21344
869.539	21306
869.669	21359
869.799	21393
869.929	21370
870.06	21321
870.19	21660
870.32	21671
870.45	21637
870.58	21743
870.71	21770
870.84	21724
870.97	21759
871.1	21629
871.23	21804
871.36	21778
871.489	21846
871.619	21804
871.749	21915
871.879	21895
872.008	22010
872.138	21808
872.267	21956
872.397	21762
872.526	21838
872.656	21675
872.785	21686
872.915	21956
873.044	21979
873.173	22002
873.303	22036
873.432	21949
873.561	21979
873.69	21945
873.819	21911
873.948	21941
874.077	22032
874.206	21816
874.335	21937
874.464	21987
874.593	22173
874.722	22120
874.851	22006
874.979	22101
875.108	22185
875.237	22226
875.365	22059
875.494	22109
875.623	22238
875.751	22207
875.88	22120
876.008	22268
876.136	22265
876.265	22626
876.393	22713
876.521	22668
876.65	22554
876.778	22497
876.906	22428
877.034	22413
877.162	22554
877.29	22573
877.418	22447
877.546	22440
877.674	22409
877.802	22485
877.93	22344
878.058	22432
878.185	22375
878.313	22390
878.441	22386
878.568	22314
878.696	22268
878.824	22512
878.951	22607
879.079	22664
879.206	22740
879.333	22607
879.461	22466
879.588	22538
879.715	22641
879.842	22812
879.97	22470
880.097	22333
880.224	22246
880.351	22333
880.478	22360
880.605	22276
880.732	22265
880.859	22554
880.986	22306
881.112	22360
881.239	22280
881.366	22002
881.493	21941
881.619	21823
881.746	21869
881.872	21854
881.999	21728
882.125	21880
882.252	21979
882.378	21861
882.505	21964
882.631	21789
882.757	21576
882.883	21698
883.01	21557
883.136	21500
883.262	21481
883.388	21450
883.514	21595
883.64	21644
883.766	21488
883.892	21466
884.018	21439
884.143	21500
884.269	21671
884.395	21252
884.52	21233
884.646	21329
884.772	21184
884.897	21165
885.023	21245
885.148	21287
885.274	21386
885.399	21268
885.524	21329
885.65	21184
885.775	21264
885.9	21169
886.025	21188
886.15	21264
886.275	21195
886.4	21146
886.525	21089
886.65	21256
886.775	21104
886.9	21363
887.025	21351
887.149	21127
887.274	21032
887.399	21062
887.523	20944
887.648	21009
887.773	20811
887.897	21024
888.021	21081
888.146	20960
888.27	21062
888.395	21081
888.519	20963
888.643	21058
888.767	20956
888.891	20864
889.015	20712
889.139	20815
889.263	20826
889.387	20921
889.511	21032
889.635	20891
889.759	20861
889.883	20845
890.006	20807
890.13	20887
890.254	20750
890.377	20716
890.501	20423
890.624	20465
890.748	20541
890.871	20473
890.995	20431
891.118	20256
891.241	20389
891.364	20400
891.488	20537
891.611	20358
891.734	20370
891.857	20412
891.98	20503
892.103	20328
892.226	20259
892.349	20381
892.471	20164
892.594	20210
892.717	20275
892.839	20309
892.962	20084
893.085	20305
893.207	20164
893.33	20134
893.452	20142
893.575	20358
893.697	20206
893.819	20412
893.941	20526
894.064	20389
894.186	20267
894.308	20267
894.43	20202
894.552	20324
894.674	20415
894.796	20134
894.918	20267
895.04	20218
895.161	20210
895.283	20259
895.405	20153
895.526	20290
895.648	20176
895.769	20305
895.891	20313
896.012	20324
896.134	20286
896.255	20282
896.376	20149
896.498	20298
896.619	20271
896.74	20206
896.861	20252
896.982	20476
897.103	20632
897.224	20469
897.345	20423
897.466	20355
897.587	20442
897.708	20629
897.828	20465
897.949	20377
898.07	20107
898.19	20393
898.311	20514
898.431	20370
898.552	20408
898.672	20552
898.792	20457
898.913	20552
899.033	20419
899.153	20248
899.273	20256
899.393	20191
899.513	20252
899.633	20309
899.753	20191
899.873	20172
899.993	20016
900.113	20100
900.232	20115
900.352	20145
900.472	19989
900.591	19894
900.711	19883
900.83	20027
900.95	20161
901.069	20054
901.189	19883
901.308	19723
901.427	19571
901.546	19586
901.665	19597
901.784	19609
901.904	19358
902.023	19384
902.141	19129
902.26	19118
902.379	19126
902.498	19000
902.617	18962
902.735	19148
902.854	18954
902.973	19015
903.091	18757
903.21	18722
903.328	18753
903.446	18677
903.565	18650
903.683	18536
903.801	18380
903.919	18346
904.038	18540
904.156	18308
904.274	18334
904.392	18281
904.51	18323
904.627	18296
904.745	18437
904.863	18357
904.981	18133
905.098	17980
905.216	17901
905.334	17878
905.451	17999
905.569	17977
905.686	18011
905.803	17984
905.921	17649
906.038	17874
906.155	17870
906.272	17684
906.389	17634
906.506	17573
906.623	17440
906.74	17448
906.857	17349
906.974	17455
907.091	17486
907.208	17714
907.324	17528
907.441	17501
907.557	17318
907.674	17208
907.79	17124
907.907	17113
908.023	17269
908.139	17246
908.256	17242
908.372	17071
908.488	17208
908.604	16980
908.72	16938
908.836	16923
908.952	16885
909.068	16961
909.184	16995
909.3	16942
909.415	16904
909.531	16934
909.647	16694
909.762	16618
909.878	16611
909.993	16546
910.108	16580
910.224	16508
910.339	16649
910.454	16569
910.57	16500
910.685	16379
910.8	16660
910.915	16656
911.03	16451
911.145	16287
911.259	16272
911.374	16169
911.489	16188
911.604	16135
911.718	15953
911.833	16017
911.947	15930
912.062	15732
912.176	16021
912.291	15895
912.405	16040
912.519	16181
912.633	16253
912.748	16078
912.862	16040
912.976	15861
913.09	15709
913.204	15819
913.318	15759
913.431	15895
913.545	15937
913.659	15960
913.772	15641
913.886	15675
914	15644
914.113	15682
914.226	15686
914.34	15599
914.453	15443
914.566	15629
914.68	15469
914.793	15492
914.906	15332
915.019	15226
915.132	15085
915.245	15154
915.358	15226
915.47	15150
915.583	15214
915.696	15218
915.809	15317
915.921	15176
916.034	15077
916.146	15165
916.259	15074
916.371	15135
916.483	15184
916.595	15116
916.708	15100
916.82	15085
916.932	15028
917.044	14952
917.156	14986
917.268	14861
917.38	14925
917.491	14834
917.603	14872
917.715	14895
917.826	14941
917.938	14735
918.049	14689
918.161	14804
918.272	14864
918.384	14944
918.495	14800
918.606	14610
918.717	14594
918.828	14568
918.939	14644
919.05	14488
919.161	14587
919.272	14290
919.383	14408
919.494	14530
919.604	14750
919.715	14602
919.826	14438
919.936	14598
920.047	14606
920.157	14537
920.267	14663
920.378	14587
920.488	14461
920.598	14701
920.708	14796
920.818	14746
920.928	14663
921.038	14785
921.148	14853
921.258	14480
921.368	14484
921.477	14396
921.587	14259
921.697	14214
921.806	14286
921.916	14195
922.025	13967
922.134	14001
922.244	13883
922.353	14024
922.462	13784
922.571	13704
922.68	13651
922.789	13575
922.898	13601
923.007	13518
923.116	13651
923.224	13624
923.333	13533
923.442	13529
923.55	13400
923.659	13438
923.767	13464
923.876	13422
923.984	13415
924.092	13289
924.201	13259
924.309	13354
924.417	13327
924.525	13285
924.633	13198
924.741	13936
924.849	13095
924.956	13217
925.064	13012
925.172	12867
925.279	13019
925.387	13038
925.494	13042
925.602	13099
925.709	12981
925.816	12821
925.924	12993
926.031	13023
926.138	13042
926.245	12973
926.352	12875
926.459	12989
926.566	12932
926.673	12875
926.779	12783
926.886	12734
926.993	12604
927.099	12646
927.206	12547
927.312	12456
927.419	12623
927.525	12536
927.631	12642
927.737	12479
927.843	12376
927.95	12258
928.056	12346
928.162	12388
928.267	12422
928.373	13122
928.479	12410
928.585	12243
928.69	12407
928.796	12395
928.901	12254
929.007	12167
929.112	12277
929.218	12216
929.323	12129
929.428	12155
929.533	12155
929.638	11977
929.743	12102
929.848	12053
929.953	12019
930.058	11946
930.163	11817
930.267	11726
930.372	11939
930.477	11767
930.581	12030
930.685	11840
930.79	11684
930.894	11684
930.998	11657
931.103	11798
931.207	11379
931.311	11452
931.415	11185
931.519	11048
931.623	11056
