Data from test_V78500241_1273.txt Node
Date: Fri Mar 25 15:18:43 CST 2022
User: usil
Spectrometer: V785-0024
Trigger mode: 0
Integration Time (sec): 4.000000E-1
Scans to average: 1
Nonlinearity correction enabled: false
Boxcar width: 0
Storing dark spectrum: false
XAxis mode: Wavelengths
Number of Pixels in Spectrum: 1024
>>>>>Begin Spectral Data<<<<<
801.071	28082
801.214	27911
801.356	27804
801.499	27618
801.641	27595
801.783	27587
801.926	27637
802.068	27481
802.211	27481
802.353	27549
802.496	27477
802.638	27237
802.78	27195
802.923	27249
803.065	27173
803.208	27154
803.35	27207
803.492	27317
803.635	27526
803.777	27218
803.919	27477
804.061	27835
804.204	27462
804.346	27450
804.488	27504
804.63	27382
804.773	27408
804.915	27485
805.057	27549
805.199	27481
805.341	27530
805.483	27603
805.626	27614
805.768	27481
805.91	27591
806.052	27530
806.194	27530
806.336	27747
806.478	27599
806.62	27622
806.762	27800
806.904	27808
807.046	28147
807.188	27865
807.33	27934
807.472	28207
807.614	27975
807.756	28078
807.898	27979
808.04	27797
808.182	27831
808.324	27972
808.465	27945
808.607	28230
808.749	28215
808.891	28436
809.033	28478
809.174	28390
809.316	28188
809.458	28143
809.6	28196
809.741	28424
809.883	28367
810.025	28561
810.166	28607
810.308	28675
810.45	28432
810.591	28390
810.733	28341
810.875	28318
811.016	28147
811.158	28147
811.299	28428
811.441	28325
811.582	28409
811.724	28223
811.865	28223
812.007	28318
812.148	28390
812.29	28390
812.431	28344
812.573	28603
812.714	28618
812.855	28797
812.997	29010
813.138	29033
813.279	28972
813.421	28702
813.562	28854
813.703	28653
813.845	28569
813.986	28272
814.127	28154
814.268	28116
814.41	28029
814.551	27994
814.692	28143
814.833	28044
814.974	27911
815.115	27892
815.256	27823
815.397	27755
815.539	27819
815.68	27804
815.821	27709
815.962	27861
816.103	27842
816.244	27736
816.385	27507
816.526	27591
816.666	27294
816.807	27146
816.948	27488
817.089	27561
817.23	27310
817.371	27382
817.512	27256
817.653	27291
817.793	27249
817.934	27279
818.075	27386
818.216	27260
818.356	27275
818.497	27165
818.638	27028
818.778	26944
818.919	27070
819.06	27039
819.2	27192
819.341	27230
819.481	27291
819.622	27481
819.762	27564
819.903	27641
820.043	27367
820.184	27363
820.324	27469
820.465	27412
820.605	27359
820.746	27427
820.886	27264
821.026	27359
821.167	27325
821.307	27389
821.447	27344
821.588	27131
821.728	27161
821.868	26963
822.008	26781
822.149	26868
822.289	26739
822.429	26488
822.569	26473
822.709	26469
822.849	26275
822.99	26328
823.13	26362
823.27	26252
823.41	26138
823.55	26096
823.69	26134
823.83	26149
823.97	26005
824.11	25894
824.25	25807
824.389	25822
824.529	25959
824.669	25989
824.809	25909
824.949	26046
825.089	26001
825.228	25890
825.368	25807
825.508	25833
825.648	25677
825.787	25780
825.927	25963
826.067	25772
826.206	25674
826.346	25986
826.485	25909
826.625	25868
826.765	25963
826.904	25986
827.044	25605
827.183	25586
827.323	25407
827.462	25655
827.601	25552
827.741	25502
827.88	25483
828.02	25331
828.159	25495
828.298	25540
828.437	25674
828.577	25468
828.716	25582
828.855	25472
828.994	25202
829.134	25171
829.273	25285
829.412	25107
829.551	25103
829.69	25225
829.829	25206
829.968	25263
830.107	25339
830.246	25228
830.385	25194
830.524	25156
830.663	25099
830.802	25015
830.941	24867
831.08	24753
831.219	24935
831.357	24909
831.496	25103
831.635	24798
831.774	24753
831.913	24627
832.051	24650
832.19	24669
832.329	24779
832.467	24589
832.606	24414
832.744	24486
832.883	24429
833.022	24414
833.16	24547
833.299	24566
833.437	24490
833.576	24623
833.714	24460
833.852	24582
833.991	24635
834.129	24623
834.267	24688
834.406	24544
834.544	24551
834.682	24559
834.821	24479
834.959	24661
835.097	24593
835.235	24658
835.373	24429
835.511	24486
835.65	24384
835.788	24369
835.926	24251
836.064	24190
836.202	24327
836.34	24365
836.478	24547
836.615	24525
836.753	24353
836.891	24505
837.029	24452
837.167	24418
837.305	24194
837.443	24384
837.58	24315
837.718	24376
837.856	24304
837.993	24342
838.131	24235
838.269	24201
838.406	24213
838.544	24114
838.681	23802
838.819	23920
838.956	23672
839.094	23665
839.231	23718
839.369	23893
839.506	24129
839.643	23969
839.781	23707
839.918	23600
840.055	23733
840.193	23604
840.33	23627
840.467	23592
840.604	23665
840.742	23866
840.879	23478
841.016	23596
841.153	23623
841.29	23718
841.427	23615
841.564	23634
841.701	23668
841.838	23611
841.975	23581
842.112	23391
842.249	23414
842.385	23467
842.522	23486
842.659	23360
842.796	23398
842.933	23261
843.069	23242
843.206	23353
843.343	23505
843.479	23539
843.616	23528
843.752	23147
843.889	23242
844.025	23307
844.162	23174
844.298	23288
844.435	23105
844.571	23178
844.708	23284
844.844	23353
844.98	23216
845.117	23223
845.253	23174
845.389	23006
845.525	23075
845.661	23029
845.798	22869
845.934	23022
846.07	22835
846.206	22934
846.342	23010
846.478	22850
846.614	22725
846.75	22656
846.886	22611
847.022	22668
847.158	22675
847.294	22641
847.429	22615
847.565	22542
847.701	22854
847.837	22390
847.972	22272
848.108	22371
848.244	22523
848.379	22234
848.515	22192
848.65	22078
848.786	22280
848.921	22246
849.057	22196
849.192	22329
849.328	22230
849.463	22219
849.598	22124
849.734	22048
849.869	22070
850.004	22051
850.14	22032
850.275	21937
850.41	21949
850.545	21823
850.68	21884
850.815	21960
850.95	22013
851.085	22188
851.22	22086
851.355	22025
851.49	22021
851.625	21857
851.76	21804
851.895	21892
852.03	21888
852.165	21934
852.299	21945
852.434	22059
852.569	22082
852.703	22025
852.838	22040
852.973	22086
853.107	21968
853.242	21983
853.376	21812
853.511	21686
853.645	21774
853.78	21949
853.914	21869
854.048	21671
854.183	21865
854.317	21713
854.451	21934
854.585	21781
854.72	21842
854.854	21823
854.988	21618
855.122	21857
855.256	21728
855.39	21800
855.524	21850
855.658	21804
855.792	21766
855.926	21766
856.06	21911
856.194	21842
856.327	21701
856.461	21701
856.595	21774
856.729	21728
856.862	21895
856.996	21842
857.13	21857
857.263	21873
857.397	21884
857.53	21793
857.664	21797
857.797	21884
857.931	21865
858.064	21823
858.197	21922
858.331	21800
858.464	21762
858.597	21606
858.731	21770
858.864	21720
858.997	21736
859.13	21686
859.263	21759
859.396	21793
859.529	21732
859.662	21709
859.795	21663
859.928	21819
860.061	21869
860.194	22002
860.327	21823
860.46	21854
860.592	22032
860.725	21930
860.858	21934
860.99	21747
861.123	21652
861.256	21827
861.388	21759
861.521	22447
861.653	21549
861.786	21564
861.918	21542
862.05	21694
862.183	21759
862.315	21679
862.447	21819
862.58	21751
862.712	21504
862.844	21462
862.976	21515
863.108	21618
863.24	21918
863.372	21496
863.504	21424
863.636	21519
863.768	21542
863.9	21538
864.032	21454
864.164	21302
864.296	21469
864.428	21553
864.559	21576
864.691	21610
864.823	21576
864.954	21416
865.086	21496
865.217	21439
865.349	21367
865.48	21336
865.612	21374
865.743	21561
865.875	21348
866.006	21420
866.137	21393
866.269	21355
866.4	21374
866.531	21374
866.662	21306
866.793	21264
866.924	21268
867.055	21291
867.186	21340
867.317	21389
867.448	21169
867.579	21199
867.71	21188
867.841	21047
867.972	21264
868.103	21184
868.233	21378
868.364	21306
868.495	21481
868.625	21526
868.756	21591
868.886	21447
869.017	21431
869.147	21606
869.278	21625
869.408	21549
869.539	21553
869.669	21652
869.799	21622
869.929	21587
870.06	21625
870.19	21873
870.32	21808
870.45	21930
870.58	21964
870.71	22044
870.84	22097
870.97	21991
871.1	21736
871.23	22166
871.36	22116
871.489	21972
871.619	22177
871.749	22051
871.879	22185
872.008	22253
872.138	22150
872.267	22158
872.397	21991
872.526	21941
872.656	21930
872.785	22040
872.915	22226
873.044	22348
873.173	22067
873.303	22265
873.432	22242
873.561	22318
873.69	22223
873.819	22238
873.948	22158
874.077	22131
874.206	22025
874.335	22211
874.464	22394
874.593	22451
874.722	22394
874.851	22546
874.979	22421
875.108	22413
875.237	22382
875.365	22363
875.494	22352
875.623	22504
875.751	22367
875.88	22447
876.008	22561
876.136	22497
876.265	22763
876.393	22824
876.521	22896
876.65	22839
876.778	22805
876.906	22835
877.034	22759
877.162	22713
877.29	22656
877.418	22790
877.546	22820
877.674	22790
877.802	22736
877.93	22793
878.058	22740
878.185	22542
878.313	22782
878.441	22599
878.568	22637
878.696	22706
878.824	22774
878.951	22778
879.079	22881
879.206	22942
879.333	22824
879.461	22805
879.588	22774
879.715	22889
879.842	23098
879.97	22774
880.097	22554
880.224	22546
880.351	22493
880.478	22603
880.605	22462
880.732	22561
880.859	22869
880.986	22672
881.112	22538
881.239	22352
881.366	22348
881.493	22246
881.619	22196
881.746	22284
881.872	22139
881.999	22131
882.125	22063
882.252	22242
882.378	22177
882.505	22230
882.631	22078
882.757	21975
882.883	21987
883.01	21846
883.136	21937
883.262	21774
883.388	21705
883.514	21827
883.64	21797
883.766	21701
883.892	21625
884.018	21496
884.143	21880
884.269	21808
884.395	21504
884.52	21485
884.646	21473
884.772	21348
884.897	21481
885.023	21580
885.148	21564
885.274	21595
885.399	21519
885.524	21462
885.65	21572
885.775	21530
885.9	21485
886.025	21622
886.15	21530
886.275	21454
886.4	21317
886.525	21477
886.65	21481
886.775	21405
886.9	21504
887.025	21686
887.149	21534
887.274	21279
887.399	21207
887.523	21150
887.648	21180
887.773	21104
887.897	21355
888.021	21275
888.146	21195
888.27	21313
888.395	21367
888.519	21249
888.643	21294
888.767	21154
888.891	21161
889.015	21009
889.139	21135
889.263	21020
889.387	21173
889.511	21184
889.635	21249
889.759	21039
889.883	21043
890.006	21051
890.13	21199
890.254	21081
890.377	20933
890.501	20716
890.624	20678
890.748	20842
890.871	20758
890.995	20716
891.118	20545
891.241	20663
891.364	20583
891.488	20735
891.611	20602
891.734	20526
891.857	20663
891.98	20689
892.103	20609
892.226	20644
892.349	20571
892.471	20396
892.594	20552
892.717	20526
892.839	20423
892.962	20590
893.085	20556
893.207	20541
893.33	20343
893.452	20442
893.575	20503
893.697	20556
893.819	20613
893.941	20773
894.064	20686
894.186	20537
894.308	20454
894.43	20537
894.552	20541
894.674	20522
894.796	20396
894.918	20461
895.04	20396
895.161	20545
895.283	20545
895.405	20438
895.526	20514
895.648	20294
895.769	20480
895.891	20484
896.012	20492
896.134	20514
896.255	20560
896.376	20415
896.498	20450
896.619	20438
896.74	20549
896.861	20537
896.982	20689
897.103	20986
897.224	20815
897.345	20655
897.466	20693
897.587	20712
897.708	20758
897.828	20587
897.949	20602
898.07	20606
898.19	20583
898.311	20804
898.431	20712
898.552	20724
898.672	20746
898.792	20834
898.913	20735
899.033	20545
899.153	20404
899.273	20336
899.393	20362
899.513	20450
899.633	20442
899.753	20484
899.873	20278
899.993	20305
900.113	20396
900.232	20412
900.352	20358
900.472	20301
900.591	20157
900.711	20229
900.83	20142
900.95	20202
901.069	20259
901.189	20092
901.308	19864
901.427	19719
901.546	19681
901.665	19757
901.784	19715
901.904	19590
902.023	19460
902.141	19362
902.26	19304
902.379	19346
902.498	19304
902.617	19274
902.735	19434
902.854	19160
902.973	19148
903.091	18886
903.21	18901
903.328	18905
903.446	18837
903.565	18741
903.683	18783
903.801	18635
903.919	18760
904.038	18760
904.156	18582
904.274	18658
904.392	18532
904.51	18521
904.627	18555
904.745	18506
904.863	18471
904.981	18311
905.098	18224
905.216	18216
905.334	18270
905.451	18254
905.569	18182
905.686	18186
905.803	18095
905.921	17931
906.038	18068
906.155	17939
906.272	17840
906.389	17870
906.506	17783
906.623	17687
906.74	17707
906.857	17562
906.974	17642
907.091	17889
907.208	17885
907.324	17676
907.441	17684
907.557	17482
907.674	17505
907.79	17383
907.907	17391
908.023	17425
908.139	17486
908.256	17379
908.372	17398
908.488	17242
908.604	17246
908.72	17105
908.836	17109
908.952	17246
909.068	17132
909.184	17250
909.3	17143
909.415	17117
909.531	17223
909.647	16984
909.762	16809
909.878	16873
909.993	16858
910.108	16839
910.224	16740
910.339	16786
910.454	16820
910.57	16729
910.685	16611
910.8	16843
910.915	16831
911.03	16645
911.145	16493
911.259	16535
911.374	16459
911.489	16352
911.604	16303
911.718	16135
911.833	16120
911.947	16128
912.062	15972
912.176	16071
912.291	16143
912.405	16131
912.519	16367
912.633	16352
912.748	16257
912.862	16207
912.976	16063
913.09	15983
913.204	15907
913.318	16025
913.431	16029
913.545	16101
913.659	16051
913.772	15937
913.886	15915
914	15823
914.113	15842
914.226	15804
914.34	15960
914.453	15682
914.566	15732
914.68	15720
914.793	15694
914.906	15439
915.019	15408
915.132	15351
915.245	15431
915.358	15393
915.47	15420
915.583	15329
915.696	15397
915.809	15564
915.921	15462
916.034	15310
916.146	15340
916.259	15287
916.371	15454
916.483	15287
916.595	15203
916.708	15264
916.82	15188
916.932	15207
917.044	15218
917.156	15173
917.268	14941
917.38	15112
917.491	14956
917.603	15089
917.715	15131
917.826	15116
917.938	15032
918.049	14868
918.161	15039
918.272	15104
918.384	15062
918.495	14944
918.606	14727
918.717	14720
918.828	14872
918.939	14792
919.05	14724
919.161	14807
919.272	14594
919.383	14583
919.494	14807
919.604	14937
919.715	14796
919.826	14735
919.936	14667
920.047	14781
920.157	14720
920.267	14937
920.378	14750
920.488	14735
920.598	14910
920.708	15009
920.818	14853
920.928	14864
921.038	15032
921.148	14948
921.258	14663
921.368	14575
921.477	14495
921.587	14434
921.697	14332
921.806	14541
921.916	14320
922.025	14138
922.134	14065
922.244	14016
922.353	14138
922.462	14035
922.571	13947
922.68	13757
922.789	13780
922.898	13803
923.007	13681
923.116	13849
923.224	13753
923.333	13761
923.442	13601
923.55	13575
923.659	13537
923.767	13578
923.876	13525
923.984	13586
924.092	13464
924.201	13544
924.309	13472
924.417	13495
924.525	13464
924.633	13369
924.741	14088
924.849	13171
924.956	13304
925.064	13183
925.172	13118
925.279	13103
925.387	13190
925.494	13141
925.602	13312
925.709	13255
925.816	13099
925.924	13107
926.031	13247
926.138	13091
926.245	13156
926.352	13004
926.459	13129
926.566	13160
926.673	13023
926.779	12932
926.886	12871
926.993	12776
927.099	12749
927.206	12753
927.312	12669
927.419	12848
927.525	12673
927.631	12662
927.737	12665
927.843	12498
927.95	12479
928.056	12525
928.162	12517
928.267	12608
928.373	13114
928.479	12555
928.585	12346
928.69	12467
928.796	12479
928.901	12509
929.007	12197
929.112	12376
929.218	12327
929.323	12388
929.428	12243
929.533	12395
929.638	12228
929.743	12251
929.848	12296
929.953	12182
930.058	12102
930.163	11950
930.267	11969
930.372	12136
930.477	11920
930.581	12098
930.685	11950
930.79	11764
930.894	11748
930.998	11646
931.103	11916
931.207	11570
931.311	11436
931.415	11383
931.519	11277
931.623	11121
