Data from test_V78500241_2505.txt Node
Date: Fri Mar 25 15:27:18 CST 2022
User: usil
Spectrometer: V785-0024
Trigger mode: 0
Integration Time (sec): 4.000000E-1
Scans to average: 1
Nonlinearity correction enabled: false
Boxcar width: 0
Storing dark spectrum: false
XAxis mode: Wavelengths
Number of Pixels in Spectrum: 1024
>>>>>Begin Spectral Data<<<<<
801.071	27161
801.214	27142
801.356	26902
801.499	26906
801.641	26686
801.783	26701
801.926	26834
802.068	26621
802.211	26644
802.353	26667
802.496	26396
802.638	26351
802.78	26408
802.923	26358
803.065	26366
803.208	26252
803.35	26286
803.492	26339
803.635	26564
803.777	26389
803.919	26412
804.061	26777
804.204	26423
804.346	26503
804.488	26286
804.63	26495
804.773	26351
804.915	26568
805.057	26434
805.199	26514
805.341	26370
805.483	26689
805.626	26518
805.768	26537
805.91	26473
806.052	26533
806.194	26575
806.336	26777
806.478	26537
806.62	26617
806.762	26739
806.904	26823
807.046	27062
807.188	27024
807.33	27020
807.472	27116
807.614	27138
807.756	27070
807.898	26842
808.04	26689
808.182	26804
808.324	26872
808.465	27039
808.607	27055
808.749	27268
808.891	27169
809.033	27431
809.174	27184
809.316	27100
809.458	27043
809.6	27142
809.741	27192
809.883	27462
810.025	27382
810.166	27492
810.308	27485
810.45	27542
810.591	27306
810.733	27161
810.875	27077
811.016	26986
811.158	27093
811.299	27272
811.441	27427
811.582	27344
811.724	27192
811.865	27123
812.007	27062
812.148	27051
812.29	27173
812.431	27264
812.573	27378
812.714	27500
812.855	27614
812.997	27637
813.138	27835
813.279	27819
813.421	27686
813.562	27599
813.703	27500
813.845	27317
813.986	27150
814.127	26864
814.268	26868
814.41	26819
814.551	26720
814.692	27001
814.833	26765
814.974	26804
815.115	26788
815.256	26762
815.397	26727
815.539	26731
815.68	26689
815.821	26503
815.962	26640
816.103	26533
816.244	26423
816.385	26400
816.526	26393
816.666	26313
816.807	26122
816.948	26195
817.089	26229
817.23	26142
817.371	26027
817.512	26043
817.653	25932
817.793	25982
817.934	26020
818.075	25928
818.216	26031
818.356	25997
818.497	25940
818.638	25746
818.778	25849
818.919	25875
819.06	25875
819.2	26180
819.341	26100
819.481	26077
819.622	26164
819.762	26381
819.903	26237
820.043	26229
820.184	26240
820.324	26134
820.465	26199
820.605	26176
820.746	26058
820.886	26096
821.026	26081
821.167	25978
821.307	26244
821.447	26142
821.588	26005
821.728	25883
821.868	25681
822.008	25582
822.149	25624
822.289	25613
822.429	25438
822.569	25217
822.709	25339
822.849	25202
822.99	25160
823.13	25004
823.27	24916
823.41	24760
823.55	24673
823.69	24920
823.83	24992
823.97	24947
824.11	24555
824.25	24639
824.389	24700
824.529	24757
824.669	24612
824.809	24764
824.949	24837
825.089	24894
825.228	24745
825.368	24635
825.508	24582
825.648	24665
825.787	24593
825.927	24665
826.067	24460
826.206	24589
826.346	24681
826.485	24635
826.625	24627
826.765	24658
826.904	24563
827.044	24357
827.183	24346
827.323	24228
827.462	24361
827.601	24323
827.741	24247
827.88	24277
828.02	24174
828.159	24357
828.298	24243
828.437	24372
828.577	24201
828.716	24388
828.855	24254
828.994	23984
829.134	24034
829.273	24030
829.412	23859
829.551	23958
829.69	23950
829.829	24041
829.968	24098
830.107	24030
830.246	23889
830.385	23923
830.524	23745
830.663	23882
830.802	23756
830.941	23646
831.08	23577
831.219	23726
831.357	23798
831.496	23813
831.635	23710
831.774	23600
831.913	23452
832.051	23471
832.19	23433
832.329	23448
832.467	23383
832.606	23311
832.744	23239
832.883	23356
833.022	23200
833.16	23265
833.299	23471
833.437	23395
833.576	23242
833.714	23383
833.852	23341
833.991	23448
834.129	23337
834.267	23364
834.406	23296
834.544	23433
834.682	23284
834.821	23231
834.959	23547
835.097	23345
835.235	23459
835.373	23387
835.511	23322
835.65	23269
835.788	23117
835.926	23117
836.064	23014
836.202	23105
836.34	23159
836.478	23239
836.615	23273
836.753	23368
836.891	23193
837.029	23318
837.167	23159
837.305	23185
837.443	22987
837.58	23060
837.718	23166
837.856	23124
837.993	23067
838.131	23151
838.269	23029
838.406	23113
838.544	22942
838.681	22793
838.819	22736
838.956	22557
839.094	22664
839.231	22592
839.369	22786
839.506	23048
839.643	22904
839.781	22500
839.918	22432
840.055	22561
840.193	22538
840.33	22516
840.467	22485
840.604	22557
840.742	22793
840.879	22432
841.016	22447
841.153	22390
841.29	22641
841.427	22443
841.564	22535
841.701	22561
841.838	22455
841.975	22474
842.112	22607
842.249	22295
842.385	22295
842.522	22561
842.659	22489
842.796	22265
842.933	22211
843.069	22192
843.206	22181
843.343	22223
843.479	22280
843.616	22204
843.752	22120
843.889	22109
844.025	22177
844.162	22017
844.298	22188
844.435	21949
844.571	22048
844.708	22040
844.844	22097
844.98	22204
845.117	22173
845.253	22032
845.389	22006
845.525	21892
845.661	21823
845.798	21766
845.934	21804
846.07	21778
846.206	21793
846.342	21937
846.478	21705
846.614	21656
846.75	21481
846.886	21367
847.022	21523
847.158	21511
847.294	21504
847.429	21500
847.565	21504
847.701	21755
847.837	21150
847.972	21188
848.108	21275
848.244	21275
848.379	21184
848.515	21081
848.65	21051
848.786	21157
848.921	21169
849.057	21100
849.192	21283
849.328	21024
849.463	21112
849.598	21070
849.734	20971
849.869	20914
850.004	20804
850.14	20853
850.275	20826
850.41	20819
850.545	20872
850.68	20864
850.815	20868
850.95	20765
851.085	20975
851.22	21017
851.355	20781
851.49	20804
851.625	20788
851.76	20910
851.895	20781
852.03	20826
852.165	20960
852.299	20906
852.434	20933
852.569	20975
852.703	20842
852.838	21036
852.973	20944
853.107	21055
853.242	20701
853.376	20739
853.511	20511
853.645	20575
853.78	20746
853.914	20868
854.048	20750
854.183	20670
854.317	20629
854.451	20948
854.585	20724
854.72	20651
854.854	20682
854.988	20674
855.122	20762
855.256	20514
855.39	20606
855.524	20716
855.658	20746
855.792	20716
855.926	20811
856.06	20625
856.194	20796
856.327	20556
856.461	20518
856.595	20560
856.729	20769
856.862	20743
856.996	20541
857.13	20750
857.263	20887
857.397	20727
857.53	20663
857.664	20663
857.797	20705
857.931	20758
858.064	20663
858.197	20788
858.331	20568
858.464	20587
858.597	20545
858.731	20530
858.864	20613
858.997	20495
859.13	20716
859.263	20705
859.396	20670
859.529	20629
859.662	20587
859.795	20621
859.928	20716
860.061	20826
860.194	20971
860.327	20777
860.46	20575
860.592	20781
860.725	20872
860.858	20743
860.99	20754
861.123	20545
861.256	20670
861.388	20746
861.521	21176
861.653	20469
861.786	20545
861.918	20541
862.05	20427
862.183	20705
862.315	20594
862.447	20667
862.58	20560
862.712	20396
862.844	20355
862.976	20469
863.108	20412
863.24	20857
863.372	20396
863.504	20393
863.636	20362
863.768	20457
863.9	20446
864.032	20465
864.164	20450
864.296	20465
864.428	20473
864.559	20503
864.691	20571
864.823	20499
864.954	20412
865.086	20423
865.217	20374
865.349	20221
865.48	20381
865.612	20381
865.743	20313
865.875	20332
866.006	20370
866.137	20362
866.269	20298
866.4	20218
866.531	20229
866.662	20256
866.793	20202
866.924	20286
867.055	20267
867.186	20290
867.317	20172
867.448	20077
867.579	20301
867.71	20119
867.841	20187
867.972	20202
868.103	20298
868.233	20278
868.364	20233
868.495	20313
868.625	20362
868.756	20488
868.886	20393
869.017	20488
869.147	20526
869.278	20560
869.408	20408
869.539	20617
869.669	20492
869.799	20473
869.929	20609
870.06	20564
870.19	20830
870.32	20785
870.45	20811
870.58	20891
870.71	20994
870.84	21066
870.97	20853
871.1	20849
871.23	21043
871.36	21009
871.489	21036
871.619	20910
871.749	21047
871.879	21074
872.008	21279
872.138	21135
872.267	21051
872.397	20933
872.526	20925
872.656	20823
872.785	20918
872.915	20994
873.044	21184
873.173	21150
873.303	21222
873.432	21279
873.561	21192
873.69	21051
873.819	21184
873.948	21279
874.077	21096
874.206	21005
874.335	21157
874.464	21275
874.593	21302
874.722	21313
874.851	21408
874.979	21363
875.108	21477
875.237	21260
875.365	21218
875.494	21291
875.623	21389
875.751	21279
875.88	21389
876.008	21359
876.136	21561
876.265	21675
876.393	21846
876.521	21865
876.65	21793
876.778	21751
876.906	21724
877.034	21720
877.162	21656
877.29	21648
877.418	21709
877.546	21728
877.674	21660
877.802	21698
877.93	21663
878.058	21682
878.185	21504
878.313	21785
878.441	21720
878.568	21424
878.696	21675
878.824	21679
878.951	21755
879.079	21922
879.206	21949
879.333	21892
879.461	21728
879.588	21800
879.715	21922
879.842	21915
879.97	21736
880.097	21595
880.224	21663
880.351	21561
880.478	21538
880.605	21580
880.732	21473
880.859	21717
880.986	21564
881.112	21420
881.239	21450
881.366	21355
881.493	21146
881.619	21104
881.746	21218
881.872	21127
881.999	21032
882.125	20967
882.252	21138
882.378	21001
882.505	21062
882.631	20868
882.757	20811
882.883	20944
883.01	20876
883.136	20788
883.262	20716
883.388	20697
883.514	20811
883.64	20826
883.766	20678
883.892	20689
884.018	20575
884.143	20781
884.269	20918
884.395	20511
884.52	20438
884.646	20427
884.772	20324
884.897	20503
885.023	20526
885.148	20598
885.274	20705
885.399	20587
885.524	20503
885.65	20438
885.775	20541
885.9	20530
886.025	20533
886.15	20533
886.275	20438
886.4	20499
886.525	20465
886.65	20446
886.775	20404
886.9	20537
887.025	20602
887.149	20511
887.274	20286
887.399	20240
887.523	20202
887.648	20244
887.773	20176
887.897	20362
888.021	20423
888.146	20153
888.27	20298
888.395	20301
888.519	20252
888.643	20221
888.767	20248
888.891	20161
889.015	20024
889.139	20183
889.263	20069
889.387	20069
889.511	20275
889.635	20149
889.759	20092
889.883	20107
890.006	19974
890.13	20157
890.254	19989
890.377	19871
890.501	19913
890.624	19788
890.748	19814
890.871	19742
890.995	19635
891.118	19540
891.241	19571
891.364	19651
891.488	19765
891.611	19567
891.734	19685
891.857	19727
891.98	19693
892.103	19506
892.226	19582
892.349	19647
892.471	19358
892.594	19521
892.717	19613
892.839	19476
892.962	19597
893.085	19628
893.207	19483
893.33	19457
893.452	19438
893.575	19590
893.697	19502
893.819	19742
893.941	19662
894.064	19753
894.186	19483
894.308	19426
894.43	19548
894.552	19704
894.674	19632
894.796	19415
894.918	19514
895.04	19521
895.161	19658
895.283	19529
895.405	19381
895.526	19483
895.648	19567
895.769	19651
895.891	19590
896.012	19734
896.134	19601
896.255	19616
896.376	19552
896.498	19491
896.619	19613
896.74	19643
896.861	19518
896.982	19913
897.103	19989
897.224	19852
897.345	19753
897.466	19624
897.587	19864
897.708	19936
897.828	19837
897.949	19769
898.07	19582
898.19	19708
898.311	19921
898.431	19624
898.552	19738
898.672	19761
898.792	19795
898.913	19913
899.033	19601
899.153	19578
899.273	19362
899.393	19506
899.513	19514
899.633	19544
899.753	19578
899.873	19350
899.993	19464
900.113	19457
900.232	19533
900.352	19502
900.472	19373
900.591	19297
900.711	19327
900.83	19240
900.95	19453
901.069	19350
901.189	19095
901.308	18996
901.427	18863
901.546	18897
901.665	18943
901.784	18901
901.904	18867
902.023	18700
902.141	18540
902.26	18467
902.379	18486
902.498	18426
902.617	18357
902.735	18418
902.854	18551
902.973	18311
903.091	18171
903.21	18110
903.328	18102
903.446	18022
903.565	17942
903.683	17969
903.801	17798
903.919	17946
904.038	17866
904.156	17771
904.274	17676
904.392	17657
904.51	17695
904.627	17691
904.745	17817
904.863	17714
904.981	17455
905.098	17368
905.216	17395
905.334	17368
905.451	17376
905.569	17326
905.686	17356
905.803	17330
905.921	17197
906.038	17330
906.155	17159
906.272	16999
906.389	17140
906.506	16984
906.623	16930
906.74	16957
906.857	16752
906.974	16885
907.091	16972
907.208	16961
907.324	16934
907.441	16706
907.557	16710
907.674	16721
907.79	16611
907.907	16550
908.023	16691
908.139	16717
908.256	16531
908.372	16470
908.488	16443
908.604	16440
908.72	16303
908.836	16299
908.952	16360
909.068	16360
909.184	16474
909.3	16390
909.415	16341
909.531	16379
909.647	16154
909.762	16036
909.878	16006
909.993	16055
910.108	15953
910.224	15915
910.339	15987
910.454	16010
910.57	15865
910.685	15812
910.8	16078
910.915	16040
911.03	15934
911.145	15732
911.259	15686
911.374	15736
911.489	15599
911.604	15637
911.718	15481
911.833	15412
911.947	15355
912.062	15291
912.176	15549
912.291	15504
912.405	15466
912.519	15629
912.633	15660
912.748	15492
912.862	15310
912.976	15222
913.09	15070
913.204	15127
913.318	15306
913.431	15382
913.545	15321
913.659	15252
913.772	15203
913.886	15028
914	15093
914.113	15161
914.226	15157
914.34	15097
914.453	14918
914.566	15089
914.68	14853
914.793	14956
914.906	14720
915.019	14712
915.132	14632
915.245	14579
915.358	14659
915.47	14655
915.583	14648
915.696	14636
915.809	14765
915.921	14765
916.034	14621
916.146	14579
916.259	14530
916.371	14636
916.483	14670
916.595	14438
916.708	14518
916.82	14541
916.932	14526
917.044	14396
917.156	14336
917.268	14343
917.38	14320
917.491	14309
917.603	14298
917.715	14480
917.826	14438
917.938	14263
918.049	14149
918.161	14263
918.272	14434
918.384	14317
918.495	14229
918.606	14164
918.717	14012
918.828	14138
918.939	14153
919.05	14073
919.161	14077
919.272	13807
919.383	13967
919.494	14088
919.604	14278
919.715	14123
919.826	13986
919.936	14039
920.047	14111
920.157	14001
920.267	14263
920.378	14073
920.488	14058
920.598	14073
920.708	14412
920.818	14210
920.928	14149
921.038	14370
921.148	14431
921.258	13993
921.368	13959
921.477	13906
921.587	13887
921.697	13685
921.806	13788
921.916	13731
922.025	13521
922.134	13601
922.244	13495
922.353	13476
922.462	13343
922.571	13381
922.68	13183
922.789	13133
922.898	13069
923.007	13095
923.116	13133
923.224	13145
923.333	13065
923.442	12977
923.55	12981
923.659	12886
923.767	12920
923.876	12943
923.984	13042
924.092	12863
924.201	12863
924.309	12928
924.417	12916
924.525	12821
924.633	12787
924.741	13807
924.849	12585
924.956	12753
925.064	12616
925.172	12486
925.279	12559
925.387	12490
925.494	12475
925.602	12684
925.709	12582
925.816	12464
925.924	12471
926.031	12532
926.138	12532
926.245	12486
926.352	12388
926.459	12547
926.566	12574
926.673	12494
926.779	12372
926.886	12270
926.993	12209
927.099	12155
927.206	12114
927.312	12041
927.419	12175
927.525	12213
927.631	12098
927.737	12022
927.843	11973
927.95	11859
928.056	11984
928.162	11882
928.267	12129
928.373	12639
928.479	12091
928.585	11821
928.69	11889
928.796	11961
928.901	11866
929.007	11729
929.112	11828
929.218	11726
929.323	11714
929.428	11748
929.533	11851
929.638	11596
929.743	11764
929.848	11783
929.953	11661
930.058	11509
930.163	11379
930.267	11425
930.372	11539
930.477	11322
930.581	11573
930.685	11425
930.79	11303
930.894	11326
930.998	11223
931.103	11383
931.207	11094
931.311	10957
931.415	10927
931.519	10801
931.623	10698
