Data from test_V78500241_594.txt Node
Date: Fri Mar 25 15:13:59 CST 2022
User: usil
Spectrometer: V785-0024
Trigger mode: 0
Integration Time (sec): 4.000000E-1
Scans to average: 1
Nonlinearity correction enabled: false
Boxcar width: 0
Storing dark spectrum: false
XAxis mode: Wavelengths
Number of Pixels in Spectrum: 1024
>>>>>Begin Spectral Data<<<<<
801.071	27340
801.214	27291
801.356	27161
801.499	27116
801.641	27131
801.783	26963
801.926	26990
802.068	26960
802.211	26739
802.353	26724
802.496	26499
802.638	26636
802.78	26674
802.923	26541
803.065	26530
803.208	26492
803.35	26678
803.492	26765
803.635	26697
803.777	26598
803.919	26739
804.061	27043
804.204	26830
804.346	26731
804.488	26640
804.63	26845
804.773	26571
804.915	26769
805.057	26921
805.199	26796
805.341	26777
805.483	26960
805.626	26861
805.768	26724
805.91	26883
806.052	26750
806.194	26777
806.336	27074
806.478	26861
806.62	26769
806.762	26998
806.904	27112
807.046	27321
807.188	27340
807.33	27340
807.472	27275
807.614	27214
807.756	27249
807.898	27119
808.04	27184
808.182	27176
808.324	27161
808.465	26986
808.607	27207
808.749	27469
808.891	27435
809.033	27637
809.174	27504
809.316	27488
809.458	27469
809.6	27534
809.741	27572
809.883	27625
810.025	27618
810.166	27736
810.308	27637
810.45	27789
810.591	27694
810.733	27393
810.875	27462
811.016	27332
811.158	27412
811.299	27557
811.441	27637
811.582	27629
811.724	27405
811.865	27405
812.007	27469
812.148	27488
812.29	27435
812.431	27549
812.573	27876
812.714	27770
812.855	27998
812.997	28036
813.138	28249
813.279	28230
813.421	28154
813.562	28147
813.703	27793
813.845	27671
813.986	27454
814.127	27260
814.268	26994
814.41	27207
814.551	27135
814.692	27176
814.833	27108
814.974	27237
815.115	27043
815.256	27055
815.397	27074
815.539	27214
815.68	27055
815.821	26880
815.962	26895
816.103	26994
816.244	26765
816.385	26682
816.526	26632
816.666	26507
816.807	26336
816.948	26492
817.089	26560
817.23	26518
817.371	26347
817.512	26438
817.653	26393
817.793	26355
817.934	26473
818.075	26511
818.216	26408
818.356	26294
818.497	26370
818.638	26252
818.778	26065
818.919	26256
819.06	26221
819.2	26290
819.341	26358
819.481	26473
819.622	26575
819.762	26823
819.903	26678
820.043	26644
820.184	26625
820.324	26511
820.465	26716
820.605	26625
820.746	26522
820.886	26465
821.026	26480
821.167	26537
821.307	26617
821.447	26499
821.588	26434
821.728	26191
821.868	26016
822.008	26008
822.149	25902
822.289	25849
822.429	25685
822.569	25647
822.709	25704
822.849	25422
822.99	25362
823.13	25335
823.27	25289
823.41	25244
823.55	25145
823.69	25331
823.83	25198
823.97	25240
824.11	25050
824.25	25129
824.389	25000
824.529	25099
824.669	25129
824.809	25053
824.949	25206
825.089	25133
825.228	25091
825.368	24970
825.508	24920
825.648	24943
825.787	24909
825.927	24920
826.067	24856
826.206	24871
826.346	25034
826.485	24772
826.625	24924
826.765	24992
826.904	25000
827.044	24719
827.183	24745
827.323	24551
827.462	24669
827.601	24635
827.741	24483
827.88	24692
828.02	24570
828.159	24696
828.298	24700
828.437	24692
828.577	24532
828.716	24601
828.855	24490
828.994	24365
829.134	24338
829.273	24346
829.412	24330
829.551	24186
829.69	24353
829.829	24350
829.968	24437
830.107	24327
830.246	24388
830.385	24327
830.524	24133
830.663	24167
830.802	24026
830.941	24003
831.08	23996
831.219	24076
831.357	23984
831.496	24174
831.635	23961
831.774	23783
831.913	23866
832.051	23722
832.19	23893
832.329	23665
832.467	23604
832.606	23516
832.744	23741
832.883	23619
833.022	23543
833.16	23665
833.299	23718
833.437	23699
833.576	23665
833.714	23668
833.852	23570
833.991	23741
834.129	23642
834.267	23821
834.406	23722
834.544	23573
834.682	23707
834.821	23665
834.959	23878
835.097	23630
835.235	23577
835.373	23604
835.511	23661
835.65	23600
835.788	23516
835.926	23474
836.064	23269
836.202	23311
836.34	23497
836.478	23604
836.615	23467
836.753	23520
836.891	23649
837.029	23539
837.167	23562
837.305	23364
837.443	23490
837.58	23402
837.718	23341
837.856	23421
837.993	23372
838.131	23349
838.269	23242
838.406	23181
838.544	23212
838.681	23006
838.819	22858
838.956	22965
839.094	22812
839.231	22885
839.369	23075
839.506	23269
839.643	23098
839.781	22873
839.918	22816
840.055	22866
840.193	22733
840.33	22668
840.467	22759
840.604	22839
840.742	23121
840.879	22645
841.016	22649
841.153	22626
841.29	22896
841.427	22908
841.564	22740
841.701	22721
841.838	22847
841.975	22577
842.112	22717
842.249	22432
842.385	22611
842.522	22771
842.659	22554
842.796	22459
842.933	22474
843.069	22295
843.206	22386
843.343	22679
843.479	22516
843.616	22489
843.752	22310
843.889	22363
844.025	22398
844.162	22188
844.298	22417
844.435	22436
844.571	22166
844.708	22363
844.844	22394
844.98	22459
845.117	22413
845.253	22192
845.389	22242
845.525	22150
845.661	22093
845.798	21972
845.934	22055
846.07	21972
846.206	21991
846.342	22128
846.478	22124
846.614	21759
846.75	21724
846.886	21739
847.022	21701
847.158	21759
847.294	21793
847.429	21739
847.565	21827
847.701	21949
847.837	21542
847.972	21614
848.108	21515
848.244	21591
848.379	21386
848.515	21348
848.65	21321
848.786	21447
848.921	21450
849.057	21561
849.192	21424
849.328	21454
849.463	21363
849.598	21340
849.734	21268
849.869	21306
850.004	21195
850.14	21150
850.275	21116
850.41	21096
850.545	21203
850.68	21013
850.815	21100
850.95	21142
851.085	21325
851.22	21203
851.355	21157
851.49	21131
851.625	21180
851.76	21112
851.895	21119
852.03	20982
852.165	21138
852.299	21104
852.434	21226
852.569	21146
852.703	21146
852.838	21256
852.973	21424
853.107	21188
853.242	21138
853.376	21032
853.511	20876
853.645	20921
853.78	21150
853.914	21017
854.048	21020
854.183	21013
854.317	21058
854.451	21123
854.585	20975
854.72	20883
854.854	21077
854.988	20899
855.122	20975
855.256	20853
855.39	20929
855.524	21036
855.658	21013
855.792	20921
855.926	21108
856.06	21074
856.194	20986
856.327	20921
856.461	20819
856.595	20933
856.729	20963
856.862	21127
856.996	21043
857.13	21047
857.263	21131
857.397	21089
857.53	20941
857.664	20979
857.797	21165
857.931	21055
858.064	20998
858.197	21154
858.331	20998
858.464	20872
858.597	20853
858.731	20842
858.864	20956
858.997	20910
859.13	20994
859.263	21058
859.396	21009
859.529	20998
859.662	20872
859.795	20849
859.928	21039
860.061	21123
860.194	21074
860.327	21005
860.46	20937
860.592	21028
860.725	21100
860.858	21089
860.99	20891
861.123	20883
861.256	21009
861.388	20826
861.521	21816
861.653	20724
861.786	20895
861.918	20788
862.05	20868
862.183	20773
862.315	20861
862.447	20967
862.58	20823
862.712	20670
862.844	20625
862.976	20804
863.108	20739
863.24	21138
863.372	20613
863.504	20701
863.636	20659
863.768	20651
863.9	20678
864.032	20571
864.164	20629
864.296	20811
864.428	20834
864.559	20754
864.691	20758
864.823	20667
864.954	20552
865.086	20678
865.217	20583
865.349	20480
865.48	20526
865.612	20587
865.743	20693
865.875	20632
866.006	20590
866.137	20564
866.269	20587
866.4	20488
866.531	20530
866.662	20457
866.793	20514
866.924	20613
867.055	20625
867.186	20648
867.317	20427
867.448	20434
867.579	20457
867.71	20339
867.841	20446
867.972	20560
868.103	20434
868.233	20514
868.364	20693
868.495	20499
868.625	20765
868.756	20804
868.886	20674
869.017	20754
869.147	20796
869.278	20868
869.408	20727
869.539	20773
869.669	20861
869.799	20765
869.929	20910
870.06	20853
870.19	20975
870.32	21039
870.45	21100
870.58	21207
870.71	21256
870.84	21237
870.97	21070
871.1	21112
871.23	21355
871.36	21344
871.489	21260
871.619	21325
871.749	21363
871.879	21458
872.008	21435
872.138	21348
872.267	21348
872.397	21310
872.526	21195
872.656	21180
872.785	21100
872.915	21393
873.044	21340
873.173	21397
873.303	21348
873.432	21408
873.561	21485
873.69	21542
873.819	21374
873.948	21359
874.077	21291
874.206	21310
874.335	21412
874.464	21321
874.593	21671
874.722	21496
874.851	21694
874.979	21660
875.108	21629
875.237	21618
875.365	21553
875.494	21701
875.623	21660
875.751	21481
875.88	21652
876.008	21732
876.136	21736
876.265	22055
876.393	22082
876.521	22090
876.65	22067
876.778	22070
876.906	22051
877.034	21926
877.162	21857
877.29	21907
877.418	21979
877.546	22021
877.674	22010
877.802	21945
877.93	21953
878.058	21873
878.185	21945
878.313	21793
878.441	21987
878.568	21774
878.696	22029
878.824	21808
878.951	22010
879.079	22226
879.206	22280
879.333	22040
879.461	21979
879.588	22128
879.715	22166
879.842	22333
879.97	22025
880.097	21774
880.224	21709
880.351	21884
880.478	21755
880.605	21705
880.732	21724
880.859	22002
880.986	21789
881.112	21762
881.239	21682
881.366	21454
881.493	21431
881.619	21222
881.746	21382
881.872	21351
881.999	21401
882.125	21359
882.252	21340
882.378	21367
882.505	21279
882.631	21241
882.757	21161
882.883	21127
883.01	21062
883.136	21024
883.262	20830
883.388	20815
883.514	20937
883.64	21146
883.766	21055
883.892	20868
884.018	20781
884.143	21100
884.269	21070
884.395	20640
884.52	20762
884.646	20788
884.772	20823
884.897	20644
885.023	20712
885.148	20731
885.274	20712
885.399	20880
885.524	20845
885.65	20560
885.775	20758
885.9	20720
886.025	20716
886.15	20826
886.275	20636
886.4	20552
886.525	20762
886.65	20598
886.775	20537
886.9	20811
887.025	20967
887.149	20727
887.274	20549
887.399	20522
887.523	20549
887.648	20355
887.773	20320
887.897	20537
888.021	20461
888.146	20275
888.27	20590
888.395	20621
888.519	20499
888.643	20530
888.767	20537
888.891	20366
889.015	20225
889.139	20324
889.263	20199
889.387	20214
889.511	20404
889.635	20454
889.759	20294
889.883	20157
890.006	20225
890.13	20271
890.254	20077
890.377	20221
890.501	20157
890.624	19913
890.748	19993
890.871	19936
890.995	19852
891.118	19822
891.241	19944
891.364	19776
891.488	19913
891.611	19803
891.734	19894
891.857	19818
891.98	19814
892.103	19822
892.226	19830
892.349	19734
892.471	19689
892.594	19757
892.717	19814
892.839	19696
892.962	19765
893.085	19772
893.207	19776
893.33	19658
893.452	19685
893.575	19856
893.697	19757
893.819	19909
893.941	19871
894.064	19818
894.186	19795
894.308	19620
894.43	19776
894.552	19913
894.674	19837
894.796	19734
894.918	19811
895.04	19731
895.161	19845
895.283	19822
895.405	19613
895.526	19818
895.648	19822
895.769	19894
895.891	19761
896.012	19890
896.134	19841
896.255	19875
896.376	19712
896.498	19788
896.619	19852
896.74	19712
896.861	19818
896.982	20142
897.103	20210
897.224	19993
897.345	20035
897.466	19894
897.587	19989
897.708	20149
897.828	20016
897.949	19841
898.07	19818
898.19	20039
898.311	19925
898.431	19974
898.552	20039
898.672	20054
898.792	20046
898.913	19955
899.033	19807
899.153	19761
899.273	19647
899.393	19681
899.513	19704
899.633	19795
899.753	19715
899.873	19670
899.993	19746
900.113	19670
900.232	19708
900.352	19651
900.472	19601
900.591	19491
900.711	19540
900.83	19537
900.95	19674
901.069	19643
901.189	19453
901.308	19206
901.427	19152
901.546	19152
901.665	19244
901.784	19114
901.904	18932
902.023	18848
902.141	18738
902.26	18639
902.379	18646
902.498	18623
902.617	18658
902.735	18646
902.854	18513
902.973	18589
903.091	18292
903.21	18247
903.328	18243
903.446	18205
903.565	18114
903.683	18098
903.801	17996
903.919	18049
904.038	18102
904.156	17866
904.274	17897
904.392	17870
904.51	17866
904.627	17923
904.745	17897
904.863	17942
904.981	17676
905.098	17493
905.216	17524
905.334	17528
905.451	17570
905.569	17486
905.686	17570
905.803	17589
905.921	17387
906.038	17497
906.155	17440
906.272	17303
906.389	17330
906.506	17033
906.623	17117
906.74	17094
906.857	16987
906.974	17033
907.091	17223
907.208	17227
907.324	17162
907.441	16919
907.557	16831
907.674	16805
907.79	16774
907.907	16725
908.023	16831
908.139	16820
908.256	16805
908.372	16698
908.488	16713
908.604	16641
908.72	16443
908.836	16569
908.952	16508
909.068	16516
909.184	16618
909.3	16592
909.415	16485
909.531	16630
909.647	16226
909.762	16215
909.878	16268
909.993	16272
910.108	16219
910.224	16287
910.339	16192
910.454	16120
910.57	16150
910.685	16051
910.8	16344
910.915	16261
911.03	16006
911.145	15937
911.259	15941
911.374	15838
911.489	15808
911.604	15747
911.718	15644
911.833	15614
911.947	15511
912.062	15481
912.176	15561
912.291	15656
912.405	15572
912.519	15732
912.633	15637
912.748	15603
912.862	15519
912.976	15447
913.09	15310
913.204	15401
913.318	15389
913.431	15477
913.545	15416
913.659	15576
913.772	15348
913.886	15389
914	15161
914.113	15298
914.226	15279
914.34	15332
914.453	15169
914.566	15252
914.68	15093
914.793	15017
914.906	14906
915.019	14960
915.132	14853
915.245	14781
915.358	14826
915.47	14765
915.583	14815
915.696	14876
915.809	14956
915.921	14990
916.034	14838
916.146	14731
916.259	14788
916.371	14754
916.483	14750
916.595	14640
916.708	14655
916.82	14644
916.932	14651
917.044	14663
917.156	14549
917.268	14355
917.38	14549
917.491	14465
917.603	14541
917.715	14556
917.826	14537
917.938	14446
918.049	14313
918.161	14415
918.272	14610
918.384	14549
918.495	14427
918.606	14370
918.717	14142
918.828	14336
918.939	14282
919.05	14172
919.161	14180
919.272	14145
919.383	14103
919.494	14301
919.604	14571
919.715	14286
919.826	14237
919.936	14218
920.047	14355
920.157	14282
920.267	14465
920.378	14218
920.488	14229
920.598	14427
920.708	14480
920.818	14324
920.928	14343
921.038	14507
921.148	14518
921.258	14199
921.368	14111
921.477	14035
921.587	14062
921.697	13818
921.806	14043
921.916	13841
922.025	13719
922.134	13700
922.244	13597
922.353	13544
922.462	13559
922.571	13510
922.68	13278
922.789	13225
922.898	13335
923.007	13156
923.116	13308
923.224	13187
923.333	13247
923.442	13118
923.55	13110
923.659	13122
923.767	13156
923.876	13053
923.984	13171
924.092	13095
924.201	13031
924.309	13088
924.417	12981
924.525	12932
924.633	12875
924.741	13693
924.849	12745
924.956	12943
925.064	12802
925.172	12669
925.279	12764
925.387	12764
925.494	12749
925.602	12867
925.709	12817
925.816	12639
925.924	12700
926.031	12677
926.138	12665
926.245	12684
926.352	12578
926.459	12696
926.566	12719
926.673	12547
926.779	12399
926.886	12445
926.993	12334
927.099	12334
927.206	12194
927.312	12228
927.419	12338
927.525	12300
927.631	12330
927.737	12117
927.843	12091
927.95	12152
928.056	12068
928.162	12114
928.267	12159
928.373	12776
928.479	12163
928.585	11950
928.69	12102
928.796	12148
928.901	12030
929.007	11813
929.112	11980
929.218	12011
929.323	11866
929.428	11843
929.533	11969
929.638	11813
929.743	11794
929.848	11783
929.953	11805
930.058	11722
930.163	11505
930.267	11543
930.372	11729
930.477	11501
930.581	11775
930.685	11630
930.79	11368
930.894	11474
930.998	11379
931.103	11558
931.207	11204
931.311	11052
931.415	10984
931.519	10801
931.623	10774
