Data from test_V78500241_3099.txt Node
Date: Fri Mar 25 15:31:26 CST 2022
User: usil
Spectrometer: V785-0024
Trigger mode: 0
Integration Time (sec): 4.000000E-1
Scans to average: 1
Nonlinearity correction enabled: false
Boxcar width: 0
Storing dark spectrum: false
XAxis mode: Wavelengths
Number of Pixels in Spectrum: 1024
>>>>>Begin Spectral Data<<<<<
801.071	26408
801.214	26358
801.356	26221
801.499	26183
801.641	26081
801.783	26001
801.926	25951
802.068	26069
802.211	25925
802.353	25959
802.496	25715
802.638	25639
802.78	25613
802.923	25468
803.065	25415
803.208	25422
803.35	25571
803.492	25723
803.635	25791
803.777	25723
803.919	25814
804.061	26096
804.204	25674
804.346	25616
804.488	25677
804.63	25632
804.773	25556
804.915	25693
805.057	25788
805.199	25723
805.341	25780
805.483	25826
805.626	25826
805.768	25772
805.91	25727
806.052	25772
806.194	25750
806.336	25890
806.478	25689
806.62	25651
806.762	25757
806.904	26142
807.046	26267
807.188	26176
807.33	26263
807.472	26187
807.614	26122
807.756	26149
807.898	26096
808.04	25856
808.182	25860
808.324	25951
808.465	26100
808.607	26355
808.749	26385
808.891	26469
809.033	26617
809.174	26419
809.316	26343
809.458	26301
809.6	26271
809.741	26663
809.883	26457
810.025	26442
810.166	26632
810.308	26636
810.45	26640
810.591	26415
810.733	26442
810.875	26309
811.016	26313
811.158	26195
811.299	26423
811.441	26423
811.582	26545
811.724	26339
811.865	26195
812.007	26263
812.148	26244
812.29	26324
812.431	26370
812.573	26648
812.714	26511
812.855	26861
812.997	27020
813.138	27039
813.279	27028
813.421	26872
813.562	26724
813.703	26606
813.845	26453
813.986	26145
814.127	26031
814.268	26012
814.41	25970
814.551	25963
814.692	25928
814.833	25871
814.974	25936
815.115	25852
815.256	25746
815.397	25723
815.539	25875
815.68	25719
815.821	25620
815.962	25704
816.103	25563
816.244	25529
816.385	25613
816.526	25392
816.666	25350
816.807	25160
816.948	25316
817.089	25324
817.23	25312
817.371	25034
817.512	25175
817.653	25160
817.793	25171
817.934	25217
818.075	25198
818.216	25152
818.356	25095
818.497	25118
818.638	25012
818.778	24798
818.919	25000
819.06	25023
819.2	25076
819.341	25213
819.481	25164
819.622	25263
819.762	25479
819.903	25350
820.043	25282
820.184	25301
820.324	25301
820.465	25312
820.605	25202
820.746	25095
820.886	25012
821.026	25141
821.167	25278
821.307	25221
821.447	25107
821.588	25103
821.728	24806
821.868	24711
822.008	24570
822.149	24574
822.289	24551
822.429	24429
822.569	24281
822.709	24273
822.849	24182
822.99	24182
823.13	24041
823.27	24041
823.41	23996
823.55	23786
823.69	23984
823.83	23874
823.97	23889
824.11	23672
824.25	23722
824.389	23726
824.529	23878
824.669	23665
824.809	23828
824.949	23821
825.089	23813
825.228	23653
825.368	23611
825.508	23592
825.648	23573
825.787	23604
825.927	23615
826.067	23558
826.206	23649
826.346	23623
826.485	23551
826.625	23528
826.765	23649
826.904	23611
827.044	23383
827.183	23345
827.323	23223
827.462	23433
827.601	23311
827.741	23299
827.88	23360
828.02	23128
828.159	23334
828.298	23353
828.437	23356
828.577	23170
828.716	23391
828.855	23117
828.994	22953
829.134	23018
829.273	23010
829.412	23132
829.551	23064
829.69	22927
829.829	22873
829.968	23094
830.107	23117
830.246	23060
830.385	22999
830.524	22995
830.663	22892
830.802	22793
830.941	22660
831.08	22577
831.219	22744
831.357	22736
831.496	22755
831.635	22641
831.774	22535
831.913	22428
832.051	22523
832.19	22325
832.329	22428
832.467	22310
832.606	22185
832.744	22291
832.883	22371
833.022	22192
833.16	22310
833.299	22337
833.437	22207
833.576	22341
833.714	22325
833.852	22356
833.991	22352
834.129	22371
834.267	22436
834.406	22211
834.544	22413
834.682	22451
834.821	22329
834.959	22440
835.097	22310
835.235	22424
835.373	22333
835.511	22303
835.65	22181
835.788	22253
835.926	22006
836.064	21998
836.202	22082
836.34	22234
836.478	22246
836.615	22150
836.753	22154
836.891	22234
837.029	22204
837.167	22200
837.305	22112
837.443	21975
837.58	22051
837.718	22169
837.856	22074
837.993	21953
838.131	22051
838.269	21945
838.406	21949
838.544	21789
838.681	21667
838.819	21671
838.956	21469
839.094	21553
839.231	21561
839.369	21667
839.506	21915
839.643	21736
839.781	21614
839.918	21488
840.055	21526
840.193	21542
840.33	21386
840.467	21545
840.604	21561
840.742	21778
840.879	21454
841.016	21405
841.153	21378
841.29	21530
841.427	21466
841.564	21485
841.701	21496
841.838	21523
841.975	21260
842.112	21428
842.249	21256
842.385	21199
842.522	21420
842.659	21268
842.796	21298
842.933	21386
843.069	21207
843.206	21214
843.343	21317
843.479	21367
843.616	21173
843.752	20994
843.889	21017
844.025	21226
844.162	20937
844.298	21154
844.435	20960
844.571	20956
844.708	21005
844.844	21207
844.98	21150
845.117	21119
845.253	20887
845.389	20758
845.525	20842
845.661	20975
845.798	20777
845.934	20731
846.07	20590
846.206	20918
846.342	20842
846.478	20640
846.614	20663
846.75	20495
846.886	20579
847.022	20686
847.158	20461
847.294	20507
847.429	20511
847.565	20522
847.701	20712
847.837	20214
847.972	20153
848.108	20431
848.244	20263
848.379	20065
848.515	20069
848.65	20031
848.786	20069
848.921	20084
849.057	20138
849.192	20107
849.328	20115
849.463	20240
849.598	20050
849.734	19989
849.869	19974
850.004	19917
850.14	19887
850.275	19852
850.41	19826
850.545	19830
850.68	19879
850.815	19951
850.95	19917
851.085	19974
851.22	20027
851.355	19909
851.49	19822
851.625	19864
851.76	19788
851.895	19719
852.03	19753
852.165	19864
852.299	19921
852.434	19970
852.569	19883
852.703	19791
852.838	19940
852.973	19997
853.107	19894
853.242	19780
853.376	19658
853.511	19552
853.645	19658
853.78	19837
853.914	19769
854.048	19647
854.183	19609
854.317	19799
854.451	19837
854.585	19544
854.72	19685
854.854	19708
854.988	19666
855.122	19761
855.256	19499
855.39	19689
855.524	19822
855.658	19780
855.792	19738
855.926	19723
856.06	19704
856.194	19757
856.327	19708
856.461	19620
856.595	19708
856.729	19670
856.862	19708
856.996	19780
857.13	19780
857.263	19860
857.397	19871
857.53	19746
857.664	19731
857.797	19723
857.931	19708
858.064	19700
858.197	19833
858.331	19628
858.464	19670
858.597	19613
858.731	19578
858.864	19670
858.997	19647
859.13	19761
859.263	19761
859.396	19776
859.529	19620
859.662	19685
859.795	19571
859.928	19613
860.061	19887
860.194	19883
860.327	19898
860.46	19643
860.592	19769
860.725	19967
860.858	19795
860.99	19712
861.123	19578
861.256	19719
861.388	19700
861.521	20225
861.653	19464
861.786	19495
861.918	19483
862.05	19575
862.183	19544
862.315	19594
862.447	19723
862.58	19609
862.712	19415
862.844	19346
862.976	19521
863.108	19597
863.24	19746
863.372	19407
863.504	19441
863.636	19430
863.768	19491
863.9	19419
864.032	19434
864.164	19392
864.296	19441
864.428	19609
864.559	19510
864.691	19548
864.823	19495
864.954	19343
865.086	19434
865.217	19362
865.349	19282
865.48	19278
865.612	19327
865.743	19457
865.875	19365
866.006	19270
866.137	19289
866.269	19240
866.4	19343
866.531	19126
866.662	19335
866.793	19358
866.924	19225
867.055	19324
867.186	19384
867.317	19308
867.448	19198
867.579	19327
867.71	19206
867.841	19122
867.972	19240
868.103	19225
868.233	19320
868.364	19270
868.495	19369
868.625	19502
868.756	19499
868.886	19453
869.017	19552
869.147	19715
869.278	19647
869.408	19632
869.539	19506
869.669	19643
869.799	19537
869.929	19635
870.06	19613
870.19	19883
870.32	19913
870.45	19917
870.58	19913
870.71	20046
870.84	19936
870.97	19894
871.1	19868
871.23	20145
871.36	20107
871.489	20069
871.619	20054
871.749	20145
871.879	20202
872.008	20259
872.138	20183
872.267	20100
872.397	19959
872.526	19967
872.656	20016
872.785	19879
872.915	20103
873.044	20290
873.173	20229
873.303	20142
873.432	20214
873.561	20244
873.69	20138
873.819	20187
873.948	20161
874.077	20153
874.206	20145
874.335	20054
874.464	20248
874.593	20355
874.722	20408
874.851	20545
874.979	20465
875.108	20503
875.237	20336
875.365	20343
875.494	20389
875.623	20438
875.751	20385
875.88	20454
876.008	20549
876.136	20640
876.265	20842
876.393	20933
876.521	20921
876.65	20914
876.778	20804
876.906	20648
877.034	20739
877.162	20769
877.29	20667
877.418	20750
877.546	20746
877.674	20765
877.802	20720
877.93	20655
878.058	20682
878.185	20674
878.313	20670
878.441	20838
878.568	20678
878.696	20693
878.824	20758
878.951	20826
879.079	20910
879.206	21112
879.333	20899
879.461	20762
879.588	20861
879.715	21001
879.842	20956
879.97	20880
880.097	20754
880.224	20686
880.351	20667
880.478	20697
880.605	20632
880.732	20617
880.859	20838
880.986	20712
881.112	20644
881.239	20427
881.366	20286
881.493	20351
881.619	20172
881.746	20240
881.872	20138
881.999	20107
882.125	20111
882.252	20259
882.378	20237
882.505	20362
882.631	20164
882.757	19917
882.883	19940
883.01	19986
883.136	19936
883.262	19776
883.388	19681
883.514	19940
883.64	19993
883.766	19887
883.892	19647
884.018	19696
884.143	19887
884.269	20024
884.395	19548
884.52	19601
884.646	19537
884.772	19594
884.897	19468
885.023	19559
885.148	19696
885.274	19628
885.399	19875
885.524	19556
885.65	19559
885.775	19548
885.9	19601
886.025	19567
886.15	19548
886.275	19499
886.4	19445
886.525	19468
886.65	19559
886.775	19556
886.9	19776
887.025	19746
887.149	19419
887.274	19445
887.399	19388
887.523	19400
887.648	19244
887.773	19225
887.897	19426
888.021	19369
888.146	19289
888.27	19487
888.395	19453
888.519	19464
888.643	19453
888.767	19464
888.891	19247
889.015	19213
889.139	19206
889.263	19156
889.387	19282
889.511	19445
889.635	19247
889.759	19179
889.883	19107
890.006	19228
890.13	19312
890.254	18996
890.377	19050
890.501	18943
890.624	18897
890.748	19008
890.871	18852
890.995	18673
891.118	18703
891.241	18787
891.364	18806
891.488	18821
891.611	18829
891.734	18757
891.857	18859
891.98	18715
892.103	18916
892.226	18772
892.349	18817
892.471	18563
892.594	18692
892.717	18745
892.839	18642
892.962	18688
893.085	18821
893.207	18688
893.33	18582
893.452	18661
893.575	18764
893.697	18673
893.819	18878
893.941	18977
894.064	18814
894.186	18776
894.308	18700
894.43	18844
894.552	18821
894.674	18856
894.796	18547
894.918	18646
895.04	18673
895.161	18852
895.283	18791
895.405	18623
895.526	18760
895.648	18684
895.769	18738
895.891	18833
896.012	18741
896.134	18772
896.255	18654
896.376	18684
896.498	18703
896.619	18776
896.74	18738
896.861	18810
896.982	19046
897.103	19255
897.224	19038
897.345	18924
897.466	18844
897.587	18894
897.708	19122
897.828	18981
897.949	18825
898.07	18810
898.19	18939
898.311	19038
898.431	18951
898.552	18962
898.672	19095
898.792	19031
898.913	19057
899.033	18829
899.153	18810
899.273	18738
899.393	18726
899.513	18817
899.633	18806
899.753	18787
899.873	18768
899.993	18806
900.113	18639
900.232	18783
900.352	18719
900.472	18616
900.591	18486
900.711	18559
900.83	18544
900.95	18757
901.069	18642
901.189	18391
901.308	18213
901.427	18205
901.546	18136
901.665	18273
901.784	18155
901.904	18011
902.023	18045
902.141	17748
902.26	17718
902.379	17798
902.498	17748
902.617	17676
902.735	17805
902.854	17657
902.973	17630
903.091	17490
903.21	17402
903.328	17315
903.446	17368
903.565	17280
903.683	17181
903.801	17166
903.919	17151
904.038	17181
904.156	16976
904.274	17048
904.392	16927
904.51	16854
904.627	16938
904.745	17037
904.863	16995
904.981	16736
905.098	16622
905.216	16573
905.334	16645
905.451	16672
905.569	16634
905.686	16744
905.803	16653
905.921	16455
906.038	16538
906.155	16447
906.272	16363
906.389	16379
906.506	16257
906.623	16162
906.74	16071
906.857	16097
906.974	16105
907.091	16291
907.208	16284
907.324	16257
907.441	15934
907.557	15975
907.674	15907
907.79	15816
907.907	15968
908.023	15945
908.139	15949
908.256	15842
908.372	15812
908.488	15701
908.604	15800
908.72	15568
908.836	15701
908.952	15564
909.068	15671
909.184	15739
909.3	15660
909.415	15705
909.531	15599
909.647	15397
909.762	15393
909.878	15355
909.993	15431
910.108	15359
910.224	15355
910.339	15321
910.454	15195
910.57	15226
910.685	15127
910.8	15355
910.915	15264
911.03	15108
911.145	14952
911.259	14929
911.374	14826
911.489	14872
911.604	14895
911.718	14686
911.833	14682
911.947	14773
912.062	14617
912.176	14754
912.291	14746
912.405	14773
912.519	14960
912.633	14929
912.748	14762
912.862	14697
912.976	14526
913.09	14473
913.204	14488
913.318	14587
913.431	14644
913.545	14644
913.659	14632
913.772	14549
913.886	14408
914	14404
914.113	14526
914.226	14488
914.34	14305
914.453	14286
914.566	14415
914.68	14324
914.793	14161
914.906	14065
915.019	13955
915.132	13959
915.245	13963
915.358	14054
915.47	14069
915.583	13925
915.696	14005
915.809	14088
915.921	14119
916.034	13913
916.146	13875
916.259	13868
916.371	14123
916.483	13932
916.595	13894
916.708	13890
916.82	13818
916.932	13837
917.044	13860
917.156	13883
917.268	13750
917.38	13753
917.491	13670
917.603	13784
917.715	13772
917.826	13814
917.938	13704
918.049	13472
918.161	13696
918.272	13822
918.384	13761
918.495	13662
918.606	13609
918.717	13495
918.828	13571
918.939	13529
919.05	13460
919.161	13400
919.272	13278
919.383	13320
919.494	13544
919.604	13628
919.715	13449
919.826	13377
919.936	13540
920.047	13597
920.157	13510
920.267	13670
920.378	13571
920.488	13373
920.598	13556
920.708	13868
920.818	13613
920.928	13559
921.038	13799
921.148	13738
921.258	13510
921.368	13381
921.477	13270
921.587	13346
921.697	13103
921.806	13297
921.916	13099
922.025	12897
922.134	12878
922.244	12825
922.353	12844
922.462	12757
922.571	12703
922.68	12559
922.789	12650
922.898	12601
923.007	12452
923.116	12486
923.224	12578
923.333	12509
923.442	12410
923.55	12414
923.659	12471
923.767	12460
923.876	12410
923.984	12479
924.092	12319
924.201	12350
924.309	12285
924.417	12346
924.525	12270
924.633	12270
924.741	13263
924.849	12095
924.956	12178
925.064	12068
925.172	11992
925.279	12083
925.387	12114
925.494	11939
925.602	12186
925.709	12030
925.816	11904
925.924	12079
926.031	12083
926.138	11965
926.245	12022
926.352	11893
926.459	12068
926.566	11996
926.673	11893
926.779	11809
926.886	11794
926.993	11691
927.099	11649
927.206	11623
927.312	11490
927.419	11623
927.525	11562
927.631	11699
927.737	11532
927.843	11505
927.95	11566
928.056	11471
928.162	11493
928.267	11467
928.373	12140
928.479	11573
928.585	11311
928.69	11463
928.796	11459
928.901	11353
929.007	11242
929.112	11299
929.218	11277
929.323	11250
929.428	11227
929.533	11387
929.638	11155
929.743	11261
929.848	11273
929.953	11143
930.058	11128
930.163	10980
930.267	10927
930.372	11071
930.477	10881
930.581	11083
930.685	10961
930.79	10908
930.894	10812
930.998	10767
931.103	10930
931.207	10577
931.311	10497
931.415	10466
931.519	10246
931.623	10230
