Data from test_V78500241_50.txt Node
Date: Fri Mar 25 15:10:12 CST 2022
User: usil
Spectrometer: V785-0024
Trigger mode: 0
Integration Time (sec): 4.000000E-1
Scans to average: 1
Nonlinearity correction enabled: false
Boxcar width: 0
Storing dark spectrum: false
XAxis mode: Wavelengths
Number of Pixels in Spectrum: 1024
>>>>>Begin Spectral Data<<<<<
801.071	28938
801.214	28797
801.356	28428
801.499	28489
801.641	28478
801.783	28306
801.926	28401
802.068	28173
802.211	28158
802.353	28192
802.496	28158
802.638	28074
802.78	27918
802.923	27987
803.065	27857
803.208	27960
803.35	27861
803.492	28025
803.635	27968
803.777	27945
803.919	28078
804.061	28386
804.204	28040
804.346	27873
804.488	27991
804.63	28036
804.773	28010
804.915	27998
805.057	28055
805.199	28021
805.341	28010
805.483	28067
805.626	28070
805.768	27972
805.91	28105
806.052	28082
806.194	27968
806.336	28234
806.478	28139
806.62	28051
806.762	28268
806.904	28192
807.046	28527
807.188	28443
807.33	28303
807.472	28573
807.614	28394
807.756	28512
807.898	28010
808.04	27994
808.182	28223
808.324	28253
808.465	28234
808.607	28367
808.749	28268
808.891	28592
809.033	28706
809.174	28687
809.316	28603
809.458	28508
809.6	28531
809.741	28588
809.883	28584
810.025	28820
810.166	28847
810.308	28706
810.45	28698
810.591	28664
810.733	28554
810.875	28386
811.016	28428
811.158	28466
811.299	28489
811.441	28436
811.582	28691
811.724	28341
811.865	28356
812.007	28405
812.148	28398
812.29	28485
812.431	28561
812.573	28763
812.714	28824
812.855	28961
812.997	29044
813.138	29079
813.279	29181
813.421	29048
813.562	28904
813.703	28672
813.845	28603
813.986	28421
814.127	28265
814.268	28116
814.41	28124
814.551	28021
814.692	28154
814.833	27994
814.974	28070
815.115	28051
815.256	27991
815.397	28036
815.539	27861
815.68	27850
815.821	27838
815.962	27701
816.103	27865
816.244	27622
816.385	27610
816.526	27603
816.666	27420
816.807	27214
816.948	27378
817.089	27332
817.23	27287
817.371	27218
817.512	27241
817.653	27161
817.793	27123
817.934	27195
818.075	27218
818.216	27188
818.356	27047
818.497	27070
818.638	26910
818.778	27017
818.919	26857
819.06	26994
819.2	26948
819.341	27233
819.481	26982
819.622	27260
819.762	27473
819.903	27283
820.043	27252
820.184	27089
820.324	27264
820.465	27199
820.605	27142
820.746	27127
820.886	27028
821.026	26937
821.167	27062
821.307	27184
821.447	27096
821.588	27043
821.728	26762
821.868	26716
822.008	26590
822.149	26587
822.289	26537
822.429	26142
822.569	26237
822.709	26138
822.849	26005
822.99	26077
823.13	25993
823.27	26039
823.41	25761
823.55	25712
823.69	25727
823.83	25780
823.97	25761
824.11	25658
824.25	25533
824.389	25582
824.529	25571
824.669	25559
824.809	25670
824.949	25613
825.089	25601
825.228	25529
825.368	25392
825.508	25472
825.648	25445
825.787	25327
825.927	25445
826.067	25343
826.206	25343
826.346	25297
826.485	25362
826.625	25293
826.765	25377
826.904	25377
827.044	25194
827.183	25061
827.323	25027
827.462	25057
827.601	25023
827.741	25019
827.88	25072
828.02	24951
828.159	25000
828.298	25042
828.437	25042
828.577	24970
828.716	25004
828.855	24875
828.994	24791
829.134	24684
829.273	24741
829.412	24726
829.551	24631
829.69	24601
829.829	24658
829.968	24631
830.107	24696
830.246	24593
830.385	24528
830.524	24441
830.663	24426
830.802	24224
830.941	24327
831.08	24228
831.219	24289
831.357	24258
831.496	24559
831.635	24289
831.774	24076
831.913	24098
832.051	24060
832.19	23923
832.329	23935
832.467	23817
832.606	23946
832.744	23851
832.883	23916
833.022	23718
833.16	23798
833.299	23863
833.437	23878
833.576	23927
833.714	23920
833.852	23942
833.991	23984
834.129	24060
834.267	23942
834.406	23802
834.544	23843
834.682	23802
834.821	23840
834.959	23897
835.097	23752
835.235	23878
835.373	23786
835.511	23824
835.65	23619
835.788	23699
835.926	23600
836.064	23417
836.202	23547
836.34	23562
836.478	23592
836.615	23699
836.753	23642
836.891	23756
837.029	23729
837.167	23596
837.305	23531
837.443	23524
837.58	23539
837.718	23668
837.856	23623
837.993	23376
838.131	23493
838.269	23376
838.406	23452
838.544	23181
838.681	23204
838.819	23083
838.956	22900
839.094	22862
839.231	23025
839.369	23044
839.506	23326
839.643	23162
839.781	22835
839.918	22729
840.055	22949
840.193	22866
840.33	22763
840.467	22801
840.604	22763
840.742	22976
840.879	22752
841.016	22660
841.153	22683
841.29	22949
841.427	22618
841.564	22748
841.701	22778
841.838	22615
841.975	22653
842.112	22577
842.249	22470
842.385	22504
842.522	22656
842.659	22542
842.796	22611
842.933	22565
843.069	22367
843.206	22451
843.343	22436
843.479	22390
843.616	22481
843.752	22329
843.889	22306
844.025	22367
844.162	22234
844.298	22363
844.435	22162
844.571	22154
844.708	22215
844.844	22249
844.98	22306
845.117	22226
845.253	22109
845.389	22010
845.525	22253
845.661	22067
845.798	21926
845.934	22055
846.07	21899
846.206	21987
846.342	22025
846.478	21816
846.614	21785
846.75	21736
846.886	21694
847.022	21641
847.158	21785
847.294	21637
847.429	21679
847.565	21675
847.701	21869
847.837	21401
847.972	21370
848.108	21279
848.244	21420
848.379	21195
848.515	21340
848.65	21214
848.786	21165
848.921	21252
849.057	21176
849.192	21336
849.328	21325
849.463	21154
849.598	21093
849.734	21017
849.869	20975
850.004	20998
850.14	20921
850.275	20895
850.41	20834
850.545	20910
850.68	20796
850.815	20975
850.95	20834
851.085	21089
851.22	20906
851.355	20902
851.49	21047
851.625	20758
851.76	20880
851.895	20807
852.03	20807
852.165	20800
852.299	20876
852.434	20956
852.569	20845
852.703	20845
852.838	21017
852.973	21001
853.107	21074
853.242	20838
853.376	20857
853.511	20640
853.645	20667
853.78	20815
853.914	20842
854.048	20594
854.183	20819
854.317	20842
854.451	20963
854.585	20765
854.72	20735
854.854	20785
854.988	20655
855.122	20720
855.256	20552
855.39	20678
855.524	20891
855.658	20746
855.792	20743
855.926	20811
856.06	20842
856.194	20807
856.327	20663
856.461	20655
856.595	20659
856.729	20678
856.862	20735
856.996	20602
857.13	20720
857.263	20716
857.397	20804
857.53	20609
857.664	20667
857.797	20686
857.931	20807
858.064	20632
858.197	20811
858.331	20575
858.464	20640
858.597	20564
858.731	20667
858.864	20636
858.997	20579
859.13	20613
859.263	20701
859.396	20636
859.529	20697
859.662	20667
859.795	20461
859.928	20663
860.061	20754
860.194	20762
860.327	20625
860.46	20701
860.592	20754
860.725	20796
860.858	20712
860.99	20545
861.123	20530
861.256	20590
861.388	20571
861.521	21180
861.653	20484
861.786	20457
861.918	20511
862.05	20552
862.183	20644
862.315	20632
862.447	20720
862.58	20750
862.712	20377
862.844	20317
862.976	20332
863.108	20408
863.24	20921
863.372	20347
863.504	20298
863.636	20301
863.768	20336
863.9	20298
864.032	20206
864.164	20199
864.296	20499
864.428	20461
864.559	20328
864.691	20374
864.823	20431
864.954	20244
865.086	20282
865.217	20256
865.349	20157
865.48	20271
865.612	20290
865.743	20309
865.875	20145
866.006	20183
866.137	20126
866.269	20233
866.4	20172
866.531	20122
866.662	20024
866.793	20161
866.924	20164
867.055	20130
867.186	20206
867.317	20096
867.448	20012
867.579	20069
867.71	20107
867.841	20054
867.972	20191
868.103	19967
868.233	20180
868.364	20084
868.495	20214
868.625	20320
868.756	20476
868.886	20237
869.017	20396
869.147	20499
869.278	20396
869.408	20476
869.539	20256
869.669	20488
869.799	20476
869.929	20480
870.06	20511
870.19	20686
870.32	20549
870.45	20689
870.58	20724
870.71	20906
870.84	20880
870.97	20598
871.1	20773
871.23	20902
871.36	20990
871.489	20720
871.619	20849
871.749	20899
871.879	21009
872.008	21062
872.138	21017
872.267	21096
872.397	20857
872.526	20724
872.656	20788
872.785	20785
872.915	20864
873.044	21009
873.173	21020
873.303	21051
873.432	21127
873.561	21180
873.69	20982
873.819	20921
873.948	20994
874.077	20971
874.206	20941
874.335	20929
874.464	21039
874.593	21199
874.722	21283
874.851	21233
874.979	21332
875.108	21279
875.237	21192
875.365	21222
875.494	21123
875.623	21230
875.751	21214
875.88	21184
876.008	21298
876.136	21542
876.265	21656
876.393	21682
876.521	21743
876.65	21686
876.778	21728
876.906	21648
877.034	21568
877.162	21587
877.29	21477
877.418	21572
877.546	21587
877.674	21557
877.802	21572
877.93	21481
878.058	21523
878.185	21435
878.313	21606
878.441	21481
878.568	21557
878.696	21545
878.824	21519
878.951	21648
879.079	21785
879.206	21819
879.333	21736
879.461	21625
879.588	21648
879.715	21728
879.842	21865
879.97	21542
880.097	21302
880.224	21302
880.351	21473
880.478	21439
880.605	21233
880.732	21420
880.859	21698
880.986	21348
881.112	21450
881.239	21199
881.366	21074
881.493	21104
881.619	21017
881.746	21062
881.872	20963
881.999	20880
882.125	20887
882.252	20956
882.378	21062
882.505	21180
882.631	20845
882.757	20819
882.883	20746
883.01	20693
883.136	20667
883.262	20705
883.388	20606
883.514	20743
883.64	20777
883.766	20674
883.892	20568
884.018	20511
884.143	20781
884.269	20804
884.395	20495
884.52	20393
884.646	20476
884.772	20298
884.897	20256
885.023	20351
885.148	20427
885.274	20682
885.399	20419
885.524	20434
885.65	20347
885.775	20351
885.9	20404
886.025	20499
886.15	20328
886.275	20233
886.4	20317
886.525	20275
886.65	20336
886.775	20237
886.9	20419
887.025	20564
887.149	20351
887.274	20073
887.399	20092
887.523	20115
887.648	20115
887.773	20031
887.897	20180
888.021	20096
888.146	20081
888.27	20130
888.395	20134
888.519	20103
888.643	20126
888.767	20180
888.891	20050
889.015	19940
889.139	19959
889.263	19826
889.387	20031
889.511	20153
889.635	20012
889.759	19803
889.883	19852
890.006	19890
890.13	20016
890.254	19902
890.377	19845
890.501	19662
890.624	19613
890.748	19559
890.871	19521
890.995	19521
891.118	19426
891.241	19460
891.364	19537
891.488	19510
891.611	19487
891.734	19483
891.857	19594
891.98	19483
892.103	19643
892.226	19533
892.349	19430
892.471	19240
892.594	19419
892.717	19586
892.839	19324
892.962	19495
893.085	19407
893.207	19407
893.33	19335
893.452	19331
893.575	19438
893.697	19476
893.819	19578
893.941	19677
894.064	19510
894.186	19335
894.308	19213
894.43	19434
894.552	19556
894.674	19419
894.796	19324
894.918	19445
895.04	19335
895.161	19468
895.283	19354
895.405	19350
895.526	19415
895.648	19308
895.769	19487
895.891	19426
896.012	19449
896.134	19483
896.255	19396
896.376	19316
896.498	19415
896.619	19495
896.74	19358
896.861	19480
896.982	19769
897.103	19917
897.224	19727
897.345	19784
897.466	19635
897.587	19742
897.708	19753
897.828	19708
897.949	19613
898.07	19548
898.19	19476
898.311	19734
898.431	19491
898.552	19605
898.672	19639
898.792	19723
898.913	19601
899.033	19430
899.153	19377
899.273	19168
899.393	19350
899.513	19335
899.633	19445
899.753	19373
899.873	19263
899.993	19327
900.113	19194
900.232	19327
900.352	19183
900.472	19217
900.591	19091
900.711	19164
900.83	19065
900.95	19308
901.069	19263
901.189	19099
901.308	18871
901.427	18802
901.546	18719
901.665	18715
901.784	18810
901.904	18673
902.023	18544
902.141	18433
902.26	18292
902.379	18407
902.498	18220
902.617	18190
902.735	18209
902.854	18201
902.973	18140
903.091	17954
903.21	17961
903.328	17874
903.446	17977
903.565	17680
903.683	17695
903.801	17665
903.919	17733
904.038	17752
904.156	17497
904.274	17668
904.392	17524
904.51	17486
904.627	17436
904.745	17539
904.863	17528
904.981	17265
905.098	17170
905.216	17246
905.334	17288
905.451	17166
905.569	17109
905.686	17124
905.803	17155
905.921	16957
906.038	17094
906.155	16976
906.272	16885
906.389	16930
906.506	16736
906.623	16774
906.74	16835
906.857	16554
906.974	16653
907.091	16702
907.208	16774
907.324	16687
907.441	16580
907.557	16455
907.674	16443
907.79	16280
907.907	16299
908.023	16417
908.139	16493
908.256	16287
908.372	16344
908.488	16238
908.604	16147
908.72	16029
908.836	16131
908.952	16040
909.068	16120
909.184	16207
909.3	16071
909.415	16063
909.531	15991
909.647	15911
909.762	15717
909.878	15713
909.993	15819
910.108	15808
910.224	15739
910.339	15736
910.454	15599
910.57	15584
910.685	15534
910.8	15778
910.915	15679
911.03	15542
911.145	15458
911.259	15294
911.374	15241
911.489	15260
911.604	15214
911.718	15138
911.833	15089
911.947	15032
912.062	14956
912.176	15116
912.291	15108
912.405	15055
912.519	15313
912.633	15313
912.748	15100
912.862	15135
912.976	14861
913.09	14773
913.204	14838
913.318	14914
913.431	15032
913.545	14967
913.659	15062
913.772	14880
913.886	14834
914	14724
914.113	14769
914.226	14861
914.34	14971
914.453	14644
914.566	14773
914.68	14629
914.793	14640
914.906	14362
915.019	14339
915.132	14278
915.245	14374
915.358	14457
915.47	14404
915.583	14408
915.696	14362
915.809	14461
915.921	14507
916.034	14396
916.146	14313
916.259	14191
916.371	14366
916.483	14275
916.595	14290
916.708	14221
916.82	14138
916.932	14149
917.044	14145
917.156	14183
917.268	14077
917.38	14077
917.491	14020
917.603	14134
917.715	14081
917.826	14111
917.938	14001
918.049	13887
918.161	13955
918.272	14168
918.384	14092
918.495	14081
918.606	13921
918.717	13818
918.828	13833
918.939	13883
919.05	13738
919.161	13799
919.272	13525
919.383	13639
919.494	13845
919.604	14016
919.715	13822
919.826	13685
919.936	13727
920.047	13833
920.157	13765
920.267	13936
920.378	13708
920.488	13769
920.598	13890
920.708	14039
920.818	13913
920.928	13849
921.038	13986
921.148	14062
921.258	13757
921.368	13658
921.477	13453
921.587	13521
921.697	13388
921.806	13521
921.916	13415
922.025	13202
922.134	13194
922.244	13099
922.353	13255
922.462	13004
922.571	13057
922.68	12882
922.789	12856
922.898	12768
923.007	12688
923.116	12859
923.224	12726
923.333	12776
923.442	12669
923.55	12574
923.659	12692
923.767	12635
923.876	12627
923.984	12673
924.092	12471
924.201	12559
924.309	12646
924.417	12540
924.525	12490
924.633	12528
924.741	13221
924.849	12277
924.956	12445
925.064	12277
925.172	12239
925.279	12228
925.387	12281
925.494	12254
925.602	12342
925.709	12323
925.816	12125
925.924	12190
926.031	12216
926.138	12254
926.245	12330
926.352	12106
926.459	12285
926.566	12266
926.673	12133
926.779	11980
926.886	12038
926.993	11870
927.099	11859
927.206	11649
927.312	11843
927.419	11870
927.525	11809
927.631	11809
927.737	11737
927.843	11634
927.95	11649
928.056	11638
928.162	11615
928.267	11703
928.373	12338
928.479	11752
928.585	11562
928.69	11570
928.796	11676
928.901	11543
929.007	11383
929.112	11509
929.218	11482
929.323	11448
929.428	11402
929.533	11467
929.638	11250
929.743	11406
929.848	11364
929.953	11372
930.058	11292
930.163	11006
930.267	11208
930.372	11189
930.477	11170
930.581	11280
930.685	11208
930.79	11060
930.894	10999
930.998	10889
931.103	11079
931.207	10748
931.311	10637
931.415	10519
931.519	10379
931.623	10303
