Data from test_V78500241_1827.txt Node
Date: Fri Mar 25 15:22:34 CST 2022
User: usil
Spectrometer: V785-0024
Trigger mode: 0
Integration Time (sec): 4.000000E-1
Scans to average: 1
Nonlinearity correction enabled: false
Boxcar width: 0
Storing dark spectrum: false
XAxis mode: Wavelengths
Number of Pixels in Spectrum: 1024
>>>>>Begin Spectral Data<<<<<
801.071	27945
801.214	27861
801.356	27580
801.499	27538
801.641	27397
801.783	27351
801.926	27408
802.068	27275
802.211	27260
802.353	27370
802.496	27039
802.638	27135
802.78	27123
802.923	27009
803.065	27028
803.208	26982
803.35	26952
803.492	27104
803.635	27272
803.777	27249
803.919	27332
804.061	27374
804.204	27256
804.346	27154
804.488	27195
804.63	27161
804.773	27036
804.915	27180
805.057	27492
805.199	27218
805.341	27230
805.483	27382
805.626	27348
805.768	27192
805.91	27272
806.052	27355
806.194	27173
806.336	27523
806.478	27408
806.62	27256
806.762	27386
806.904	27466
807.046	27903
807.188	27914
807.33	27804
807.472	27846
807.614	27724
807.756	27785
807.898	27633
808.04	27583
808.182	27564
808.324	27698
808.465	27793
808.607	27831
808.749	28074
808.891	28154
809.033	28154
809.174	28006
809.316	27964
809.458	27968
809.6	28025
809.741	28112
809.883	28093
810.025	28291
810.166	28322
810.308	28242
810.45	28253
810.591	28185
810.733	27972
810.875	28013
811.016	27876
811.158	27762
811.299	28010
811.441	28002
811.582	28040
811.724	27956
811.865	27972
812.007	27960
812.148	27876
812.29	28074
812.431	28147
812.573	28230
812.714	28538
812.855	28474
812.997	28599
813.138	28702
813.279	28626
813.421	28527
813.562	28409
813.703	28356
813.845	28128
813.986	27998
814.127	27720
814.268	27633
814.41	27663
814.551	27671
814.692	27713
814.833	27671
814.974	27629
815.115	27625
815.256	27526
815.397	27595
815.539	27477
815.68	27462
815.821	27359
815.962	27397
816.103	27412
816.244	27291
816.385	27245
816.526	27256
816.666	27017
816.807	27039
816.948	26838
817.089	26979
817.23	26914
817.371	26910
817.512	26948
817.653	27066
817.793	26735
817.934	26807
818.075	26929
818.216	26929
818.356	26876
818.497	26853
818.638	26640
818.778	26701
818.919	26750
819.06	26777
819.2	26834
819.341	26975
819.481	26960
819.622	27146
819.762	27302
819.903	27321
820.043	27096
820.184	27051
820.324	27043
820.465	27195
820.605	27005
820.746	27104
820.886	27043
821.026	26967
821.167	26842
821.307	27081
821.447	27020
821.588	26876
821.728	26876
821.868	26609
822.008	26465
822.149	26427
822.289	26317
822.429	26259
822.569	26001
822.709	26100
822.849	25883
822.99	25970
823.13	25966
823.27	25925
823.41	25677
823.55	25708
823.69	25799
823.83	25799
823.97	25670
824.11	25590
824.25	25544
824.389	25647
824.529	25803
824.669	25575
824.809	25719
824.949	25757
825.089	25723
825.228	25746
825.368	25499
825.508	25514
825.648	25529
825.787	25392
825.927	25472
826.067	25464
826.206	25419
826.346	25575
826.485	25495
826.625	25400
826.765	25594
826.904	25411
827.044	25392
827.183	25316
827.323	25133
827.462	25335
827.601	25202
827.741	25217
827.88	25270
828.02	25183
828.159	25171
828.298	25240
828.437	25194
828.577	25126
828.716	25304
828.855	25084
828.994	24711
829.134	24973
829.273	25053
829.412	24852
829.551	24768
829.69	24909
829.829	24859
829.968	25031
830.107	24992
830.246	24973
830.385	24973
830.524	24745
830.663	24760
830.802	24730
830.941	24536
831.08	24574
831.219	24521
831.357	24551
831.496	24741
831.635	24631
831.774	24437
831.913	24350
832.051	24376
832.19	24365
832.329	24254
832.467	24228
832.606	24235
832.744	24186
832.883	24121
833.022	24178
833.16	24178
833.299	24174
833.437	24323
833.576	24365
833.714	24247
833.852	24296
833.991	24403
834.129	24372
834.267	24216
834.406	24300
834.544	24205
834.682	24315
834.821	24292
834.959	24384
835.097	24273
835.235	24384
835.373	24197
835.511	24247
835.65	24129
835.788	24197
835.926	23965
836.064	23882
836.202	23999
836.34	24144
836.478	24098
836.615	24136
836.753	24136
836.891	24087
837.029	24159
837.167	24079
837.305	24049
837.443	23984
837.58	23950
837.718	23980
837.856	23980
837.993	23843
838.131	23885
838.269	23889
838.406	23984
838.544	23802
838.681	23718
838.819	23653
838.956	23512
839.094	23493
839.231	23516
839.369	23657
839.506	23885
839.643	23684
839.781	23315
839.918	23414
840.055	23395
840.193	23452
840.33	23277
840.467	23395
840.604	23471
840.742	23551
840.879	23117
841.016	23239
841.153	23189
841.29	23444
841.427	23356
841.564	23334
841.701	23337
841.838	23288
841.975	23277
842.112	23311
842.249	23064
842.385	23056
842.522	23360
842.659	23117
842.796	23220
842.933	23052
843.069	22999
843.206	23113
843.343	23128
843.479	23113
843.616	23105
843.752	22915
843.889	22995
844.025	23071
844.162	22862
844.298	22972
844.435	22919
844.571	22942
844.708	22953
844.844	23003
844.98	23067
845.117	22968
845.253	22965
845.389	22828
845.525	22824
845.661	22721
845.798	22519
845.934	22668
846.07	22527
846.206	22740
846.342	22729
846.478	22603
846.614	22428
846.75	22276
846.886	22356
847.022	22455
847.158	22272
847.294	22493
847.429	22504
847.565	22265
847.701	22580
847.837	22188
847.972	22143
848.108	22207
848.244	22257
848.379	21907
848.515	22105
848.65	22051
848.786	22036
848.921	21956
849.057	22010
849.192	21979
849.328	21915
849.463	22006
849.598	21831
849.734	21854
849.869	21831
850.004	21781
850.14	21766
850.275	21728
850.41	21614
850.545	21694
850.68	21743
850.815	21812
850.95	21705
851.085	21895
851.22	21717
851.355	21728
851.49	21747
851.625	21641
851.76	21641
851.895	21500
852.03	21591
852.165	21759
852.299	21739
852.434	21797
852.569	21701
852.703	21698
852.838	21816
852.973	21945
853.107	21907
853.242	21526
853.376	21614
853.511	21439
853.645	21408
853.78	21720
853.914	21595
854.048	21496
854.183	21488
854.317	21519
854.451	21800
854.585	21412
854.72	21420
854.854	21542
854.988	21466
855.122	21473
855.256	21504
855.39	21572
855.524	21652
855.658	21507
855.792	21553
855.926	21549
856.06	21542
856.194	21583
856.327	21435
856.461	21458
856.595	21450
856.729	21367
856.862	21644
856.996	21526
857.13	21587
857.263	21629
857.397	21614
857.53	21504
857.664	21545
857.797	21576
857.931	21648
858.064	21595
858.197	21648
858.331	21545
858.464	21424
858.597	21405
858.731	21545
858.864	21507
858.997	21469
859.13	21561
859.263	21538
859.396	21709
859.529	21462
859.662	21561
859.795	21469
859.928	21576
860.061	21485
860.194	21751
860.327	21622
860.46	21603
860.592	21690
860.725	21603
860.858	21652
860.99	21564
861.123	21386
861.256	21435
861.388	21485
861.521	21972
861.653	21473
861.786	21283
861.918	21329
862.05	21378
862.183	21500
862.315	21515
862.447	21405
862.58	21428
862.712	21252
862.844	21176
862.976	21363
863.108	21336
863.24	21564
863.372	21287
863.504	21256
863.636	21169
863.768	21154
863.9	21218
864.032	21252
864.164	21214
864.296	21207
864.428	21283
864.559	21272
864.691	21321
864.823	21393
864.954	21226
865.086	21188
865.217	21013
865.349	21062
865.48	21108
865.612	21176
865.743	21302
865.875	21142
866.006	21077
866.137	21058
866.269	21157
866.4	21150
866.531	21123
866.662	20990
866.793	21077
866.924	20979
867.055	21077
867.186	21074
867.317	20960
867.448	21001
867.579	21058
867.71	20902
867.841	20887
867.972	21066
868.103	21039
868.233	21112
868.364	21036
868.495	21218
868.625	21397
868.756	21401
868.886	21123
869.017	21268
869.147	21374
869.278	21294
869.408	21340
869.539	21123
869.669	21283
869.799	21237
869.929	21424
870.06	21439
870.19	21599
870.32	21458
870.45	21637
870.58	21549
870.71	21755
870.84	21812
870.97	21800
871.1	21667
871.23	21846
871.36	21850
871.489	21743
871.619	21857
871.749	21808
871.879	21876
872.008	21819
872.138	21838
872.267	21880
872.397	21728
872.526	21808
872.656	21838
872.785	21770
872.915	22002
873.044	21998
873.173	21998
873.303	21960
873.432	21911
873.561	22044
873.69	21956
873.819	21892
873.948	22048
874.077	21884
874.206	21998
874.335	21895
874.464	21968
874.593	22120
874.722	22097
874.851	22147
874.979	22116
875.108	22303
875.237	22059
875.365	21987
875.494	22105
875.623	22169
875.751	22112
875.88	22150
876.008	22188
876.136	22318
876.265	22516
876.393	22615
876.521	22656
876.65	22512
876.778	22481
876.906	22447
877.034	22379
877.162	22542
877.29	22356
877.418	22417
877.546	22497
877.674	22497
877.802	22455
877.93	22470
878.058	22303
878.185	22363
878.313	22375
878.441	22413
878.568	22276
878.696	22512
878.824	22459
878.951	22577
879.079	22660
879.206	22782
879.333	22653
879.461	22519
879.588	22512
879.715	22698
879.842	22733
879.97	22603
880.097	22306
880.224	22280
880.351	22360
880.478	22306
880.605	22291
880.732	22333
880.859	22493
880.986	22394
881.112	22344
881.239	22154
881.366	22112
881.493	21911
881.619	21800
881.746	21907
881.872	21991
881.999	21797
882.125	21861
882.252	21903
882.378	22017
882.505	21865
882.631	21587
882.757	21679
882.883	21671
883.01	21561
883.136	21473
883.262	21450
883.388	21435
883.514	21595
883.64	21545
883.766	21526
883.892	21298
884.018	21469
884.143	21523
884.269	21530
884.395	21218
884.52	21272
884.646	21192
884.772	21184
884.897	21138
885.023	21249
885.148	21291
885.274	21321
885.399	21340
885.524	21150
885.65	21275
885.775	21332
885.9	21150
886.025	21306
886.15	21249
886.275	21161
886.4	21093
886.525	21157
886.65	21032
886.775	21131
886.9	21317
887.025	21424
887.149	21112
887.274	20948
887.399	21024
887.523	21036
887.648	20971
887.773	21005
887.897	21036
888.021	21051
888.146	20895
888.27	21039
888.395	21085
888.519	20941
888.643	20990
888.767	21051
888.891	20880
889.015	20750
889.139	20819
889.263	20777
889.387	20910
889.511	20937
889.635	20804
889.759	20674
889.883	20712
890.006	20826
890.13	20876
890.254	20807
890.377	20701
890.501	20564
890.624	20465
890.748	20636
890.871	20480
890.995	20358
891.118	20320
891.241	20438
891.364	20370
891.488	20362
891.611	20313
891.734	20362
891.857	20412
891.98	20343
892.103	20438
892.226	20305
892.349	20358
892.471	20092
892.594	20313
892.717	20210
892.839	20202
892.962	20233
893.085	20286
893.207	20210
893.33	20031
893.452	20233
893.575	20256
893.697	20263
893.819	20366
893.941	20533
894.064	20324
894.186	20149
894.308	20199
894.43	20271
894.552	20427
894.674	20347
894.796	20180
894.918	20336
895.04	20183
895.161	20259
895.283	20267
895.405	20282
895.526	20244
895.648	20126
895.769	20298
895.891	20240
896.012	20282
896.134	20221
896.255	20172
896.376	20084
896.498	20244
896.619	20282
896.74	20119
896.861	20290
896.982	20602
897.103	20602
897.224	20488
897.345	20499
897.466	20313
897.587	20457
897.708	20556
897.828	20541
897.949	20408
898.07	20218
898.19	20431
898.311	20492
898.431	20336
898.552	20533
898.672	20457
898.792	20507
898.913	20499
899.033	20298
899.153	20282
899.273	20176
899.393	20263
899.513	20278
899.633	20313
899.753	20240
899.873	20149
899.993	20210
900.113	20100
900.232	20214
900.352	20115
900.472	20001
900.591	19917
900.711	20035
900.83	19982
900.95	20149
901.069	19970
901.189	19799
901.308	19601
901.427	19594
901.546	19518
901.665	19586
901.784	19491
901.904	19460
902.023	19232
902.141	19129
902.26	19038
902.379	19110
902.498	19126
902.617	18935
902.735	19099
902.854	19034
902.973	19050
903.091	18715
903.21	18753
903.328	18669
903.446	18540
903.565	18486
903.683	18555
903.801	18433
903.919	18509
904.038	18452
904.156	18247
904.274	18334
904.392	18323
904.51	18315
904.627	18220
904.745	18315
904.863	18327
904.981	18083
905.098	17984
905.216	17939
905.334	17988
905.451	17950
905.569	17961
905.686	17927
905.803	17897
905.921	17729
906.038	17840
906.155	17832
906.272	17649
906.389	17627
906.506	17589
906.623	17501
906.74	17505
906.857	17433
906.974	17436
907.091	17592
907.208	17600
907.324	17459
907.441	17421
907.557	17208
907.674	17246
907.79	17254
907.907	17235
908.023	17353
908.139	17117
908.256	17140
908.372	17071
908.488	17136
908.604	16953
908.72	16927
908.836	16972
908.952	16953
909.068	17018
909.184	17018
909.3	16919
909.415	16987
909.531	16869
909.647	16599
909.762	16554
909.878	16691
909.993	16664
910.108	16466
910.224	16527
910.339	16641
910.454	16535
910.57	16417
910.685	16375
910.8	16637
910.915	16675
911.03	16531
911.145	16322
911.259	16341
911.374	16341
911.489	16181
911.604	16158
911.718	16071
911.833	15953
911.947	15854
912.062	15842
912.176	15975
912.291	15838
912.405	15922
912.519	16124
912.633	16063
912.748	16131
912.862	15857
912.976	15854
913.09	15652
913.204	15838
913.318	15682
913.431	15835
913.545	15804
913.659	15873
913.772	15671
913.886	15614
914	15595
914.113	15774
914.226	15736
914.34	15713
914.453	15439
914.566	15530
914.68	15530
914.793	15355
914.906	15344
915.019	15169
915.132	15264
915.245	15154
915.358	15279
915.47	15161
915.583	15203
915.696	15272
915.809	15233
915.921	15321
916.034	15112
916.146	15089
916.259	15074
916.371	15070
916.483	15146
916.595	15055
916.708	15066
916.82	15028
916.932	14872
917.044	14979
917.156	14975
917.268	14845
917.38	14842
917.491	14914
917.603	14773
917.715	14952
917.826	14948
917.938	14857
918.049	14689
918.161	14899
918.272	14929
918.384	14929
918.495	14769
918.606	14651
918.717	14552
918.828	14689
918.939	14568
919.05	14511
919.161	14518
919.272	14393
919.383	14461
919.494	14594
919.604	14765
919.715	14629
919.826	14442
919.936	14507
920.047	14651
920.157	14484
920.267	14781
920.378	14648
920.488	14503
920.598	14785
920.708	14811
920.818	14746
920.928	14678
921.038	14883
921.148	14758
921.258	14457
921.368	14389
921.477	14343
921.587	14248
921.697	14123
921.806	14221
921.916	14039
922.025	13993
922.134	13894
922.244	13906
922.353	13890
922.462	13807
922.571	13734
922.68	13582
922.789	13620
922.898	13685
923.007	13578
923.116	13750
923.224	13537
923.333	13521
923.442	13396
923.55	13445
923.659	13449
923.767	13419
923.876	13403
923.984	13525
924.092	13358
924.201	13320
924.309	13350
924.417	13297
924.525	13316
924.633	13346
924.741	14180
924.849	13061
924.956	13187
925.064	12970
925.172	12970
925.279	12985
925.387	12977
925.494	13019
925.602	13031
925.709	12996
925.816	12856
925.924	12966
926.031	13133
926.138	12863
926.245	12970
926.352	12863
926.459	13000
926.566	12958
926.673	12894
926.779	12787
926.886	12715
926.993	12623
927.099	12623
927.206	12437
927.312	12563
927.419	12521
927.525	12578
927.631	12525
927.737	12429
927.843	12338
927.95	12311
928.056	12372
928.162	12460
928.267	12334
928.373	13027
928.479	12452
928.585	12216
928.69	12262
928.796	12395
928.901	12304
929.007	12167
929.112	12209
929.218	12232
929.323	12213
929.428	12110
929.533	12266
929.638	11950
929.743	12045
929.848	12049
929.953	12098
930.058	11969
930.163	11729
930.267	11843
930.372	11927
930.477	11665
930.581	11923
930.685	11931
930.79	11627
930.894	11752
930.998	11680
931.103	11809
931.207	11455
931.311	11330
931.415	11273
931.519	11041
931.623	11075
