Data from test_V78500241_1278.txt Node
Date: Fri Mar 25 15:18:45 CST 2022
User: usil
Spectrometer: V785-0024
Trigger mode: 0
Integration Time (sec): 4.000000E-1
Scans to average: 1
Nonlinearity correction enabled: false
Boxcar width: 0
Storing dark spectrum: false
XAxis mode: Wavelengths
Number of Pixels in Spectrum: 1024
>>>>>Begin Spectral Data<<<<<
801.071	28105
801.214	27953
801.356	27808
801.499	27671
801.641	27701
801.783	27671
801.926	27614
802.068	27625
802.211	27504
802.353	27496
802.496	27382
802.638	27131
802.78	27302
802.923	27302
803.065	27161
803.208	27157
803.35	27214
803.492	27340
803.635	27500
803.777	27405
803.919	27466
804.061	27728
804.204	27526
804.346	27530
804.488	27378
804.63	27355
804.773	27420
804.915	27466
805.057	27663
805.199	27477
805.341	27450
805.483	27610
805.626	27667
805.768	27679
805.91	27473
806.052	27656
806.194	27568
806.336	27892
806.478	27800
806.62	27580
806.762	27785
806.904	27850
807.046	28219
807.188	28021
807.33	27960
807.472	28105
807.614	27964
807.756	28040
807.898	28036
808.04	27960
808.182	27922
808.324	27983
808.465	27941
808.607	28131
808.749	28325
808.891	28382
809.033	28455
809.174	28265
809.316	28135
809.458	28166
809.6	28249
809.741	28413
809.883	28516
810.025	28588
810.166	28580
810.308	28660
810.45	28523
810.591	28462
810.733	28436
810.875	28249
811.016	28268
811.158	28150
811.299	28322
811.441	28417
811.582	28280
811.724	28280
811.865	28173
812.007	28344
812.148	28253
812.29	28363
812.431	28481
812.573	28569
812.714	28786
812.855	28888
812.997	28904
813.138	29113
813.279	28877
813.421	28824
813.562	28927
813.703	28519
813.845	28523
813.986	28143
814.127	28036
814.268	28097
814.41	28101
814.551	27869
814.692	28097
814.833	27781
814.974	28059
815.115	28082
815.256	27880
815.397	27812
815.539	27907
815.68	27956
815.821	27686
815.962	27888
816.103	27797
816.244	27622
816.385	27580
816.526	27481
816.666	27256
816.807	27233
816.948	27435
817.089	27317
817.23	27355
817.371	27367
817.512	27260
817.653	27268
817.793	27310
817.934	27245
818.075	27268
818.216	27252
818.356	27275
818.497	27218
818.638	27032
818.778	26994
818.919	26994
819.06	27081
819.2	27116
819.341	27306
819.481	27249
819.622	27325
819.762	27564
819.903	27492
820.043	27386
820.184	27469
820.324	27397
820.465	27450
820.605	27332
820.746	27355
820.886	27211
821.026	27412
821.167	27431
821.307	27564
821.447	27416
821.588	27184
821.728	27104
821.868	26906
822.008	26750
822.149	26773
822.289	26735
822.429	26609
822.569	26507
822.709	26358
822.849	26157
822.99	26244
823.13	26328
823.27	26172
823.41	26119
823.55	26096
823.69	26180
823.83	26153
823.97	26081
824.11	25944
824.25	25780
824.389	25951
824.529	26016
824.669	26024
824.809	26008
824.949	26020
825.089	26043
825.228	25932
825.368	25936
825.508	25791
825.648	25966
825.787	25833
825.927	25826
826.067	25963
826.206	25655
826.346	25860
826.485	25864
826.625	25845
826.765	25917
826.904	25887
827.044	25666
827.183	25704
827.323	25620
827.462	25753
827.601	25772
827.741	25605
827.88	25499
828.02	25426
828.159	25518
828.298	25495
828.437	25647
828.577	25476
828.716	25552
828.855	25464
828.994	25244
829.134	25320
829.273	25331
829.412	25293
829.551	25206
829.69	25266
829.829	25263
829.968	25354
830.107	25331
830.246	25304
830.385	25080
830.524	25266
830.663	25095
830.802	25004
830.941	24947
831.08	24844
831.219	25012
831.357	24916
831.496	25057
831.635	24981
831.774	24749
831.913	24639
832.051	24673
832.19	24661
832.329	24798
832.467	24585
832.606	24479
832.744	24460
832.883	24486
833.022	24502
833.16	24490
833.299	24574
833.437	24563
833.576	24681
833.714	24616
833.852	24578
833.991	24677
834.129	24661
834.267	24738
834.406	24669
834.544	24627
834.682	24608
834.821	24528
834.959	24722
835.097	24654
835.235	24772
835.373	24612
835.511	24585
835.65	24502
835.788	24441
835.926	24334
836.064	24273
836.202	24384
836.34	24536
836.478	24422
836.615	24498
836.753	24353
836.891	24604
837.029	24509
837.167	24296
837.305	24388
837.443	24361
837.58	24239
837.718	24369
837.856	24292
837.993	24178
838.131	24319
838.269	24148
838.406	24300
838.544	24171
838.681	23942
838.819	23878
838.956	23661
839.094	23752
839.231	23847
839.369	23969
839.506	24117
839.643	24030
839.781	23775
839.918	23646
840.055	23748
840.193	23714
840.33	23520
840.467	23752
840.604	23661
840.742	23855
840.879	23661
841.016	23615
841.153	23551
841.29	23802
841.427	23665
841.564	23668
841.701	23547
841.838	23596
841.975	23531
842.112	23509
842.249	23463
842.385	23315
842.522	23528
842.659	23482
842.796	23497
842.933	23406
843.069	23463
843.206	23372
843.343	23505
843.479	23543
843.616	23448
843.752	23280
843.889	23170
844.025	23334
844.162	23315
844.298	23200
844.435	23288
844.571	23155
844.708	23181
844.844	23387
844.98	23303
845.117	23216
845.253	23296
845.389	23033
845.525	23143
845.661	23155
845.798	22938
845.934	23121
846.07	22812
846.206	22995
846.342	22957
846.478	22782
846.614	22713
846.75	22531
846.886	22599
847.022	22725
847.158	22645
847.294	22725
847.429	22653
847.565	22694
847.701	22786
847.837	22310
847.972	22455
848.108	22379
848.244	22451
848.379	22291
848.515	22261
848.65	22150
848.786	22280
848.921	22223
849.057	22367
849.192	22337
849.328	22280
849.463	22333
849.598	22154
849.734	22162
849.869	21994
850.004	22078
850.14	22082
850.275	22120
850.41	21972
850.545	22074
850.68	22067
850.815	22093
850.95	21911
851.085	22188
851.22	22154
851.355	22086
851.49	21968
851.625	21956
851.76	21895
851.895	21861
852.03	21899
852.165	21941
852.299	21888
852.434	22143
852.569	22139
852.703	22150
852.838	22051
852.973	22074
853.107	22124
853.242	21937
853.376	21964
853.511	21816
853.645	21857
853.78	21892
853.914	21937
854.048	21781
854.183	21679
854.317	21884
854.451	22025
854.585	21846
854.72	21903
854.854	21819
854.988	21739
855.122	21816
855.256	21778
855.39	21934
855.524	21884
855.658	21797
855.792	21892
855.926	21861
856.06	22048
856.194	22059
856.327	21979
856.461	21812
856.595	21743
856.729	21846
856.862	21869
856.996	21762
857.13	21816
857.263	21880
857.397	21892
857.53	21785
857.664	21960
857.797	21964
857.931	21880
858.064	21945
858.197	21823
858.331	21831
858.464	21827
858.597	21732
858.731	21842
858.864	21812
858.997	21789
859.13	21884
859.263	21808
859.396	21797
859.529	21819
859.662	21724
859.795	21705
859.928	21854
860.061	22036
860.194	22036
860.327	21945
860.46	21884
860.592	22109
860.725	21987
860.858	21972
860.99	21930
861.123	21667
861.256	21625
861.388	21797
861.521	22592
861.653	21751
861.786	21652
861.918	21686
862.05	21583
862.183	21709
862.315	21766
862.447	21808
862.58	21686
862.712	21564
862.844	21534
862.976	21709
863.108	21595
863.24	21838
863.372	21595
863.504	21568
863.636	21462
863.768	21595
863.9	21667
864.032	21477
864.164	21447
864.296	21618
864.428	21641
864.559	21583
864.691	21500
864.823	21435
864.954	21355
865.086	21473
865.217	21496
865.349	21481
865.48	21504
865.612	21450
865.743	21439
865.875	21614
866.006	21458
866.137	21485
866.269	21374
866.4	21306
866.531	21313
866.662	21298
866.793	21450
866.924	21336
867.055	21329
867.186	21389
867.317	21355
867.448	21340
867.579	21241
867.71	21348
867.841	21367
867.972	21439
868.103	21310
868.233	21355
868.364	21408
868.495	21481
868.625	21564
868.756	21743
868.886	21595
869.017	21496
869.147	21660
869.278	21785
869.408	21648
869.539	21648
869.669	21751
869.799	21679
869.929	21762
870.06	21682
870.19	21876
870.32	21827
870.45	21998
870.58	22002
870.71	22139
870.84	22048
870.97	21930
871.1	22059
871.23	22303
871.36	22120
871.489	22120
871.619	22207
871.749	22215
871.879	22291
872.008	22371
872.138	22086
872.267	22082
872.397	22067
872.526	21991
872.656	21994
872.785	21945
872.915	22169
873.044	22352
873.173	22169
873.303	22207
873.432	22211
873.561	22261
873.69	22207
873.819	22101
873.948	22177
874.077	22234
874.206	22070
874.335	22238
874.464	22402
874.593	22519
874.722	22363
874.851	22386
874.979	22402
875.108	22447
875.237	22261
875.365	22249
875.494	22363
875.623	22542
875.751	22310
875.88	22508
876.008	22599
876.136	22512
876.265	22782
876.393	22850
876.521	22831
876.65	22877
876.778	22869
876.906	22672
877.034	22805
877.162	22729
877.29	22702
877.418	22809
877.546	22725
877.674	22592
877.802	22641
877.93	22740
878.058	22668
878.185	22771
878.313	22702
878.441	22626
878.568	22641
878.696	22660
878.824	22835
878.951	22911
879.079	22862
879.206	23041
879.333	22938
879.461	22694
879.588	22793
879.715	23010
879.842	22965
879.97	22828
880.097	22546
880.224	22538
880.351	22580
880.478	22615
880.605	22516
880.732	22504
880.859	22835
880.986	22561
881.112	22519
881.239	22375
881.366	22348
881.493	22284
881.619	22162
881.746	22188
881.872	22131
881.999	22128
882.125	22150
882.252	22207
882.378	22139
882.505	22299
882.631	22044
882.757	21937
882.883	21880
883.01	21918
883.136	21808
883.262	21762
883.388	21625
883.514	21800
883.64	21930
883.766	21781
883.892	21667
884.018	21633
884.143	21857
884.269	21846
884.395	21637
884.52	21492
884.646	21637
884.772	21439
884.897	21435
885.023	21614
885.148	21641
885.274	21564
885.399	21576
885.524	21454
885.65	21580
885.775	21443
885.9	21378
886.025	21545
886.15	21519
886.275	21367
886.4	21389
886.525	21534
886.65	21424
886.775	21325
886.9	21561
887.025	21694
887.149	21458
887.274	21214
887.399	21093
887.523	21123
887.648	21233
887.773	21184
887.897	21298
888.021	21329
888.146	21192
888.27	21214
888.395	21272
888.519	21218
888.643	21154
888.767	21184
888.891	21173
889.015	20994
889.139	21055
889.263	21020
889.387	21169
889.511	21287
889.635	21146
889.759	20914
889.883	20921
890.006	21039
890.13	21070
890.254	20872
890.377	20925
890.501	20659
890.624	20720
890.748	20872
890.871	20621
890.995	20522
891.118	20461
891.241	20644
891.364	20667
891.488	20686
891.611	20682
891.734	20606
891.857	20598
891.98	20537
892.103	20667
892.226	20465
892.349	20514
892.471	20381
892.594	20602
892.717	20549
892.839	20438
892.962	20526
893.085	20461
893.207	20309
893.33	20434
893.452	20427
893.575	20503
893.697	20450
893.819	20640
893.941	20762
894.064	20594
894.186	20480
894.308	20267
894.43	20705
894.552	20598
894.674	20526
894.796	20442
894.918	20419
895.04	20389
895.161	20545
895.283	20511
895.405	20377
895.526	20537
895.648	20495
895.769	20431
895.891	20556
896.012	20533
896.134	20556
896.255	20408
896.376	20408
896.498	20438
896.619	20450
896.74	20488
896.861	20526
896.982	20853
897.103	20788
897.224	20686
897.345	20762
897.466	20507
897.587	20701
897.708	20777
897.828	20731
897.949	20571
898.07	20541
898.19	20598
898.311	20845
898.431	20735
898.552	20693
898.672	20769
898.792	20678
898.913	20849
899.033	20438
899.153	20556
899.273	20290
899.393	20511
899.513	20484
899.633	20294
899.753	20423
899.873	20370
899.993	20469
900.113	20362
900.232	20351
900.352	20351
900.472	20347
900.591	20126
900.711	20225
900.83	20218
900.95	20305
901.069	20168
901.189	20107
901.308	19814
901.427	19738
901.546	19780
901.665	19780
901.784	19731
901.904	19635
902.023	19510
902.141	19419
902.26	19324
902.379	19327
902.498	19285
902.617	19270
902.735	19232
902.854	19126
902.973	19251
903.091	18894
903.21	18901
903.328	18909
903.446	18954
903.565	18772
903.683	18768
903.801	18707
903.919	18738
904.038	18650
904.156	18597
904.274	18532
904.392	18589
904.51	18521
904.627	18376
904.745	18563
904.863	18585
904.981	18350
905.098	18254
905.216	18178
905.334	18224
905.451	18190
905.569	18266
905.686	18114
905.803	18197
905.921	18011
906.038	18087
906.155	17942
906.272	17802
906.389	17923
906.506	17847
906.623	17691
906.74	17707
906.857	17707
906.974	17657
907.091	17710
907.208	17771
907.324	17737
907.441	17642
907.557	17520
907.674	17512
907.79	17376
907.907	17387
908.023	17414
908.139	17585
908.256	17356
908.372	17364
908.488	17265
908.604	17178
908.72	17162
908.836	17197
908.952	17098
909.068	17067
909.184	17258
909.3	17056
909.415	17170
909.531	17067
909.647	16896
909.762	16877
909.878	16877
909.993	16984
910.108	16896
910.224	16797
910.339	16866
910.454	16729
910.57	16664
910.685	16580
910.8	16866
910.915	16793
911.03	16706
911.145	16462
911.259	16542
911.374	16409
911.489	16447
911.604	16363
911.718	16207
911.833	16219
911.947	16101
912.062	15975
912.176	16211
912.291	16086
912.405	16196
912.519	16341
912.633	16360
912.748	16226
912.862	16017
912.976	16059
913.09	15926
913.204	15861
913.318	15983
913.431	16093
913.545	16040
913.659	16032
913.772	16010
913.886	15930
914	15781
914.113	15827
914.226	15827
914.34	15789
914.453	15739
914.566	15797
914.68	15652
914.793	15701
914.906	15595
915.019	15374
915.132	15317
915.245	15363
915.358	15435
915.47	15389
915.583	15355
915.696	15351
915.809	15477
915.921	15515
916.034	15382
916.146	15233
916.259	15203
916.371	15439
916.483	15370
916.595	15176
916.708	15245
916.82	15119
916.932	15226
917.044	15112
917.156	15176
917.268	15009
917.38	15058
917.491	14994
917.603	14998
917.715	15032
917.826	15180
917.938	14872
918.049	14880
918.161	14929
918.272	15127
918.384	15146
918.495	14952
918.606	14876
918.717	14724
918.828	14864
918.939	14792
919.05	14701
919.161	14853
919.272	14697
919.383	14575
919.494	14830
919.604	15001
919.715	14785
919.826	14640
919.936	14701
920.047	14826
920.157	14686
920.267	14868
920.378	14663
920.488	14667
920.598	14762
920.708	14963
920.818	14883
920.928	14899
921.038	14979
921.148	15028
921.258	14743
921.368	14617
921.477	14434
921.587	14419
921.697	14362
921.806	14488
921.916	14313
922.025	14256
922.134	14119
922.244	14050
922.353	14084
922.462	13989
922.571	13856
922.68	13761
922.789	13696
922.898	13643
923.007	13693
923.116	13772
923.224	13700
923.333	13639
923.442	13624
923.55	13563
923.659	13624
923.767	13658
923.876	13567
923.984	13639
924.092	13430
924.201	13502
924.309	13601
924.417	13457
924.525	13320
924.633	13308
924.741	14218
924.849	13179
924.956	13350
925.064	13217
925.172	13118
925.279	13145
925.387	13251
925.494	13149
925.602	13259
925.709	13171
925.816	13004
925.924	12989
926.031	13202
926.138	13053
926.245	13065
926.352	12993
926.459	13133
926.566	13145
926.673	13046
926.779	12897
926.886	12897
926.993	12757
927.099	12696
927.206	12650
927.312	12608
927.419	12776
927.525	12673
927.631	12837
927.737	12585
927.843	12479
927.95	12517
928.056	12536
928.162	12490
928.267	12616
928.373	13168
928.479	12566
928.585	12399
928.69	12441
928.796	12521
928.901	12460
929.007	12300
929.112	12353
929.218	12292
929.323	12281
929.428	12266
929.533	12334
929.638	12209
929.743	12262
929.848	12232
929.953	12201
930.058	12068
930.163	11897
930.267	11927
930.372	12053
930.477	11935
930.581	12079
930.685	12034
930.79	11855
930.894	11775
930.998	11809
931.103	11942
931.207	11623
931.311	11467
931.415	11376
931.519	11124
931.623	11201
