Data from test_V78500241_2335.txt Node
Date: Fri Mar 25 15:26:07 CST 2022
User: usil
Spectrometer: V785-0024
Trigger mode: 0
Integration Time (sec): 4.000000E-1
Scans to average: 1
Nonlinearity correction enabled: false
Boxcar width: 0
Storing dark spectrum: false
XAxis mode: Wavelengths
Number of Pixels in Spectrum: 1024
>>>>>Begin Spectral Data<<<<<
801.071	27374
801.214	27264
801.356	27161
801.499	27013
801.641	26864
801.783	26864
801.926	26830
802.068	26868
802.211	26800
802.353	26724
802.496	26537
802.638	26492
802.78	26541
802.923	26465
803.065	26332
803.208	26476
803.35	26469
803.492	26598
803.635	26686
803.777	26549
803.919	26651
804.061	26979
804.204	26720
804.346	26526
804.488	26575
804.63	26712
804.773	26560
804.915	26621
805.057	26800
805.199	26571
805.341	26731
805.483	26845
805.626	26788
805.768	26682
805.91	26762
806.052	26701
806.194	26644
806.336	26921
806.478	26743
806.62	26716
806.762	26925
806.904	27085
807.046	27275
807.188	27154
807.33	27256
807.472	27184
807.614	27146
807.756	27245
807.898	27032
808.04	26982
808.182	27051
808.324	27154
808.465	27028
808.607	27260
808.749	27344
808.891	27405
809.033	27477
809.174	27435
809.316	27264
809.458	27195
809.6	27542
809.741	27477
809.883	27389
810.025	27637
810.166	27679
810.308	27667
810.45	27466
810.591	27504
810.733	27401
810.875	27245
811.016	27211
811.158	27317
811.299	27332
811.441	27427
811.582	27469
811.724	27283
811.865	27344
812.007	27443
812.148	27386
812.29	27397
812.431	27477
812.573	27671
812.714	27850
812.855	27892
812.997	27755
813.138	28040
813.279	27876
813.421	27743
813.562	27618
813.703	27648
813.845	27519
813.986	27192
814.127	27180
814.268	27017
814.41	27138
814.551	26921
814.692	27055
814.833	26956
814.974	26963
815.115	26963
815.256	26952
815.397	26815
815.539	26975
815.68	26830
815.821	26594
815.962	26902
816.103	26804
816.244	26552
816.385	26526
816.526	26644
816.666	26492
816.807	26290
816.948	26370
817.089	26343
817.23	26355
817.371	26408
817.512	26275
817.653	26282
817.793	26202
817.934	26290
818.075	26229
818.216	26267
818.356	26218
818.497	26077
818.638	25970
818.778	25989
818.919	26020
819.06	25997
819.2	26214
819.341	26248
819.481	26298
819.622	26511
819.762	26579
819.903	26499
820.043	26256
820.184	26275
820.324	26362
820.465	26556
820.605	26294
820.746	26400
820.886	26122
821.026	26324
821.167	26332
821.307	26301
821.447	26431
821.588	26336
821.728	25989
821.868	25955
822.008	25746
822.149	25772
822.289	25742
822.429	25499
822.569	25358
822.709	25453
822.849	25293
822.99	25354
823.13	25251
823.27	25217
823.41	25099
823.55	25076
823.69	25015
823.83	25072
823.97	25133
824.11	24947
824.25	24913
824.389	24829
824.529	25000
824.669	24905
824.809	24977
824.949	24886
825.089	24909
825.228	24928
825.368	24726
825.508	24597
825.648	24779
825.787	24783
825.927	24863
826.067	24772
826.206	24707
826.346	24738
826.485	24875
826.625	24825
826.765	24863
826.904	24814
827.044	24502
827.183	24532
827.323	24395
827.462	24475
827.601	24574
827.741	24342
827.88	24528
828.02	24346
828.159	24319
828.298	24384
828.437	24490
828.577	24376
828.716	24734
828.855	24353
828.994	24190
829.134	24174
829.273	24209
829.412	24178
829.551	24121
829.69	24095
829.829	24243
829.968	24209
830.107	24125
830.246	24087
830.385	24216
830.524	24079
830.663	23950
830.802	23832
830.941	23802
831.08	23783
831.219	23767
831.357	23756
831.496	24026
831.635	23798
831.774	23691
831.913	23592
832.051	23611
832.19	23505
832.329	23554
832.467	23497
832.606	23406
832.744	23372
832.883	23482
833.022	23448
833.16	23417
833.299	23512
833.437	23520
833.576	23611
833.714	23493
833.852	23566
833.991	23551
834.129	23558
834.267	23589
834.406	23531
834.544	23600
834.682	23490
834.821	23467
834.959	23608
835.097	23482
835.235	23528
835.373	23402
835.511	23455
835.65	23269
835.788	23360
835.926	23284
836.064	23193
836.202	23147
836.34	23193
836.478	23368
836.615	23193
836.753	23383
836.891	23463
837.029	23280
837.167	23303
837.305	23140
837.443	23273
837.58	23212
837.718	23307
837.856	23261
837.993	23124
838.131	23083
838.269	23132
838.406	23090
838.544	23006
838.681	22828
838.819	22896
838.956	22725
839.094	22691
839.231	22824
839.369	22763
839.506	23048
839.643	22934
839.781	22634
839.918	22694
840.055	22538
840.193	22535
840.33	22546
840.467	22550
840.604	22721
840.742	22816
840.879	22470
841.016	22546
841.153	22432
841.29	22698
841.427	22565
841.564	22649
841.701	22542
841.838	22531
841.975	22500
842.112	22428
842.249	22344
842.385	22242
842.522	22527
842.659	22299
842.796	22257
842.933	22253
843.069	22287
843.206	22306
843.343	22344
843.479	22341
843.616	22348
843.752	22185
843.889	22158
844.025	22230
844.162	22032
844.298	22314
844.435	22158
844.571	22063
844.708	22215
844.844	22238
844.98	22249
845.117	22143
845.253	22002
845.389	21888
845.525	21934
845.661	21915
845.798	21808
845.934	21892
846.07	21857
846.206	21903
846.342	21941
846.478	21701
846.614	21606
846.75	21553
846.886	21386
847.022	21709
847.158	21682
847.294	21603
847.429	21542
847.565	21538
847.701	21903
847.837	21329
847.972	21332
848.108	21367
848.244	21370
848.379	21256
848.515	21260
848.65	21230
848.786	21104
848.921	21093
849.057	21268
849.192	21275
849.328	21252
849.463	21260
849.598	21119
849.734	21104
849.869	20948
850.004	20971
850.14	21028
850.275	20990
850.41	20876
850.545	20868
850.68	20925
850.815	20941
850.95	20971
851.085	21123
851.22	21032
851.355	21009
851.49	20868
851.625	20902
851.76	20952
851.895	20872
852.03	20811
852.165	20941
852.299	20819
852.434	20925
852.569	20925
852.703	20963
852.838	20929
852.973	21074
853.107	21020
853.242	20792
853.376	20804
853.511	20644
853.645	20746
853.78	20956
853.914	20800
854.048	20773
854.183	20655
854.317	20800
854.451	20975
854.585	20868
854.72	20785
854.854	20838
854.988	20720
855.122	20739
855.256	20724
855.39	20796
855.524	20739
855.658	20796
855.792	20720
855.926	20762
856.06	20826
856.194	20800
856.327	20727
856.461	20727
856.595	20613
856.729	20777
856.862	20796
856.996	20724
857.13	20914
857.263	20902
857.397	20834
857.53	20697
857.664	20796
857.797	20864
857.931	20804
858.064	20842
858.197	20937
858.331	20769
858.464	20701
858.597	20689
858.731	20682
858.864	20788
858.997	20735
859.13	20842
859.263	20686
859.396	20762
859.529	20697
859.662	20769
859.795	20773
859.928	20792
860.061	20933
860.194	20830
860.327	20754
860.46	20792
860.592	20963
860.725	20963
860.858	20800
860.99	20785
861.123	20815
861.256	20792
861.388	20686
861.521	21351
861.653	20621
861.786	20537
861.918	20533
862.05	20655
862.183	20663
862.315	20606
862.447	20804
862.58	20663
862.712	20469
862.844	20290
862.976	20568
863.108	20552
863.24	20891
863.372	20374
863.504	20438
863.636	20412
863.768	20473
863.9	20457
864.032	20374
864.164	20476
864.296	20526
864.428	20663
864.559	20549
864.691	20503
864.823	20518
864.954	20412
865.086	20469
865.217	20419
865.349	20438
865.48	20457
865.612	20393
865.743	20533
865.875	20317
866.006	20347
866.137	20336
866.269	20385
866.4	20412
866.531	20328
866.662	20256
866.793	20370
866.924	20339
867.055	20172
867.186	20332
867.317	20176
867.448	20161
867.579	20259
867.71	20267
867.841	20294
867.972	20389
868.103	20362
868.233	20332
868.364	20263
868.495	20434
868.625	20609
868.756	20701
868.886	20480
869.017	20423
869.147	20655
869.278	20583
869.408	20689
869.539	20613
869.669	20727
869.799	20590
869.929	20678
870.06	20651
870.19	20891
870.32	20781
870.45	20910
870.58	20967
870.71	21024
870.84	21058
870.97	20929
871.1	21108
871.23	21123
871.36	21104
871.489	20990
871.619	21119
871.749	21009
871.879	21203
872.008	21252
872.138	21157
872.267	21252
872.397	21055
872.526	20979
872.656	20998
872.785	20876
872.915	21135
873.044	21313
873.173	21169
873.303	21275
873.432	21279
873.561	21348
873.69	21127
873.819	21260
873.948	21199
874.077	21207
874.206	21089
874.335	21294
874.464	21370
874.593	21401
874.722	21351
874.851	21401
874.979	21401
875.108	21428
875.237	21336
875.365	21245
875.494	21298
875.623	21329
875.751	21332
875.88	21443
876.008	21576
876.136	21694
876.265	21732
876.393	21998
876.521	21770
876.65	21857
876.778	21797
876.906	21682
877.034	21800
877.162	21682
877.29	21785
877.418	21797
877.546	21842
877.674	21797
877.802	21720
877.93	21857
878.058	21682
878.185	21561
878.313	21694
878.441	21835
878.568	21526
878.696	21671
878.824	21713
878.951	21774
879.079	21899
879.206	22029
879.333	21949
879.461	21819
879.588	21911
879.715	21956
879.842	21968
879.97	21808
880.097	21549
880.224	21686
880.351	21667
880.478	21530
880.605	21572
880.732	21599
880.859	21838
880.986	21622
881.112	21572
881.239	21428
881.366	21416
881.493	21378
881.619	21127
881.746	21283
881.872	21291
881.999	21142
882.125	21036
882.252	21313
882.378	21055
882.505	21173
882.631	21055
882.757	20948
882.883	20910
883.01	20941
883.136	20754
883.262	20670
883.388	20716
883.514	20876
883.64	20899
883.766	20773
883.892	20674
884.018	20693
884.143	20876
884.269	20868
884.395	20503
884.52	20427
884.646	20541
884.772	20396
884.897	20358
885.023	20537
885.148	20705
885.274	20640
885.399	20708
885.524	20461
885.65	20579
885.775	20556
885.9	20450
886.025	20609
886.15	20621
886.275	20492
886.4	20408
886.525	20579
886.65	20484
886.775	20332
886.9	20655
887.025	20727
887.149	20454
887.274	20317
887.399	20244
887.523	20206
887.648	20237
887.773	20161
887.897	20358
888.021	20355
888.146	20290
888.27	20484
888.395	20438
888.519	20275
888.643	20370
888.767	20294
888.891	20218
889.015	19989
889.139	20020
889.263	20084
889.387	20263
889.511	20389
889.635	20336
889.759	20031
889.883	20035
890.006	20096
890.13	20134
890.254	20016
890.377	19974
890.501	19928
890.624	19807
890.748	19883
890.871	19757
890.995	19567
891.118	19586
891.241	19689
891.364	19620
891.488	19769
891.611	19807
891.734	19647
891.857	19643
891.98	19643
892.103	19708
892.226	19620
892.349	19647
892.471	19487
892.594	19495
892.717	19590
892.839	19559
892.962	19586
893.085	19689
893.207	19647
893.33	19540
893.452	19415
893.575	19731
893.697	19529
893.819	19826
893.941	19723
894.064	19643
894.186	19571
894.308	19601
894.43	19761
894.552	19761
894.674	19708
894.796	19571
894.918	19556
895.04	19502
895.161	19666
895.283	19578
895.405	19643
895.526	19540
895.648	19540
895.769	19567
895.891	19605
896.012	19734
896.134	19655
896.255	19537
896.376	19548
896.498	19571
896.619	19670
896.74	19643
896.861	19666
896.982	19913
897.103	20058
897.224	19849
897.345	19856
897.466	19731
897.587	19765
897.708	19989
897.828	19860
897.949	19879
898.07	19727
898.19	19788
898.311	19852
898.431	19750
898.552	19852
898.672	19799
898.792	19849
898.913	19738
899.033	19742
899.153	19662
899.273	19674
899.393	19613
899.513	19681
899.633	19609
899.753	19616
899.873	19499
899.993	19696
900.113	19571
900.232	19521
900.352	19556
900.472	19396
900.591	19304
900.711	19514
900.83	19392
900.95	19476
901.069	19525
901.189	19297
901.308	19133
901.427	19038
901.546	18996
901.665	19107
901.784	19050
901.904	18810
902.023	18703
902.141	18566
902.26	18441
902.379	18612
902.498	18547
902.617	18464
902.735	18422
902.854	18437
902.973	18342
903.091	18205
903.21	18296
903.328	18140
903.446	18076
903.565	18038
903.683	18068
903.801	17980
903.919	18064
904.038	17965
904.156	17722
904.274	17874
904.392	17790
904.51	17786
904.627	17729
904.745	17832
904.863	17794
904.981	17528
905.098	17486
905.216	17490
905.334	17467
905.451	17497
905.569	17444
905.686	17512
905.803	17417
905.921	17098
906.038	17379
906.155	17208
906.272	17193
906.389	17280
906.506	16984
906.623	17010
906.74	17064
906.857	16908
906.974	17025
907.091	17064
907.208	17124
907.324	16999
907.441	16938
907.557	16793
907.674	16793
907.79	16577
907.907	16641
908.023	16691
908.139	16698
908.256	16664
908.372	16702
908.488	16599
908.604	16459
908.72	16470
908.836	16504
908.952	16337
909.068	16470
909.184	16618
909.3	16481
909.415	16379
909.531	16443
909.647	16211
909.762	16090
909.878	16204
909.993	16143
910.108	16097
910.224	16078
910.339	16032
910.454	15949
910.57	15964
910.685	15846
910.8	16158
910.915	16021
911.03	16010
911.145	15804
911.259	15690
911.374	15823
911.489	15580
911.604	15701
911.718	15428
911.833	15564
911.947	15325
912.062	15233
912.176	15378
912.291	15450
912.405	15488
912.519	15679
912.633	15717
912.748	15500
912.862	15458
912.976	15325
913.09	15180
913.204	15321
913.318	15325
913.431	15348
913.545	15447
913.659	15359
913.772	15252
913.886	15176
914	15074
914.113	15176
914.226	15119
914.34	15188
914.453	15005
914.566	15135
914.68	15081
914.793	14952
914.906	14864
915.019	14735
915.132	14655
915.245	14712
915.358	14743
915.47	14663
915.583	14731
915.696	14670
915.809	14796
915.921	14792
916.034	14693
916.146	14587
916.259	14590
916.371	14731
916.483	14670
916.595	14587
916.708	14590
916.82	14514
916.932	14533
917.044	14564
917.156	14511
917.268	14427
917.38	14503
917.491	14393
917.603	14454
917.715	14461
917.826	14514
917.938	14305
918.049	14176
918.161	14351
918.272	14442
918.384	14507
918.495	14393
918.606	14278
918.717	14142
918.828	14168
918.939	14164
919.05	14100
919.161	14199
919.272	13845
919.383	13993
919.494	14286
919.604	14339
919.715	14168
919.826	14111
919.936	14111
920.047	14195
920.157	14115
920.267	14305
920.378	14107
920.488	14123
920.598	14248
920.708	14473
920.818	14320
920.928	14313
921.038	14461
921.148	14484
921.258	14024
921.368	14016
921.477	13875
921.587	13947
921.697	13708
921.806	13887
921.916	13723
922.025	13605
922.134	13499
922.244	13472
922.353	13468
922.462	13350
922.571	13308
922.68	13251
922.789	13137
922.898	13152
923.007	13137
923.116	13168
923.224	13095
923.333	13099
923.442	13091
923.55	13091
923.659	13046
923.767	13050
923.876	12935
923.984	13012
924.092	12943
924.201	12932
924.309	12954
924.417	12894
924.525	12821
924.633	12924
924.741	13822
924.849	12688
924.956	12760
925.064	12612
925.172	12536
925.279	12593
925.387	12673
925.494	12642
925.602	12791
925.709	12738
925.816	12528
925.924	12582
926.031	12589
926.138	12582
926.245	12585
926.352	12498
926.459	12665
926.566	12597
926.673	12437
926.779	12399
926.886	12414
926.993	12182
927.099	12209
927.206	12148
927.312	12194
927.419	12251
927.525	12254
927.631	12224
927.737	12087
927.843	12034
927.95	11980
928.056	12019
928.162	11946
928.267	12045
928.373	12540
928.479	12060
928.585	11923
928.69	11946
928.796	12041
928.901	11874
929.007	11779
929.112	11882
929.218	11821
929.323	11764
929.428	11688
929.533	11832
929.638	11668
929.743	11733
929.848	11764
929.953	11756
930.058	11630
930.163	11490
930.267	11452
930.372	11585
930.477	11448
930.581	11665
930.685	11448
930.79	11315
930.894	11383
930.998	11345
931.103	11459
931.207	11132
931.311	11037
931.415	10900
931.519	10664
931.623	10710
