Data from test_V78500241_356.txt Node
Date: Fri Mar 25 15:12:20 CST 2022
User: usil
Spectrometer: V785-0024
Trigger mode: 0
Integration Time (sec): 4.000000E-1
Scans to average: 1
Nonlinearity correction enabled: false
Boxcar width: 0
Storing dark spectrum: false
XAxis mode: Wavelengths
Number of Pixels in Spectrum: 1024
>>>>>Begin Spectral Data<<<<<
801.071	26956
801.214	26975
801.356	26693
801.499	26640
801.641	26640
801.783	26621
801.926	26503
802.068	26560
802.211	26495
802.353	26511
802.496	26347
802.638	26263
802.78	26229
802.923	26122
803.065	26134
803.208	26130
803.35	26233
803.492	26191
803.635	26473
803.777	26107
803.919	26210
804.061	26686
804.204	26320
804.346	26317
804.488	26191
804.63	26294
804.773	26206
804.915	26202
805.057	26355
805.199	26221
805.341	26252
805.483	26381
805.626	26358
805.768	26298
805.91	26457
806.052	26377
806.194	26294
806.336	26693
806.478	26465
806.62	26278
806.762	26518
806.904	26792
807.046	26842
807.188	26811
807.33	26731
807.472	26815
807.614	26785
807.756	26826
807.898	26636
808.04	26545
808.182	26571
808.324	26621
808.465	26598
808.607	26830
808.749	26895
808.891	27051
809.033	27195
809.174	27108
809.316	26967
809.458	26853
809.6	26967
809.741	26979
809.883	27150
810.025	27188
810.166	27108
810.308	27222
810.45	27173
810.591	27028
810.733	26982
810.875	26925
811.016	26952
811.158	26834
811.299	26956
811.441	27119
811.582	26998
811.724	26952
811.865	27039
812.007	26853
812.148	26834
812.29	26956
812.431	27005
812.573	27351
812.714	27378
812.855	27488
812.997	27568
813.138	27705
813.279	27682
813.421	27583
813.562	27386
813.703	27435
813.845	27192
813.986	26979
814.127	26724
814.268	26583
814.41	26769
814.551	26655
814.692	26693
814.833	26537
814.974	26682
815.115	26438
815.256	26492
815.397	26423
815.539	26659
815.68	26317
815.821	26275
815.962	26404
816.103	26404
816.244	26259
816.385	26214
816.526	26149
816.666	25902
816.807	25860
816.948	25925
817.089	25978
817.23	25913
817.371	26020
817.512	25936
817.653	25932
817.793	25841
817.934	25761
818.075	25852
818.216	25833
818.356	25875
818.497	25731
818.638	25556
818.778	25521
818.919	25639
819.06	25700
819.2	25803
819.341	25826
819.481	25715
819.622	26180
819.762	26221
819.903	26088
820.043	26024
820.184	25936
820.324	25925
820.465	25921
820.605	26016
820.746	25986
820.886	25811
821.026	25963
821.167	25856
821.307	25955
821.447	25978
821.588	25883
821.728	25689
821.868	25506
822.008	25358
822.149	25209
822.289	25293
822.429	25183
822.569	24958
822.709	25091
822.849	24875
822.99	24878
823.13	24859
823.27	24890
823.41	24715
823.55	24517
823.69	24772
823.83	24665
823.97	24555
824.11	24399
824.25	24448
824.389	24479
824.529	24650
824.669	24532
824.809	24696
824.949	24467
825.089	24479
825.228	24601
825.368	24384
825.508	24376
825.648	24323
825.787	24456
825.927	24353
826.067	24251
826.206	24311
826.346	24281
826.485	24403
826.625	24323
826.765	24334
826.904	24334
827.044	24136
827.183	24068
827.323	24064
827.462	24114
827.601	24045
827.741	24110
827.88	24045
828.02	23950
828.159	23916
828.298	24049
828.437	24110
828.577	23965
828.716	24171
828.855	24083
828.994	23893
829.134	23726
829.273	23783
829.412	23718
829.551	23779
829.69	23790
829.829	23946
829.968	23809
830.107	23950
830.246	23824
830.385	23668
830.524	23611
830.663	23691
830.802	23433
830.941	23421
831.08	23421
831.219	23505
831.357	23497
831.496	23726
831.635	23391
831.774	23204
831.913	23349
832.051	23090
832.19	23170
832.329	23189
832.467	23079
832.606	23048
832.744	23064
832.883	23022
833.022	23075
833.16	23067
833.299	23147
833.437	23147
833.576	23136
833.714	23208
833.852	23250
833.991	23223
834.129	23292
834.267	23174
834.406	23098
834.544	23121
834.682	23102
834.821	23155
834.959	23239
835.097	22942
835.235	23246
835.373	23208
835.511	23105
835.65	23048
835.788	23010
835.926	22809
836.064	22790
836.202	22877
836.34	22904
836.478	23056
836.615	23025
836.753	22980
836.891	23155
837.029	23090
837.167	23022
837.305	22923
837.443	22987
837.58	22839
837.718	22824
837.856	22847
837.993	22831
838.131	22877
838.269	22710
838.406	22904
838.544	22679
838.681	22527
838.819	22481
838.956	22363
839.094	22360
839.231	22375
839.369	22546
839.506	22660
839.643	22584
839.781	22306
839.918	22223
840.055	22440
840.193	22322
840.33	22204
840.467	22265
840.604	22481
840.742	22516
840.879	22253
841.016	22109
841.153	22188
841.29	22386
841.427	22249
841.564	22230
841.701	22200
841.838	22303
841.975	22188
842.112	22234
842.249	22032
842.385	22055
842.522	22204
842.659	22090
842.796	21968
842.933	22017
843.069	21972
843.206	22025
843.343	22051
843.479	22002
843.616	21991
843.752	21793
843.889	21850
844.025	21983
844.162	21869
844.298	21903
844.435	21922
844.571	21838
844.708	21838
844.844	22006
844.98	21930
845.117	21926
845.253	21732
845.389	21637
845.525	21720
845.661	21648
845.798	21572
845.934	21504
846.07	21488
846.206	21595
846.342	21656
846.478	21462
846.614	21351
846.75	21233
846.886	21157
847.022	21294
847.158	21378
847.294	21249
847.429	21332
847.565	21291
847.701	21450
847.837	21024
847.972	20929
848.108	21112
848.244	20975
848.379	20948
848.515	20956
848.65	20910
848.786	20834
848.921	20994
849.057	20952
849.192	20967
849.328	20941
849.463	20853
849.598	20838
849.734	20804
849.869	20773
850.004	20648
850.14	20697
850.275	20750
850.41	20617
850.545	20644
850.68	20655
850.815	20590
850.95	20651
851.085	20838
851.22	20743
851.355	20678
851.49	20617
851.625	20678
851.76	20465
851.895	20530
852.03	20541
852.165	20598
852.299	20629
852.434	20853
852.569	20613
852.703	20674
852.838	20686
852.973	20785
853.107	20762
853.242	20556
853.376	20511
853.511	20374
853.645	20393
853.78	20575
853.914	20423
854.048	20488
854.183	20499
854.317	20469
854.451	20678
854.585	20457
854.72	20454
854.854	20530
854.988	20381
855.122	20469
855.256	20438
855.39	20442
855.524	20423
855.658	20594
855.792	20556
855.926	20571
856.06	20434
856.194	20484
856.327	20530
856.461	20461
856.595	20438
856.729	20434
856.862	20663
856.996	20457
857.13	20514
857.263	20606
857.397	20651
857.53	20404
857.664	20514
857.797	20541
857.931	20541
858.064	20507
858.197	20655
858.331	20389
858.464	20465
858.597	20370
858.731	20602
858.864	20507
858.997	20495
859.13	20480
859.263	20415
859.396	20537
859.529	20480
859.662	20431
859.795	20434
859.928	20442
860.061	20503
860.194	20560
860.327	20492
860.46	20457
860.592	20594
860.725	20606
860.858	20484
860.99	20427
861.123	20374
861.256	20518
861.388	20606
861.521	21108
861.653	20423
861.786	20199
861.918	20263
862.05	20362
862.183	20423
862.315	20488
862.447	20469
862.58	20328
862.712	20256
862.844	20195
862.976	20267
863.108	20271
863.24	20785
863.372	20115
863.504	20233
863.636	20183
863.768	20244
863.9	20092
864.032	20115
864.164	20054
864.296	20214
864.428	20381
864.559	20240
864.691	20210
864.823	20267
864.954	20111
865.086	20271
865.217	20088
865.349	20081
865.48	20054
865.612	20122
865.743	20339
865.875	20195
866.006	20054
866.137	20054
866.269	20100
866.4	20062
866.531	20046
866.662	20050
866.793	19978
866.924	20084
867.055	20043
867.186	20016
867.317	20020
867.448	19925
867.579	19959
867.71	19879
867.841	19890
867.972	19970
868.103	20024
868.233	20012
868.364	20008
868.495	20168
868.625	20229
868.756	20347
868.886	20157
869.017	20286
869.147	20362
869.278	20423
869.408	20218
869.539	20381
869.669	20431
869.799	20393
869.929	20492
870.06	20389
870.19	20579
870.32	20499
870.45	20552
870.58	20678
870.71	20792
870.84	20857
870.97	20743
871.1	20716
871.23	20819
871.36	20952
871.489	20804
871.619	20895
871.749	20834
871.879	20914
872.008	20914
872.138	20925
872.267	20864
872.397	20659
872.526	20796
872.656	20678
872.785	20720
872.915	21005
873.044	21005
873.173	20777
873.303	20918
873.432	20960
873.561	20956
873.69	20956
873.819	20906
873.948	21039
874.077	20838
874.206	20918
874.335	20921
874.464	21039
874.593	21108
874.722	21108
874.851	21199
874.979	21154
875.108	21100
875.237	21085
875.365	21039
875.494	21142
875.623	21237
875.751	21074
875.88	21127
876.008	21321
876.136	21416
876.265	21466
876.393	21580
876.521	21633
876.65	21542
876.778	21538
876.906	21519
877.034	21488
877.162	21412
877.29	21496
877.418	21591
877.546	21469
877.674	21568
877.802	21496
877.93	21412
878.058	21462
878.185	21378
878.313	21435
878.441	21530
878.568	21256
878.696	21431
878.824	21466
878.951	21568
879.079	21671
879.206	21850
879.333	21686
879.461	21450
879.588	21618
879.715	21690
879.842	21762
879.97	21568
880.097	21336
880.224	21268
880.351	21367
880.478	21367
880.605	21302
880.732	21268
880.859	21450
880.986	21192
881.112	21260
881.239	21211
881.366	21036
881.493	21089
881.619	20853
881.746	20986
881.872	20937
881.999	20902
882.125	20857
882.252	20914
882.378	20880
882.505	20979
882.631	20750
882.757	20621
882.883	20826
883.01	20533
883.136	20590
883.262	20499
883.388	20454
883.514	20587
883.64	20773
883.766	20579
883.892	20457
884.018	20450
884.143	20549
884.269	20689
884.395	20431
884.52	20298
884.646	20271
884.772	20214
884.897	20111
885.023	20248
885.148	20362
885.274	20446
885.399	20374
885.524	20294
885.65	20225
885.775	20282
885.9	20252
886.025	20385
886.15	20400
886.275	20195
886.4	20065
886.525	20183
886.65	20119
886.775	20081
886.9	20275
887.025	20522
887.149	20282
887.274	20107
887.399	19993
887.523	20092
887.648	20043
887.773	19978
887.897	20157
888.021	20187
888.146	20172
888.27	20149
888.395	20199
888.519	20012
888.643	20035
888.767	20100
888.891	20054
889.015	19947
889.139	19890
889.263	19894
889.387	19894
889.511	20145
889.635	19989
889.759	19826
889.883	19780
890.006	19845
890.13	19890
890.254	19757
890.377	19685
890.501	19525
890.624	19529
890.748	19647
890.871	19453
890.995	19441
891.118	19278
891.241	19449
891.364	19529
891.488	19533
891.611	19510
891.734	19415
891.857	19567
891.98	19464
892.103	19514
892.226	19350
892.349	19339
892.471	19240
892.594	19270
892.717	19449
892.839	19263
892.962	19194
893.085	19297
893.207	19377
893.33	19282
893.452	19270
893.575	19388
893.697	19422
893.819	19468
893.941	19582
894.064	19529
894.186	19209
894.308	19263
894.43	19567
894.552	19518
894.674	19426
894.796	19297
894.918	19316
895.04	19316
895.161	19426
895.283	19297
895.405	19354
895.526	19282
895.648	19316
895.769	19377
895.891	19335
896.012	19369
896.134	19457
896.255	19381
896.376	19312
896.498	19316
896.619	19434
896.74	19472
896.861	19445
896.982	19685
897.103	19772
897.224	19719
897.345	19639
897.466	19662
897.587	19666
897.708	19753
897.828	19616
897.949	19457
898.07	19453
898.19	19426
898.311	19643
898.431	19590
898.552	19563
898.672	19643
898.792	19563
898.913	19635
899.033	19567
899.153	19430
899.273	19232
899.393	19320
899.513	19339
899.633	19384
899.753	19354
899.873	19274
899.993	19301
900.113	19297
900.232	19343
900.352	19289
900.472	19289
900.591	19164
900.711	19206
900.83	19228
900.95	19164
901.069	19244
901.189	19069
901.308	18840
901.427	18738
901.546	18734
901.665	18768
901.784	18700
901.904	18570
902.023	18506
902.141	18262
902.26	18277
902.379	18289
902.498	18311
902.617	18197
902.735	18292
902.854	18308
902.973	18106
903.091	17980
903.21	17870
903.328	17954
903.446	17809
903.565	17748
903.683	17786
903.801	17634
903.919	17714
904.038	17608
904.156	17471
904.274	17657
904.392	17368
904.51	17501
904.627	17539
904.745	17589
904.863	17627
904.981	17292
905.098	17284
905.216	17166
905.334	17265
905.451	17189
905.569	17155
905.686	17227
905.803	17200
905.921	17048
906.038	17102
906.155	17029
906.272	16805
906.389	16984
906.506	16797
906.623	16641
906.74	16740
906.857	16634
906.974	16668
907.091	16793
907.208	16831
907.324	16736
907.441	16626
907.557	16523
907.674	16584
907.79	16413
907.907	16386
908.023	16546
908.139	16561
908.256	16390
908.372	16344
908.488	16284
908.604	16238
908.72	16150
908.836	16169
908.952	16287
909.068	16246
909.184	16249
909.3	16147
909.415	16177
909.531	16097
909.647	15964
909.762	15785
909.878	15819
909.993	15949
910.108	15979
910.224	15835
910.339	15804
910.454	15766
910.57	15648
910.685	15606
910.8	15945
910.915	15854
911.03	15720
911.145	15580
911.259	15591
911.374	15587
911.489	15526
911.604	15405
911.718	15291
911.833	15264
911.947	15104
912.062	15123
912.176	15173
912.291	15173
912.405	15214
912.519	15424
912.633	15450
912.748	15256
912.862	15173
912.976	15157
913.09	14937
913.204	15032
913.318	15146
913.431	15176
913.545	15207
913.659	15230
913.772	15051
913.886	14979
914	14925
914.113	15070
914.226	15028
914.34	14937
914.453	14823
914.566	14937
914.68	14853
914.793	14727
914.906	14575
915.019	14617
915.132	14400
915.245	14552
915.358	14533
915.47	14552
915.583	14530
915.696	14507
915.809	14625
915.921	14651
916.034	14377
916.146	14374
916.259	14374
916.371	14514
916.483	14511
916.595	14290
916.708	14256
916.82	14336
916.932	14358
917.044	14309
917.156	14339
917.268	14244
917.38	14202
917.491	14187
917.603	14138
917.715	14210
917.826	14259
917.938	14103
918.049	14005
918.161	14142
918.272	14240
918.384	14267
918.495	14096
918.606	13947
918.717	13989
918.828	13978
918.939	14027
919.05	13864
919.161	13799
919.272	13807
919.383	13845
919.494	14073
919.604	14187
919.715	13940
919.826	13780
919.936	13887
920.047	14073
920.157	14012
920.267	14199
920.378	13879
920.488	13841
920.598	14119
920.708	14320
920.818	14062
920.928	14065
921.038	14214
921.148	14161
921.258	13860
921.368	13811
921.477	13746
921.587	13670
921.697	13537
921.806	13681
921.916	13438
922.025	13430
922.134	13400
922.244	13381
922.353	13468
922.462	13209
922.571	13198
922.68	12981
922.789	12958
922.898	13080
923.007	12863
923.116	12985
923.224	12890
923.333	12970
923.442	12871
923.55	12768
923.659	12882
923.767	12837
923.876	12791
923.984	12878
924.092	12703
924.201	12722
924.309	12821
924.417	12719
924.525	12654
924.633	12669
924.741	13441
924.849	12471
924.956	12635
925.064	12407
925.172	12418
925.279	12441
925.387	12460
925.494	12502
925.602	12521
925.709	12471
925.816	12407
925.924	12338
926.031	12441
926.138	12433
926.245	12429
926.352	12239
926.459	12490
926.566	12498
926.673	12380
926.779	12197
926.886	12163
926.993	12095
927.099	12087
927.206	12007
927.312	11923
927.419	12148
927.525	12038
927.631	11969
927.737	11882
927.843	11870
927.95	11786
928.056	11885
928.162	11942
928.267	12022
928.373	12483
928.479	11912
928.585	11672
928.69	11802
928.796	11878
928.901	11748
929.007	11619
929.112	11691
929.218	11726
929.323	11661
929.428	11680
929.533	11684
929.638	11497
929.743	11532
929.848	11566
929.953	11596
930.058	11467
930.163	11391
930.267	11242
930.372	11410
930.477	11334
930.581	11505
930.685	11318
930.79	11128
930.894	11193
930.998	11181
931.103	11269
931.207	10968
931.311	10793
931.415	10801
931.519	10523
931.623	10611
