Data from test_V78500241_2674.txt Node
Date: Fri Mar 25 15:28:28 CST 2022
User: usil
Spectrometer: V785-0024
Trigger mode: 0
Integration Time (sec): 4.000000E-1
Scans to average: 1
Nonlinearity correction enabled: false
Boxcar width: 0
Storing dark spectrum: false
XAxis mode: Wavelengths
Number of Pixels in Spectrum: 1024
>>>>>Begin Spectral Data<<<<<
801.071	26918
801.214	26918
801.356	26617
801.499	26682
801.641	26507
801.783	26434
801.926	26473
802.068	26503
802.211	26317
802.353	26366
802.496	26176
802.638	26100
802.78	26122
802.923	25993
803.065	26024
803.208	26016
803.35	26096
803.492	26210
803.635	26210
803.777	26172
803.919	26294
804.061	26564
804.204	26336
804.346	26119
804.488	26176
804.63	26176
804.773	26161
804.915	26138
805.057	26298
805.199	26138
805.341	26202
805.483	26324
805.626	26305
805.768	26046
805.91	26309
806.052	26393
806.194	26187
806.336	26431
806.478	26267
806.62	26290
806.762	26453
806.904	26617
807.046	26762
807.188	26727
807.33	26765
807.472	26708
807.614	26750
807.756	26644
807.898	26583
808.04	26602
808.182	26556
808.324	26625
808.465	26556
808.607	26906
808.749	26902
808.891	27024
809.033	27211
809.174	26861
809.316	26853
809.458	26963
809.6	26883
809.741	27036
809.883	27024
810.025	27165
810.166	27176
810.308	27154
810.45	27074
810.591	27173
810.733	26880
810.875	26876
811.016	26902
811.158	26743
811.299	27028
811.441	27169
811.582	27131
811.724	26937
811.865	26792
812.007	26834
812.148	26998
812.29	26921
812.431	27024
812.573	27127
812.714	27317
812.855	27405
812.997	27386
813.138	27682
813.279	27679
813.421	27401
813.562	27233
813.703	27272
813.845	27138
813.986	26830
814.127	26720
814.268	26560
814.41	26556
814.551	26537
814.692	26545
814.833	26511
814.974	26332
815.115	26442
815.256	26556
815.397	26480
815.539	26453
815.68	26317
815.821	26199
815.962	26465
816.103	26240
816.244	26119
816.385	25993
816.526	26016
816.666	25986
816.807	25898
816.948	25856
817.089	25932
817.23	25780
817.371	25753
817.512	25685
817.653	25753
817.793	25814
817.934	25704
818.075	25772
818.216	25830
818.356	25712
818.497	25666
818.638	25422
818.778	25620
818.919	25479
819.06	25529
819.2	25765
819.341	25719
819.481	25742
819.622	25875
819.762	26240
819.903	25986
820.043	25902
820.184	25963
820.324	25883
820.465	25993
820.605	25890
820.746	25871
820.886	25830
821.026	25913
821.167	25818
821.307	25795
821.447	25856
821.588	25734
821.728	25476
821.868	25441
822.008	25259
822.149	25251
822.289	25175
822.429	25019
822.569	24962
822.709	24928
822.849	24802
822.99	24703
823.13	24871
823.27	24696
823.41	24593
823.55	24505
823.69	24589
823.83	24574
823.97	24353
824.11	24372
824.25	24350
824.389	24460
824.529	24403
824.669	24323
824.809	24601
824.949	24372
825.089	24525
825.228	24384
825.368	24277
825.508	24197
825.648	24235
825.787	24357
825.927	24361
826.067	24201
826.206	24213
826.346	24365
826.485	24281
826.625	24220
826.765	24357
826.904	24315
827.044	23961
827.183	24034
827.323	23824
827.462	23973
827.601	24117
827.741	23965
827.88	23961
828.02	23817
828.159	23866
828.298	24018
828.437	24038
828.577	23847
828.716	24133
828.855	23851
828.994	23668
829.134	23642
829.273	23783
829.412	23642
829.551	23638
829.69	23604
829.829	23627
829.968	23718
830.107	23771
830.246	23661
830.385	23687
830.524	23505
830.663	23585
830.802	23467
830.941	23140
831.08	23235
831.219	23296
831.357	23311
831.496	23573
831.635	23368
831.774	23121
831.913	23231
832.051	23117
832.19	22980
832.329	23086
832.467	23056
832.606	22831
832.744	22908
832.883	23071
833.022	22850
833.16	22976
833.299	23006
833.437	22995
833.576	23102
833.714	23052
833.852	23064
833.991	23079
834.129	23136
834.267	23018
834.406	23094
834.544	23064
834.682	23124
834.821	22953
834.959	23162
835.097	23025
835.235	23151
835.373	23033
835.511	22999
835.65	22850
835.788	22786
835.926	22736
836.064	22725
836.202	22782
836.34	22934
836.478	23033
836.615	22790
836.753	22862
836.891	22987
837.029	22995
837.167	22847
837.305	22725
837.443	22641
837.58	22706
837.718	22908
837.856	22778
837.993	22615
838.131	22630
838.269	22611
838.406	22611
838.544	22557
838.681	22379
838.819	22481
838.956	22276
839.094	22105
839.231	22329
839.369	22333
839.506	22641
839.643	22470
839.781	22211
839.918	22124
840.055	22207
840.193	22173
840.33	22188
840.467	22055
840.604	22185
840.742	22459
840.879	22135
841.016	22051
841.153	22097
841.29	22257
841.427	22029
841.564	22173
841.701	22116
841.838	22025
841.975	22006
842.112	22067
842.249	21983
842.385	21918
842.522	22181
842.659	21960
842.796	22021
842.933	21945
843.069	21876
843.206	21854
843.343	21945
843.479	21918
843.616	21842
843.752	21720
843.889	21694
844.025	21850
844.162	21652
844.298	21842
844.435	21690
844.571	21595
844.708	21892
844.844	21831
844.98	21838
845.117	21747
845.253	21534
845.389	21542
845.525	21603
845.661	21538
845.798	21412
845.934	21542
846.07	21477
846.206	21530
846.342	21408
846.478	21363
846.614	21188
846.75	21192
846.886	21211
847.022	21275
847.158	21268
847.294	21275
847.429	21302
847.565	21074
847.701	21313
847.837	20826
847.972	20811
848.108	20948
848.244	21005
848.379	20826
848.515	20792
848.65	20781
848.786	20693
848.921	20845
849.057	21001
849.192	20861
849.328	20864
849.463	20765
849.598	20731
849.734	20686
849.869	20552
850.004	20644
850.14	20473
850.275	20446
850.41	20545
850.545	20423
850.68	20560
850.815	20469
850.95	20484
851.085	20712
851.22	20522
851.355	20518
851.49	20396
851.625	20507
851.76	20438
851.895	20499
852.03	20434
852.165	20533
852.299	20541
852.434	20522
852.569	20541
852.703	20564
852.838	20556
852.973	20651
853.107	20667
853.242	20560
853.376	20362
853.511	20282
853.645	20400
853.78	20442
853.914	20374
854.048	20164
854.183	20286
854.317	20347
854.451	20594
854.585	20358
854.72	20442
854.854	20434
854.988	20332
855.122	20465
855.256	20317
855.39	20408
855.524	20427
855.658	20404
855.792	20374
855.926	20366
856.06	20461
856.194	20408
856.327	20351
856.461	20324
856.595	20271
856.729	20298
856.862	20362
856.996	20351
857.13	20446
857.263	20476
857.397	20366
857.53	20381
857.664	20320
857.797	20480
857.931	20419
858.064	20381
858.197	20438
858.331	20332
858.464	20351
858.597	20244
858.731	20248
858.864	20294
858.997	20221
859.13	20301
859.263	20423
859.396	20427
859.529	20377
859.662	20294
859.795	20362
859.928	20320
860.061	20533
860.194	20545
860.327	20415
860.46	20339
860.592	20499
860.725	20431
860.858	20530
860.99	20351
861.123	20374
861.256	20256
861.388	20301
861.521	20941
861.653	20180
861.786	20172
861.918	20183
862.05	20176
862.183	20271
862.315	20362
862.447	20423
862.58	20157
862.712	20027
862.844	20107
862.976	20187
863.108	20164
863.24	20495
863.372	19944
863.504	20149
863.636	20035
863.768	20138
863.9	20062
864.032	19913
864.164	20020
864.296	20138
864.428	20180
864.559	20096
864.691	20161
864.823	20153
864.954	19940
865.086	20062
865.217	20054
865.349	19871
865.48	20062
865.612	19967
865.743	20050
865.875	19940
866.006	19898
866.137	19845
866.269	20062
866.4	19932
866.531	19917
866.662	19989
866.793	19917
866.924	19936
867.055	19986
867.186	19936
867.317	19883
867.448	19803
867.579	19928
867.71	19883
867.841	19814
867.972	20016
868.103	19753
868.233	19883
868.364	19928
868.495	20058
868.625	20149
868.756	20229
868.886	20001
869.017	20100
869.147	20385
869.278	20221
869.408	20153
869.539	20191
869.669	20221
869.799	20237
869.929	20275
870.06	20271
870.19	20495
870.32	20556
870.45	20541
870.58	20571
870.71	20739
870.84	20636
870.97	20568
871.1	20541
871.23	20670
871.36	20769
871.489	20663
871.619	20708
871.749	20815
871.879	20861
872.008	20765
872.138	20807
872.267	20724
872.397	20533
872.526	20583
872.656	20617
872.785	20499
872.915	20727
873.044	20849
873.173	20765
873.303	20792
873.432	20876
873.561	20842
873.69	20815
873.819	20781
873.948	20788
874.077	20857
874.206	20773
874.335	20720
874.464	20899
874.593	20948
874.722	20891
874.851	21009
874.979	21081
875.108	21062
875.237	21070
875.365	20895
875.494	21047
875.623	21070
875.751	21108
875.88	21070
876.008	21173
876.136	21245
876.265	21439
876.393	21614
876.521	21488
876.65	21473
876.778	21420
876.906	21393
877.034	21420
877.162	21393
877.29	21329
877.418	21340
877.546	21405
877.674	21454
877.802	21359
877.93	21283
878.058	21401
878.185	21138
878.313	21260
878.441	21435
878.568	21245
878.696	21428
878.824	21420
878.951	21507
879.079	21511
879.206	21732
879.333	21549
879.461	21378
879.588	21462
879.715	21553
879.842	21538
879.97	21458
880.097	21165
880.224	21264
880.351	21165
880.478	21135
880.605	21165
880.732	21116
880.859	21447
880.986	21291
881.112	21226
881.239	21070
881.366	21017
881.493	20971
881.619	20838
881.746	20838
881.872	20853
881.999	20781
882.125	20708
882.252	20804
882.378	20754
882.505	20838
882.631	20663
882.757	20629
882.883	20549
883.01	20454
883.136	20499
883.262	20351
883.388	20377
883.514	20659
883.64	20530
883.766	20442
883.892	20332
884.018	20343
884.143	20492
884.269	20465
884.395	20328
884.52	20130
884.646	20164
884.772	20058
884.897	20195
885.023	20138
885.148	20210
885.274	20309
885.399	20240
885.524	20058
885.65	20263
885.775	20092
885.9	20138
886.025	20271
886.15	20275
886.275	20164
886.4	20054
886.525	20180
886.65	20088
886.775	20073
886.9	20263
887.025	20332
887.149	20107
887.274	20039
887.399	19955
887.523	19936
887.648	19913
887.773	19833
887.897	20035
888.021	20020
888.146	19917
888.27	20062
888.395	20119
888.519	19925
888.643	19909
888.767	20031
888.891	19951
889.015	19780
889.139	19921
889.263	19769
889.387	19791
889.511	19959
889.635	19849
889.759	19670
889.883	19822
890.006	19784
890.13	19925
890.254	19597
890.377	19601
890.501	19537
890.624	19487
890.748	19578
890.871	19445
890.995	19304
891.118	19228
891.241	19301
891.364	19259
891.488	19445
891.611	19327
891.734	19289
891.857	19407
891.98	19312
892.103	19388
892.226	19297
892.349	19335
892.471	19190
892.594	19320
892.717	19236
892.839	19270
892.962	19274
893.085	19392
893.207	19259
893.33	19061
893.452	19126
893.575	19293
893.697	19232
893.819	19343
893.941	19445
894.064	19285
894.186	19152
894.308	19179
894.43	19312
894.552	19419
894.674	19358
894.796	19076
894.918	19247
895.04	19179
895.161	19457
895.283	19297
895.405	19129
895.526	19244
895.648	19263
895.769	19362
895.891	19316
896.012	19350
896.134	19316
896.255	19415
896.376	19278
896.498	19320
896.619	19259
896.74	19266
896.861	19346
896.982	19651
897.103	19784
897.224	19601
897.345	19552
897.466	19373
897.587	19518
897.708	19696
897.828	19552
897.949	19533
898.07	19320
898.19	19350
898.311	19586
898.431	19525
898.552	19514
898.672	19571
898.792	19643
898.913	19529
899.033	19430
899.153	19255
899.273	19202
899.393	19274
899.513	19304
899.633	19282
899.753	19228
899.873	19122
899.993	19392
900.113	19312
900.232	19190
900.352	19206
900.472	18985
900.591	19027
900.711	19194
900.83	18882
900.95	19164
901.069	19156
901.189	18920
901.308	18760
901.427	18582
901.546	18597
901.665	18623
901.784	18688
901.904	18540
902.023	18445
902.141	18289
902.26	18167
902.379	18235
902.498	18296
902.617	18277
902.735	18144
902.854	18178
902.973	18148
903.091	17889
903.21	17790
903.328	17923
903.446	17855
903.565	17665
903.683	17745
903.801	17619
903.919	17729
904.038	17585
904.156	17395
904.274	17493
904.392	17425
904.51	17471
904.627	17311
904.745	17554
904.863	17471
904.981	17189
905.098	17045
905.216	17102
905.334	17204
905.451	17102
905.569	17140
905.686	17109
905.803	17143
905.921	16896
906.038	17041
906.155	16949
906.272	16748
906.389	16759
906.506	16710
906.623	16824
906.74	16679
906.857	16451
906.974	16615
907.091	16748
907.208	16774
907.324	16611
907.441	16489
907.557	16390
907.674	16432
907.79	16272
907.907	16337
908.023	16363
908.139	16436
908.256	16337
908.372	16234
908.488	16310
908.604	16196
908.72	16036
908.836	16173
908.952	16067
909.068	16044
909.184	16207
909.3	16169
909.415	16112
909.531	16036
909.647	15846
909.762	15781
909.878	15804
909.993	15846
910.108	15770
910.224	15812
910.339	15823
910.454	15618
910.57	15667
910.685	15595
910.8	15819
910.915	15804
911.03	15618
911.145	15450
911.259	15313
911.374	15405
911.489	15359
911.604	15329
911.718	15211
911.833	15233
911.947	15123
912.062	15081
912.176	15199
912.291	15188
912.405	15214
912.519	15454
912.633	15370
912.748	15237
912.862	15112
912.976	15142
913.09	14861
913.204	14967
913.318	14941
913.431	15051
913.545	14956
913.659	15150
913.772	14937
913.886	14868
914	14811
914.113	14914
914.226	14960
914.34	14971
914.453	14640
914.566	14864
914.68	14769
914.793	14705
914.906	14545
915.019	14404
915.132	14358
915.245	14434
915.358	14396
915.47	14434
915.583	14343
915.696	14457
915.809	14469
915.921	14541
916.034	14408
916.146	14355
916.259	14328
916.371	14381
916.483	14317
916.595	14275
916.708	14282
916.82	14324
916.932	14202
917.044	14195
917.156	14290
917.268	14172
917.38	14214
917.491	14126
917.603	14111
917.715	14210
917.826	14168
917.938	14054
918.049	13974
918.161	14027
918.272	14278
918.384	14172
918.495	14130
918.606	13936
918.717	13871
918.828	13913
918.939	14050
919.05	13837
919.161	13799
919.272	13704
919.383	13803
919.494	13936
919.604	14107
919.715	13925
919.826	13883
919.936	13868
920.047	13955
920.157	13890
920.267	14103
920.378	13913
920.488	13875
920.598	14092
920.708	14206
920.818	14035
920.928	14024
921.038	14210
921.148	14130
921.258	13944
921.368	13822
921.477	13734
921.587	13658
921.697	13605
921.806	13674
921.916	13457
922.025	13350
922.134	13407
922.244	13251
922.353	13282
922.462	13168
922.571	13091
922.68	13050
922.789	12985
922.898	12996
923.007	12920
923.116	13008
923.224	12920
923.333	12890
923.442	12867
923.55	12802
923.659	12806
923.767	12837
923.876	12814
923.984	12867
924.092	12681
924.201	12696
924.309	12730
924.417	12684
924.525	12597
924.633	12703
924.741	13590
924.849	12456
924.956	12654
925.064	12350
925.172	12296
925.279	12365
925.387	12441
925.494	12388
925.602	12498
925.709	12498
925.816	12300
925.924	12395
926.031	12384
926.138	12437
926.245	12334
926.352	12213
926.459	12334
926.566	12445
926.673	12266
926.779	12251
926.886	12163
926.993	12045
927.099	12102
927.206	11996
927.312	11920
927.419	12057
927.525	11992
927.631	11961
927.737	11885
927.843	11863
927.95	11691
928.056	11813
928.162	11863
928.267	11885
928.373	12391
928.479	11908
928.585	11630
928.69	11764
928.796	11931
928.901	11714
929.007	11482
929.112	11741
929.218	11741
929.323	11528
929.428	11547
929.533	11661
929.638	11474
929.743	11497
929.848	11577
929.953	11532
930.058	11379
930.163	11299
930.267	11303
930.372	11486
930.477	11250
930.581	11353
930.685	11356
930.79	11128
930.894	11071
930.998	11166
931.103	11242
931.207	10942
931.311	10877
931.415	10729
931.519	10538
931.623	10626
