Data from test_V78500241_2360.txt Node
Date: Fri Mar 25 15:26:17 CST 2022
User: usil
Spectrometer: V785-0024
Trigger mode: 0
Integration Time (sec): 4.000000E-1
Scans to average: 1
Nonlinearity correction enabled: false
Boxcar width: 0
Storing dark spectrum: false
XAxis mode: Wavelengths
Number of Pixels in Spectrum: 1024
>>>>>Begin Spectral Data<<<<<
801.071	27393
801.214	27344
801.356	27081
801.499	26853
801.641	26823
801.783	26758
801.926	26979
802.068	26815
802.211	26750
802.353	26727
802.496	26415
802.638	26469
802.78	26522
802.923	26328
803.065	26317
803.208	26461
803.35	26533
803.492	26644
803.635	26636
803.777	26800
803.919	26739
804.061	26925
804.204	26762
804.346	26575
804.488	26575
804.63	26849
804.773	26537
804.915	26739
805.057	26724
805.199	26663
805.341	26785
805.483	26743
805.626	26807
805.768	26746
805.91	26853
806.052	26720
806.194	26773
806.336	26891
806.478	26720
806.62	26902
806.762	26952
806.904	26948
807.046	27367
807.188	27081
807.33	27287
807.472	27386
807.614	27127
807.756	27207
807.898	27161
808.04	26975
808.182	27013
808.324	27077
808.465	26979
808.607	27325
808.749	27401
808.891	27382
809.033	27492
809.174	27511
809.316	27283
809.458	27439
809.6	27317
809.741	27431
809.883	27587
810.025	27705
810.166	27519
810.308	27766
810.45	27576
810.591	27610
810.733	27397
810.875	27268
811.016	27298
811.158	27302
811.299	27344
811.441	27351
811.582	27473
811.724	27363
811.865	27382
812.007	27294
812.148	27211
812.29	27332
812.431	27412
812.573	27637
812.714	27766
812.855	27911
812.997	28063
813.138	28097
813.279	28063
813.421	27987
813.562	27865
813.703	27720
813.845	27545
813.986	27298
814.127	27085
814.268	27123
814.41	27096
814.551	26971
814.692	27180
814.833	26960
814.974	26967
815.115	27222
815.256	26910
815.397	26880
815.539	26883
815.68	26891
815.821	26785
815.962	26762
816.103	26762
816.244	26682
816.385	26708
816.526	26549
816.666	26419
816.807	26389
816.948	26347
817.089	26530
817.23	26381
817.371	26355
817.512	26339
817.653	26336
817.793	26145
817.934	26328
818.075	26237
818.216	26324
818.356	26286
818.497	26088
818.638	26130
818.778	25959
818.919	25986
819.06	26206
819.2	26195
819.341	26328
819.481	26134
819.622	26571
819.762	26686
819.903	26583
820.043	26461
820.184	26339
820.324	26495
820.465	26473
820.605	26438
820.746	26370
820.886	26237
821.026	26396
821.167	26317
821.307	26450
821.447	26199
821.588	26183
821.728	26058
821.868	25978
822.008	25738
822.149	25807
822.289	25830
822.429	25548
822.569	25476
822.709	25476
822.849	25327
822.99	25228
823.13	25285
823.27	25213
823.41	25031
823.55	24989
823.69	25027
823.83	25084
823.97	25046
824.11	24973
824.25	24859
824.389	24928
824.529	24992
824.669	24939
824.809	25141
824.949	24973
825.089	25057
825.228	24798
825.368	24703
825.508	24734
825.648	24757
825.787	24791
825.927	24909
826.067	24639
826.206	24753
826.346	24878
826.485	24768
826.625	24692
826.765	24875
826.904	24875
827.044	24772
827.183	24509
827.323	24528
827.462	24532
827.601	24547
827.741	24391
827.88	24589
828.02	24498
828.159	24388
828.298	24407
828.437	24555
828.577	24247
828.716	24608
828.855	24323
828.994	24262
829.134	24300
829.273	24232
829.412	24209
829.551	24038
829.69	24235
829.829	24167
829.968	24201
830.107	24281
830.246	24098
830.385	24205
830.524	24163
830.663	24041
830.802	24053
830.941	23863
831.08	23726
831.219	23790
831.357	23901
831.496	24011
831.635	23684
831.774	23646
831.913	23665
832.051	23566
832.19	23547
832.329	23554
832.467	23596
832.606	23364
832.744	23459
832.883	23444
833.022	23417
833.16	23531
833.299	23570
833.437	23611
833.576	23531
833.714	23520
833.852	23562
833.991	23589
834.129	23592
834.267	23467
834.406	23531
834.544	23619
834.682	23478
834.821	23509
834.959	23828
835.097	23463
835.235	23558
835.373	23520
835.511	23493
835.65	23452
835.788	23372
835.926	23318
836.064	23254
836.202	23170
836.34	23436
836.478	23436
836.615	23395
836.753	23330
836.891	23425
837.029	23406
837.167	23269
837.305	23395
837.443	23239
837.58	23223
837.718	23197
837.856	23261
837.993	23159
838.131	23242
838.269	23037
838.406	23208
838.544	23071
838.681	23060
838.819	22843
838.956	22679
839.094	22717
839.231	22759
839.369	22900
839.506	23143
839.643	23025
839.781	22767
839.918	22774
840.055	22512
840.193	22717
840.33	22596
840.467	22748
840.604	22588
840.742	22892
840.879	22615
841.016	22577
841.153	22508
841.29	22778
841.427	22744
841.564	22683
841.701	22672
841.838	22573
841.975	22557
842.112	22577
842.249	22478
842.385	22314
842.522	22634
842.659	22485
842.796	22249
842.933	22367
843.069	22402
843.206	22421
843.343	22538
843.479	22382
843.616	22352
843.752	22147
843.889	22101
844.025	22341
844.162	22048
844.298	22173
844.435	22204
844.571	22032
844.708	22246
844.844	22272
844.98	22238
845.117	22249
845.253	22097
845.389	22044
845.525	21972
845.661	22048
845.798	21960
845.934	21987
846.07	21842
846.206	21934
846.342	21998
846.478	21861
846.614	21622
846.75	21488
846.886	21625
847.022	21679
847.158	21564
847.294	21644
847.429	21728
847.565	21500
847.701	21888
847.837	21504
847.972	21359
848.108	21462
848.244	21477
848.379	21275
848.515	21245
848.65	21256
848.786	21230
848.921	21233
849.057	21272
849.192	21367
849.328	21237
849.463	21272
849.598	21131
849.734	21241
849.869	21001
850.004	20887
850.14	21135
850.275	20895
850.41	20956
850.545	20982
850.68	21020
850.815	21039
850.95	20960
851.085	21199
851.22	21077
851.355	20998
851.49	21024
851.625	21039
851.76	20960
851.895	20842
852.03	20876
852.165	20979
852.299	20902
852.434	20963
852.569	21085
852.703	20982
852.838	21043
852.973	21081
853.107	21100
853.242	20883
853.376	20830
853.511	20758
853.645	20804
853.78	20910
853.914	20792
854.048	20883
854.183	20705
854.317	20868
854.451	20986
854.585	20811
854.72	20769
854.854	20849
854.988	20826
855.122	20807
855.256	20644
855.39	20781
855.524	20929
855.658	20864
855.792	20796
855.926	20853
856.06	20765
856.194	20918
856.327	20819
856.461	20807
856.595	20674
856.729	20845
856.862	20849
856.996	20864
857.13	20937
857.263	20880
857.397	20895
857.53	20842
857.664	20834
857.797	20777
857.931	20876
858.064	20864
858.197	20990
858.331	20796
858.464	20735
858.597	20613
858.731	20724
858.864	20826
858.997	20743
859.13	20914
859.263	20845
859.396	20921
859.529	20861
859.662	20929
859.795	20746
859.928	20929
860.061	21024
860.194	20998
860.327	20899
860.46	20785
860.592	20902
860.725	20990
860.858	20979
860.99	20773
861.123	20788
861.256	20765
861.388	20636
861.521	21458
861.653	20651
861.786	20602
861.918	20659
862.05	20670
862.183	20617
862.315	20819
862.447	20731
862.58	20746
862.712	20514
862.844	20473
862.976	20625
863.108	20492
863.24	20963
863.372	20484
863.504	20503
863.636	20556
863.768	20374
863.9	20522
864.032	20526
864.164	20465
864.296	20552
864.428	20522
864.559	20609
864.691	20530
864.823	20511
864.954	20423
865.086	20480
865.217	20495
865.349	20400
865.48	20385
865.612	20419
865.743	20636
865.875	20522
866.006	20461
866.137	20499
866.269	20438
866.4	20332
866.531	20351
866.662	20328
866.793	20355
866.924	20362
867.055	20332
867.186	20244
867.317	20362
867.448	20351
867.579	20461
867.71	20122
867.841	20275
867.972	20309
868.103	20400
868.233	20446
868.364	20415
868.495	20518
868.625	20587
868.756	20689
868.886	20575
869.017	20629
869.147	20769
869.278	20735
869.408	20609
869.539	20533
869.669	20693
869.799	20644
869.929	20785
870.06	20758
870.19	20842
870.32	20895
870.45	20960
870.58	20960
870.71	21108
870.84	21169
870.97	21062
871.1	20918
871.23	21138
871.36	21313
871.489	21116
871.619	21188
871.749	21264
871.879	21340
872.008	21363
872.138	21275
872.267	21245
872.397	21066
872.526	21047
872.656	21055
872.785	21051
872.915	21154
873.044	21264
873.173	21222
873.303	21081
873.432	21378
873.561	21355
873.69	21256
873.819	21325
873.948	21310
874.077	21188
874.206	21081
874.335	21138
874.464	21473
874.593	21572
874.722	21405
874.851	21557
874.979	21405
875.108	21523
875.237	21496
875.365	21264
875.494	21526
875.623	21504
875.751	21439
875.88	21500
876.008	21663
876.136	21633
876.265	21751
876.393	21926
876.521	21907
876.65	21926
876.778	21915
876.906	21850
877.034	21804
877.162	21774
877.29	21800
877.418	21823
877.546	21865
877.674	21804
877.802	21865
877.93	21789
878.058	21808
878.185	21694
878.313	21797
878.441	21778
878.568	21652
878.696	21812
878.824	21838
878.951	21880
879.079	22101
879.206	22120
879.333	21968
879.461	21850
879.588	21854
879.715	21926
879.842	22143
879.97	21949
880.097	21576
880.224	21614
880.351	21682
880.478	21614
880.605	21713
880.732	21614
880.859	21831
880.986	21663
881.112	21603
881.239	21523
881.366	21412
881.493	21424
881.619	21188
881.746	21355
881.872	21135
881.999	21188
882.125	21127
882.252	21154
882.378	21222
882.505	21264
882.631	21051
882.757	21062
882.883	21043
883.01	20918
883.136	20849
883.262	20758
883.388	20800
883.514	20902
883.64	20979
883.766	20777
883.892	20735
884.018	20785
884.143	20807
884.269	20921
884.395	20629
884.52	20598
884.646	20522
884.772	20431
884.897	20457
885.023	20514
885.148	20727
885.274	20708
885.399	20686
885.524	20473
885.65	20533
885.775	20678
885.9	20434
886.025	20678
886.15	20621
886.275	20400
886.4	20419
886.525	20286
886.65	20461
886.775	20556
886.9	20571
887.025	20800
887.149	20533
887.274	20339
887.399	20415
887.523	20320
887.648	20252
887.773	20248
887.897	20317
888.021	20480
888.146	20381
888.27	20408
888.395	20385
888.519	20286
888.643	20358
888.767	20393
888.891	20294
889.015	20111
889.139	20142
889.263	20195
889.387	20305
889.511	20396
889.635	20320
889.759	20027
889.883	20202
890.006	20092
890.13	20214
890.254	20046
890.377	20031
890.501	19883
890.624	19921
890.748	19944
890.871	19898
890.995	19658
891.118	19704
891.241	19780
891.364	19738
891.488	19860
891.611	19624
891.734	19575
891.857	19769
891.98	19666
892.103	19807
892.226	19719
892.349	19582
892.471	19556
892.594	19594
892.717	19753
892.839	19662
892.962	19613
893.085	19609
893.207	19647
893.33	19514
893.452	19616
893.575	19689
893.697	19696
893.819	19772
893.941	19883
894.064	19746
894.186	19525
894.308	19525
894.43	19818
894.552	19875
894.674	19776
894.796	19548
894.918	19597
895.04	19655
895.161	19670
895.283	19784
895.405	19552
895.526	19662
895.648	19685
895.769	19738
895.891	19677
896.012	19719
896.134	19712
896.255	19693
896.376	19708
896.498	19746
896.619	19681
896.74	19628
896.861	19666
896.982	20043
897.103	20126
897.224	19944
897.345	19837
897.466	19833
897.587	19906
897.708	20031
897.828	19753
897.949	19791
898.07	19674
898.19	19852
898.311	19974
898.431	19761
898.552	19830
898.672	19928
898.792	19959
898.913	19909
899.033	19753
899.153	19715
899.273	19674
899.393	19639
899.513	19696
899.633	19662
899.753	19647
899.873	19586
899.993	19708
900.113	19567
900.232	19689
900.352	19499
900.472	19388
900.591	19468
900.711	19415
900.83	19396
900.95	19514
901.069	19392
901.189	19247
901.308	19187
901.427	18989
901.546	19088
901.665	18977
901.784	18989
901.904	18924
902.023	18844
902.141	18544
902.26	18551
902.379	18772
902.498	18494
902.617	18460
902.735	18467
902.854	18589
902.973	18475
903.091	18216
903.21	18228
903.328	18121
903.446	18022
903.565	18022
903.683	17996
903.801	17950
903.919	17992
904.038	17916
904.156	17756
904.274	17866
904.392	17764
904.51	17802
904.627	17767
904.745	17824
904.863	17866
904.981	17551
905.098	17414
905.216	17463
905.334	17455
905.451	17501
905.569	17455
905.686	17577
905.803	17459
905.921	17227
906.038	17345
906.155	17379
906.272	17143
906.389	17292
906.506	17003
906.623	16968
906.74	16892
906.857	16889
906.974	16987
907.091	17094
907.208	17109
907.324	17128
907.441	16885
907.557	16793
907.674	16702
907.79	16694
907.907	16683
908.023	16782
908.139	16660
908.256	16660
908.372	16641
908.488	16561
908.604	16512
908.72	16436
908.836	16424
908.952	16459
909.068	16489
909.184	16497
909.3	16470
909.415	16459
909.531	16493
909.647	16154
909.762	16261
909.878	16211
909.993	16147
910.108	16078
910.224	16109
910.339	16078
910.454	16074
910.57	15941
910.685	15964
910.8	16226
910.915	16154
911.03	16040
911.145	15838
911.259	15819
911.374	15724
911.489	15793
911.604	15679
911.718	15564
911.833	15561
911.947	15348
912.062	15344
912.176	15511
912.291	15553
912.405	15523
912.519	15675
912.633	15641
912.748	15542
912.862	15538
912.976	15370
913.09	15294
913.204	15405
913.318	15378
913.431	15397
913.545	15386
913.659	15397
913.772	15310
913.886	15252
914	15089
914.113	15192
914.226	15310
914.34	15268
914.453	15085
914.566	15336
914.68	14998
914.793	15081
914.906	14979
915.019	14731
915.132	14743
915.245	14762
915.358	14845
915.47	14800
915.583	14872
915.696	14754
915.809	14876
915.921	14910
916.034	14781
916.146	14617
916.259	14644
916.371	14621
916.483	14697
916.595	14663
916.708	14651
916.82	14610
916.932	14549
917.044	14640
917.156	14495
917.268	14419
917.38	14431
917.491	14427
917.603	14370
917.715	14454
917.826	14537
917.938	14415
918.049	14347
918.161	14385
918.272	14480
918.384	14454
918.495	14343
918.606	14317
918.717	14210
918.828	14199
918.939	14313
919.05	14096
919.161	14153
919.272	13997
919.383	14012
919.494	14229
919.604	14457
919.715	14180
919.826	14050
919.936	14195
920.047	14157
920.157	14107
920.267	14324
920.378	14187
920.488	14126
920.598	14351
920.708	14434
920.818	14282
920.928	14271
921.038	14412
921.148	14320
921.258	14187
921.368	14111
921.477	13978
921.587	13906
921.697	13780
921.806	13982
921.916	13719
922.025	13616
922.134	13544
922.244	13521
922.353	13563
922.462	13419
922.571	13430
922.68	13236
922.789	13263
922.898	13198
923.007	13179
923.116	13312
923.224	13202
923.333	13209
923.442	13061
923.55	12966
923.659	13088
923.767	13084
923.876	12977
923.984	12996
924.092	12951
924.201	12935
924.309	12981
924.417	12939
924.525	12802
924.633	12814
924.741	13830
924.849	12856
924.956	12837
925.064	12639
925.172	12642
925.279	12669
925.387	12627
925.494	12688
925.602	12772
925.709	12779
925.816	12631
925.924	12627
926.031	12532
926.138	12566
926.245	12608
926.352	12509
926.459	12654
926.566	12692
926.673	12464
926.779	12445
926.886	12422
926.993	12338
927.099	12232
927.206	12243
927.312	12148
927.419	12220
927.525	12182
927.631	12213
927.737	12159
927.843	12095
927.95	11897
928.056	11999
928.162	11977
928.267	12087
928.373	12578
928.479	12144
928.585	11965
928.69	12007
928.796	12057
928.901	12030
929.007	11794
929.112	11961
929.218	11923
929.323	11851
929.428	11760
929.533	11927
929.638	11684
929.743	11813
929.848	11718
929.953	11741
930.058	11661
930.163	11467
930.267	11448
930.372	11573
930.477	11467
930.581	11668
930.685	11528
930.79	11486
930.894	11486
930.998	11379
931.103	11524
931.207	11181
931.311	11052
931.415	10957
931.519	10805
931.623	10755
