Data from test_V78500241_2636.txt Node
Date: Fri Mar 25 15:28:12 CST 2022
User: usil
Spectrometer: V785-0024
Trigger mode: 0
Integration Time (sec): 4.000000E-1
Scans to average: 1
Nonlinearity correction enabled: false
Boxcar width: 0
Storing dark spectrum: false
XAxis mode: Wavelengths
Number of Pixels in Spectrum: 1024
>>>>>Begin Spectral Data<<<<<
801.071	27135
801.214	27123
801.356	26937
801.499	26739
801.641	26655
801.783	26853
801.926	26724
802.068	26705
802.211	26644
802.353	26415
802.496	26526
802.638	26320
802.78	26267
802.923	26366
803.065	26065
803.208	26126
803.35	26336
803.492	26469
803.635	26495
803.777	26385
803.919	26484
804.061	26724
804.204	26484
804.346	26343
804.488	26362
804.63	26374
804.773	26298
804.915	26484
805.057	26594
805.199	26396
805.341	26495
805.483	26602
805.626	26606
805.768	26514
805.91	26583
806.052	26579
806.194	26347
806.336	26686
806.478	26594
806.62	26480
806.762	26705
806.904	26887
807.046	26971
807.188	26891
807.33	27009
807.472	26979
807.614	26868
807.756	26899
807.898	26819
808.04	26739
808.182	26834
808.324	26777
808.465	26796
808.607	26975
808.749	27093
808.891	27192
809.033	27325
809.174	27199
809.316	27154
809.458	27207
809.6	27135
809.741	27272
809.883	27291
810.025	27439
810.166	27412
810.308	27348
810.45	27268
810.591	27252
810.733	27112
810.875	27154
811.016	27032
811.158	27089
811.299	27348
811.441	27401
811.582	27283
811.724	27108
811.865	27157
812.007	27142
812.148	27013
812.29	27093
812.431	27279
812.573	27291
812.714	27591
812.855	27629
812.997	27538
813.138	27835
813.279	27625
813.421	27732
813.562	27572
813.703	27458
813.845	27416
813.986	27089
814.127	26914
814.268	26811
814.41	27024
814.551	26781
814.692	26842
814.833	26705
814.974	26796
815.115	26705
815.256	26697
815.397	26663
815.539	26727
815.68	26552
815.821	26503
815.962	26644
816.103	26625
816.244	26389
816.385	26290
816.526	26282
816.666	26145
816.807	25997
816.948	26058
817.089	26214
817.23	26218
817.371	26115
817.512	26111
817.653	25978
817.793	25822
817.934	25917
818.075	26111
818.216	26096
818.356	26043
818.497	25932
818.638	25742
818.778	25826
818.919	25818
819.06	25803
819.2	26043
819.341	26065
819.481	25963
819.622	26286
819.762	26347
819.903	26206
820.043	26218
820.184	26180
820.324	26077
820.465	26229
820.605	26176
820.746	26161
820.886	25917
821.026	26073
821.167	26134
821.307	26202
821.447	26142
821.588	25947
821.728	25799
821.868	25689
822.008	25613
822.149	25605
822.289	25556
822.429	25289
822.569	25339
822.709	25118
822.849	25031
822.99	25015
823.13	25084
823.27	25050
823.41	24947
823.55	24932
823.69	24760
823.83	24802
823.97	24715
824.11	24654
824.25	24654
824.389	24688
824.529	24787
824.669	24658
824.809	24787
824.949	24719
825.089	24650
825.228	24673
825.368	24505
825.508	24502
825.648	24502
825.787	24525
825.927	24635
826.067	24505
826.206	24547
826.346	24726
826.485	24635
826.625	24525
826.765	24658
826.904	24665
827.044	24372
827.183	24334
827.323	24281
827.462	24308
827.601	24235
827.741	24292
827.88	24281
828.02	24213
828.159	24277
828.298	24311
828.437	24357
828.577	24064
828.716	24273
828.855	24087
828.994	23996
829.134	23980
829.273	24038
829.412	23965
829.551	24045
829.69	24053
829.829	24072
829.968	24068
830.107	24079
830.246	23950
830.385	23821
830.524	23805
830.663	23695
830.802	23646
830.941	23646
831.08	23611
831.219	23729
831.357	23737
831.496	23889
831.635	23531
831.774	23592
831.913	23551
832.051	23364
832.19	23467
832.329	23436
832.467	23318
832.606	23178
832.744	23284
832.883	23185
833.022	23307
833.16	23174
833.299	23269
833.437	23246
833.576	23311
833.714	23250
833.852	23417
833.991	23410
834.129	23372
834.267	23330
834.406	23239
834.544	23452
834.682	23284
834.821	23258
834.959	23433
835.097	23292
835.235	23299
835.373	23364
835.511	23258
835.65	23292
835.788	23151
835.926	23128
836.064	22999
836.202	22942
836.34	23140
836.478	23303
836.615	23033
836.753	23235
836.891	23269
837.029	23124
837.167	23052
837.305	23113
837.443	22984
837.58	23041
837.718	23098
837.856	22930
837.993	22873
838.131	23071
838.269	22889
838.406	22976
838.544	22854
838.681	22672
838.819	22733
838.956	22542
839.094	22561
839.231	22599
839.369	22729
839.506	22835
839.643	22824
839.781	22565
839.918	22481
840.055	22565
840.193	22493
840.33	22428
840.467	22382
840.604	22455
840.742	22710
840.879	22344
841.016	22390
841.153	22318
841.29	22462
841.427	22398
841.564	22512
841.701	22356
841.838	22295
841.975	22223
842.112	22272
842.249	22173
842.385	22322
842.522	22375
842.659	22356
842.796	22196
842.933	22234
843.069	22192
843.206	22131
843.343	22253
843.479	22265
843.616	22325
843.752	21934
843.889	21915
844.025	22078
844.162	21975
844.298	22120
844.435	21922
844.571	22029
844.708	21911
844.844	22097
844.98	22154
845.117	22101
845.253	21823
845.389	21797
845.525	21934
845.661	21850
845.798	21720
845.934	21759
846.07	21622
846.206	21633
846.342	21895
846.478	21717
846.614	21488
846.75	21370
846.886	21504
847.022	21553
847.158	21405
847.294	21447
847.429	21549
847.565	21355
847.701	21633
847.837	21245
847.972	21241
848.108	21237
848.244	21237
848.379	21119
848.515	21085
848.65	20960
848.786	21108
848.921	21116
849.057	21176
849.192	21032
849.328	20944
849.463	20906
849.598	20944
849.734	20990
849.869	20819
850.004	20819
850.14	20769
850.275	20887
850.41	20667
850.545	20667
850.68	20701
850.815	20876
850.95	20781
851.085	20887
851.22	20937
851.355	20735
851.49	20811
851.625	20667
851.76	20758
851.895	20689
852.03	20773
852.165	20819
852.299	20895
852.434	20842
852.569	20712
852.703	20830
852.838	20895
852.973	20845
853.107	20971
853.242	20720
853.376	20697
853.511	20552
853.645	20640
853.78	20750
853.914	20632
854.048	20537
854.183	20640
854.317	20621
854.451	20823
854.585	20640
854.72	20788
854.854	20708
854.988	20476
855.122	20495
855.256	20522
855.39	20556
855.524	20606
855.658	20598
855.792	20663
855.926	20609
856.06	20636
856.194	20765
856.327	20533
856.461	20446
856.595	20533
856.729	20613
856.862	20705
856.996	20686
857.13	20739
857.263	20811
857.397	20727
857.53	20629
857.664	20743
857.797	20659
857.931	20720
858.064	20716
858.197	20705
858.331	20670
858.464	20556
858.597	20488
858.731	20644
858.864	20594
858.997	20514
859.13	20648
859.263	20667
859.396	20758
859.529	20617
859.662	20575
859.795	20480
859.928	20632
860.061	20834
860.194	20792
860.327	20648
860.46	20731
860.592	20834
860.725	20746
860.858	20804
860.99	20625
861.123	20537
861.256	20613
861.388	20564
861.521	21321
861.653	20533
861.786	20469
861.918	20408
862.05	20473
862.183	20609
862.315	20522
862.447	20667
862.58	20579
862.712	20450
862.844	20305
862.976	20450
863.108	20358
863.24	20830
863.372	20282
863.504	20313
863.636	20366
863.768	20381
863.9	20336
864.032	20256
864.164	20381
864.296	20332
864.428	20450
864.559	20484
864.691	20385
864.823	20309
864.954	20275
865.086	20320
865.217	20263
865.349	20119
865.48	20282
865.612	20324
865.743	20362
865.875	20199
866.006	20092
866.137	20275
866.269	20259
866.4	20298
866.531	20145
866.662	20062
866.793	20107
866.924	20134
867.055	20142
867.186	20248
867.317	20107
867.448	20176
867.579	20119
867.71	20122
867.841	20073
867.972	20202
868.103	20206
868.233	20256
868.364	20145
868.495	20298
868.625	20434
868.756	20469
868.886	20381
869.017	20393
869.147	20484
869.278	20667
869.408	20511
869.539	20351
869.669	20294
869.799	20518
869.929	20598
870.06	20537
870.19	20743
870.32	20705
870.45	20727
870.58	20864
870.71	21009
870.84	20861
870.97	20804
871.1	20819
871.23	21005
871.36	21024
871.489	20921
871.619	20986
871.749	20910
871.879	21100
872.008	21131
872.138	21089
872.267	20960
872.397	20944
872.526	20891
872.656	20826
872.785	20857
872.915	20895
873.044	21131
873.173	21043
873.303	21036
873.432	21066
873.561	21081
873.69	21005
873.819	21104
873.948	21249
874.077	20944
874.206	21055
874.335	21043
874.464	21241
874.593	21268
874.722	21249
874.851	21180
874.979	21348
875.108	21275
875.237	21355
875.365	21180
875.494	21192
875.623	21367
875.751	21203
875.88	21344
876.008	21447
876.136	21420
876.265	21690
876.393	21816
876.521	21736
876.65	21747
876.778	21717
876.906	21610
877.034	21698
877.162	21660
877.29	21542
877.418	21648
877.546	21705
877.674	21648
877.802	21545
877.93	21720
878.058	21660
878.185	21534
878.313	21618
878.441	21587
878.568	21431
878.696	21564
878.824	21587
878.951	21686
879.079	21857
879.206	22002
879.333	21869
879.461	21713
879.588	21705
879.715	21869
879.842	21876
879.97	21793
880.097	21492
880.224	21374
880.351	21534
880.478	21473
880.605	21496
880.732	21500
880.859	21743
880.986	21428
881.112	21401
881.239	21249
881.366	21211
881.493	21188
881.619	21131
881.746	21028
881.872	21062
881.999	20979
882.125	21001
882.252	20982
882.378	20975
882.505	21157
882.631	20899
882.757	20910
882.883	20883
883.01	20758
883.136	20579
883.262	20594
883.388	20545
883.514	20838
883.64	20823
883.766	20686
883.892	20461
884.018	20636
884.143	20640
884.269	20670
884.395	20328
884.52	20404
884.646	20549
884.772	20400
884.897	20305
885.023	20381
885.148	20514
885.274	20526
885.399	20533
885.524	20404
885.65	20492
885.775	20381
885.9	20446
886.025	20537
886.15	20552
886.275	20328
886.4	20385
886.525	20347
886.65	20290
886.775	20259
886.9	20488
887.025	20594
887.149	20313
887.274	20119
887.399	20058
887.523	20290
887.648	20043
887.773	20096
887.897	20248
888.021	20256
888.146	20058
888.27	20164
888.395	20290
888.519	20225
888.643	20202
888.767	20244
888.891	20039
889.015	19955
889.139	20153
889.263	19963
889.387	20180
889.511	20248
889.635	20065
889.759	20043
889.883	19974
890.006	19974
890.13	20126
890.254	19887
890.377	19928
890.501	19791
890.624	19784
890.748	19750
890.871	19620
890.995	19506
891.118	19499
891.241	19704
891.364	19556
891.488	19685
891.611	19624
891.734	19635
891.857	19563
891.98	19518
892.103	19643
892.226	19571
892.349	19502
892.471	19419
892.594	19537
892.717	19594
892.839	19445
892.962	19514
893.085	19559
893.207	19491
893.33	19411
893.452	19400
893.575	19544
893.697	19415
893.819	19559
893.941	19670
894.064	19655
894.186	19472
894.308	19457
894.43	19559
894.552	19670
894.674	19662
894.796	19472
894.918	19430
895.04	19400
895.161	19578
895.283	19438
895.405	19388
895.526	19457
895.648	19491
895.769	19510
895.891	19495
896.012	19578
896.134	19559
896.255	19518
896.376	19422
896.498	19468
896.619	19590
896.74	19548
896.861	19533
896.982	19822
897.103	19917
897.224	19860
897.345	19681
897.466	19616
897.587	19746
897.708	19780
897.828	19807
897.949	19696
898.07	19590
898.19	19677
898.311	19742
898.431	19670
898.552	19784
898.672	19837
898.792	19791
898.913	19693
899.033	19632
899.153	19502
899.273	19407
899.393	19529
899.513	19499
899.633	19449
899.753	19407
899.873	19430
899.993	19472
900.113	19419
900.232	19502
900.352	19453
900.472	19392
900.591	19156
900.711	19259
900.83	19190
900.95	19388
901.069	19209
901.189	19156
901.308	18943
901.427	18783
901.546	18829
901.665	18924
901.784	18897
901.904	18715
902.023	18681
902.141	18433
902.26	18384
902.379	18410
902.498	18292
902.617	18369
902.735	18315
902.854	18380
902.973	18266
903.091	18136
903.21	18129
903.328	18091
903.446	17874
903.565	17851
903.683	17843
903.801	17764
903.919	17779
904.038	17741
904.156	17592
904.274	17653
904.392	17573
904.51	17615
904.627	17539
904.745	17653
904.863	17642
904.981	17589
905.098	17341
905.216	17436
905.334	17299
905.451	17299
905.569	17269
905.686	17425
905.803	17250
905.921	17098
906.038	17265
906.155	17216
906.272	17037
906.389	16980
906.506	16812
906.623	16915
906.74	16968
906.857	16740
906.974	16816
907.091	16889
907.208	16934
907.324	16911
907.441	16702
907.557	16618
907.674	16588
907.79	16382
907.907	16626
908.023	16683
908.139	16584
908.256	16546
908.372	16337
908.488	16447
908.604	16352
908.72	16272
908.836	16261
908.952	16246
909.068	16360
909.184	16348
909.3	16386
909.415	16356
909.531	16196
909.647	16055
909.762	16124
909.878	15934
909.993	16032
910.108	15941
910.224	16059
910.339	16025
910.454	15888
910.57	15846
910.685	15641
910.8	15979
910.915	16010
911.03	15953
911.145	15568
911.259	15637
911.374	15515
911.489	15561
911.604	15412
911.718	15351
911.833	15408
911.947	15405
912.062	15154
912.176	15481
912.291	15477
912.405	15397
912.519	15599
912.633	15511
912.748	15355
912.862	15378
912.976	15184
913.09	15100
913.204	15135
913.318	15195
913.431	15211
913.545	15195
913.659	15325
913.772	15150
913.886	14963
914	14960
914.113	15097
914.226	15131
914.34	14982
914.453	14906
914.566	15020
914.68	14864
914.793	14853
914.906	14674
915.019	14659
915.132	14511
915.245	14629
915.358	14716
915.47	14697
915.583	14590
915.696	14670
915.809	14716
915.921	14769
916.034	14594
916.146	14530
916.259	14495
916.371	14533
916.483	14564
916.595	14427
916.708	14442
916.82	14450
916.932	14450
917.044	14511
917.156	14320
917.268	14332
917.38	14290
917.491	14233
917.603	14355
917.715	14358
917.826	14343
917.938	14149
918.049	14039
918.161	14202
918.272	14339
918.384	14374
918.495	14187
918.606	13967
918.717	14035
918.828	14107
918.939	14035
919.05	13974
919.161	14020
919.272	13909
919.383	13917
919.494	14050
919.604	14347
919.715	14016
919.826	13890
919.936	13989
920.047	14088
920.157	13928
920.267	14290
920.378	14081
920.488	13898
920.598	14180
920.708	14267
920.818	14130
920.928	14142
921.038	14294
921.148	14180
921.258	13947
921.368	13871
921.477	13902
921.587	13803
921.697	13639
921.806	13731
921.916	13639
922.025	13521
922.134	13483
922.244	13339
922.353	13483
922.462	13289
922.571	13293
922.68	13168
922.789	13149
922.898	13107
923.007	13034
923.116	13107
923.224	13088
923.333	13080
923.442	12909
923.55	12920
923.659	12890
923.767	12924
923.876	12806
923.984	12970
924.092	12783
924.201	12890
924.309	12844
924.417	12776
924.525	12711
924.633	12749
924.741	13689
924.849	12650
924.956	12726
925.064	12521
925.172	12399
925.279	12494
925.387	12502
925.494	12517
925.602	12642
925.709	12570
925.816	12418
925.924	12475
926.031	12570
926.138	12391
926.245	12551
926.352	12407
926.459	12589
926.566	12540
926.673	12418
926.779	12266
926.886	12224
926.993	12140
927.099	12117
927.206	12007
927.312	12003
927.419	12182
927.525	12038
927.631	12095
927.737	11984
927.843	12007
927.95	11885
928.056	11969
928.162	11954
928.267	12034
928.373	12566
928.479	12030
928.585	11779
928.69	11843
928.796	11973
928.901	11737
929.007	11665
929.112	11726
929.218	11745
929.323	11634
929.428	11699
929.533	11718
929.638	11535
929.743	11589
929.848	11699
929.953	11573
930.058	11566
930.163	11410
930.267	11395
930.372	11509
930.477	11292
930.581	11535
930.685	11349
930.79	11231
930.894	11277
930.998	11231
931.103	11383
931.207	11067
931.311	10999
931.415	10850
931.519	10660
931.623	10660
