Data from test_V78500241_3551.txt Node
Date: Fri Mar 25 15:34:35 CST 2022
User: usil
Spectrometer: V785-0024
Trigger mode: 0
Integration Time (sec): 4.000000E-1
Scans to average: 1
Nonlinearity correction enabled: false
Boxcar width: 0
Storing dark spectrum: false
XAxis mode: Wavelengths
Number of Pixels in Spectrum: 1024
>>>>>Begin Spectral Data<<<<<
801.071	27340
801.214	27298
801.356	27112
801.499	27032
801.641	26914
801.783	26750
801.926	26804
802.068	26826
802.211	26838
802.353	26838
802.496	26457
802.638	26522
802.78	26324
802.923	26343
803.065	26518
803.208	26511
803.35	26537
803.492	26621
803.635	26655
803.777	26503
803.919	26674
804.061	26883
804.204	26606
804.346	26568
804.488	26568
804.63	26644
804.773	26499
804.915	26648
805.057	26758
805.199	26549
805.341	26697
805.483	26739
805.626	26739
805.768	26712
805.91	26693
806.052	26796
806.194	26632
806.336	26921
806.478	26773
806.62	26655
806.762	26929
806.904	26804
807.046	27260
807.188	27081
807.33	27142
807.472	27032
807.614	26986
807.756	27062
807.898	27005
808.04	26880
808.182	26948
808.324	26948
808.465	27001
808.607	27317
808.749	27302
808.891	27332
809.033	27378
809.174	27363
809.316	27462
809.458	27340
809.6	27207
809.741	27367
809.883	27412
810.025	27549
810.166	27587
810.308	27667
810.45	27637
810.591	27549
810.733	27492
810.875	27222
811.016	27374
811.158	27188
811.299	27378
811.441	27488
811.582	27344
811.724	27427
811.865	27237
812.007	27218
812.148	27359
812.29	27450
812.431	27538
812.573	27599
812.714	27686
812.855	27899
812.997	27930
813.138	28116
813.279	27968
813.421	27713
813.562	27755
813.703	27656
813.845	27504
813.986	27214
814.127	27146
814.268	26990
814.41	27070
814.551	26876
814.692	26910
814.833	26906
814.974	27043
815.115	26864
815.256	26891
815.397	26849
815.539	26830
815.68	26819
815.821	26640
815.962	26754
816.103	26762
816.244	26606
816.385	26526
816.526	26381
816.666	26301
816.807	26103
816.948	26332
817.089	26377
817.23	26294
817.371	26225
817.512	26259
817.653	26180
817.793	26320
817.934	26187
818.075	26240
818.216	26301
818.356	26271
818.497	26092
818.638	25928
818.778	25879
818.919	25906
819.06	26054
819.2	26229
819.341	26138
819.481	26130
819.622	26370
819.762	26503
819.903	26575
820.043	26347
820.184	26377
820.324	26339
820.465	26358
820.605	26336
820.746	26328
820.886	26054
821.026	26305
821.167	26256
821.307	26240
821.447	26256
821.588	26012
821.728	26081
821.868	25951
822.008	25757
822.149	25814
822.289	25689
822.429	25491
822.569	25407
822.709	25396
822.849	25202
822.99	25183
823.13	25110
823.27	25038
823.41	25015
823.55	24768
823.69	25042
823.83	25042
823.97	24913
824.11	24814
824.25	24738
824.389	24878
824.529	24951
824.669	24901
824.809	24924
824.949	24833
825.089	24951
825.228	24962
825.368	24673
825.508	24738
825.648	24688
825.787	24840
825.927	24795
826.067	24722
826.206	24715
826.346	24764
826.485	24791
826.625	24673
826.765	24715
826.904	24719
827.044	24551
827.183	24528
827.323	24502
827.462	24582
827.601	24505
827.741	24369
827.88	24429
828.02	24292
828.159	24445
828.298	24258
828.437	24589
828.577	24445
828.716	24471
828.855	24365
828.994	24262
829.134	24159
829.273	24152
829.412	24140
829.551	24178
829.69	24194
829.829	24125
829.968	24235
830.107	24243
830.246	24110
830.385	24163
830.524	24049
830.663	23973
830.802	23882
830.941	23771
831.08	23710
831.219	23897
831.357	23828
831.496	24011
831.635	23741
831.774	23710
831.913	23707
832.051	23623
832.19	23543
832.329	23547
832.467	23421
832.606	23395
832.744	23455
832.883	23353
833.022	23368
833.16	23512
833.299	23539
833.437	23516
833.576	23539
833.714	23543
833.852	23596
833.991	23554
834.129	23649
834.267	23524
834.406	23547
834.544	23551
834.682	23516
834.821	23535
834.959	23752
835.097	23459
835.235	23551
835.373	23562
835.511	23554
835.65	23425
835.788	23337
835.926	23280
836.064	23200
836.202	23216
836.34	23459
836.478	23520
836.615	23395
836.753	23349
836.891	23299
837.029	23406
837.167	23254
837.305	23254
837.443	23292
837.58	23261
837.718	23220
837.856	23239
837.993	23079
838.131	23258
838.269	23140
838.406	23109
838.544	23056
838.681	22869
838.819	22809
838.956	22626
839.094	22660
839.231	22645
839.369	22942
839.506	23090
839.643	22942
839.781	22748
839.918	22603
840.055	22694
840.193	22641
840.33	22649
840.467	22550
840.604	22687
840.742	22801
840.879	22516
841.016	22497
841.153	22554
841.29	22653
841.427	22592
841.564	22672
841.701	22493
841.838	22546
841.975	22504
842.112	22527
842.249	22565
842.385	22402
842.522	22561
842.659	22421
842.796	22287
842.933	22417
843.069	22413
843.206	22402
843.343	22413
843.479	22360
843.616	22451
843.752	22200
843.889	22188
844.025	22363
844.162	22158
844.298	22291
844.435	22147
844.571	22135
844.708	22154
844.844	22303
844.98	22211
845.117	22253
845.253	22078
845.389	22044
845.525	22036
845.661	22044
845.798	21991
845.934	21968
846.07	22010
846.206	21899
846.342	22036
846.478	21907
846.614	21656
846.75	21694
846.886	21701
847.022	21785
847.158	21675
847.294	21618
847.429	21713
847.565	21576
847.701	21926
847.837	21367
847.972	21370
848.108	21431
848.244	21428
848.379	21226
848.515	21268
848.65	21283
848.786	21146
848.921	21176
849.057	21291
849.192	21439
849.328	21317
849.463	21332
849.598	21154
849.734	21306
849.869	21017
850.004	20990
850.14	20982
850.275	21089
850.41	20952
850.545	20925
850.68	20918
850.815	20990
850.95	20998
851.085	21154
851.22	21127
851.355	20963
851.49	20994
851.625	21020
851.76	21047
851.895	20899
852.03	20906
852.165	20933
852.299	21036
852.434	21081
852.569	21150
852.703	20941
852.838	21150
852.973	21218
853.107	21207
853.242	20883
853.376	20910
853.511	20785
853.645	20712
853.78	20880
853.914	21043
854.048	20765
854.183	20823
854.317	20830
854.451	21127
854.585	20895
854.72	20899
854.854	20857
854.988	20769
855.122	21017
855.256	20720
855.39	20895
855.524	20960
855.658	21024
855.792	20948
855.926	20895
856.06	20914
856.194	20819
856.327	20826
856.461	20857
856.595	20800
856.729	20838
856.862	20979
856.996	20971
857.13	20914
857.263	20986
857.397	20990
857.53	20811
857.664	20857
857.797	20853
857.931	21066
858.064	20807
858.197	20998
858.331	20823
858.464	20800
858.597	20727
858.731	20765
858.864	20861
858.997	20800
859.13	20895
859.263	20933
859.396	20853
859.529	20811
859.662	20891
859.795	20781
859.928	20929
860.061	21070
860.194	21085
860.327	20864
860.46	20826
860.592	20982
860.725	20937
860.858	20944
860.99	21001
861.123	20838
861.256	20807
861.388	20845
861.521	21705
861.653	20632
861.786	20807
861.918	20701
862.05	20792
862.183	20739
862.315	20762
862.447	20785
862.58	20693
862.712	20473
862.844	20495
862.976	20629
863.108	20682
863.24	21005
863.372	20602
863.504	20469
863.636	20560
863.768	20746
863.9	20670
864.032	20480
864.164	20545
864.296	20522
864.428	20583
864.559	20568
864.691	20697
864.823	20621
864.954	20579
865.086	20560
865.217	20438
865.349	20377
865.48	20446
865.612	20427
865.743	20613
865.875	20442
866.006	20438
866.137	20450
866.269	20564
866.4	20514
866.531	20362
866.662	20332
866.793	20400
866.924	20469
867.055	20465
867.186	20450
867.317	20339
867.448	20343
867.579	20415
867.71	20374
867.841	20313
867.972	20461
868.103	20412
868.233	20526
868.364	20419
868.495	20571
868.625	20632
868.756	20765
868.886	20621
869.017	20670
869.147	20762
869.278	20750
869.408	20670
869.539	20750
869.669	20834
869.799	20731
869.929	20819
870.06	20727
870.19	20998
870.32	20925
870.45	21039
870.58	21009
870.71	21169
870.84	21249
870.97	21058
871.1	20982
871.23	21173
871.36	21272
871.489	21211
871.619	21275
871.749	21291
871.879	21401
872.008	21351
872.138	21214
872.267	21264
872.397	21195
872.526	21161
872.656	20975
872.785	21142
872.915	21218
873.044	21298
873.173	21317
873.303	21306
873.432	21283
873.561	21416
873.69	21367
873.819	21294
873.948	21336
874.077	21173
874.206	21272
874.335	21325
874.464	21473
874.593	21485
874.722	21526
874.851	21469
874.979	21488
875.108	21614
875.237	21538
875.365	21473
875.494	21439
875.623	21561
875.751	21583
875.88	21534
876.008	21682
876.136	21671
876.265	21876
876.393	21987
876.521	22002
876.65	22078
876.778	21930
876.906	21865
877.034	21857
877.162	21991
877.29	21785
877.418	21941
877.546	21941
877.674	21892
877.802	21857
877.93	21793
878.058	21694
878.185	21728
878.313	21827
878.441	21865
878.568	21766
878.696	21789
878.824	21934
878.951	21827
879.079	22048
879.206	22215
879.333	21968
879.461	21945
879.588	21808
879.715	22036
879.842	22082
879.97	22074
880.097	21713
880.224	21705
880.351	21724
880.478	21762
880.605	21644
880.732	21728
880.859	21991
880.986	21804
881.112	21698
881.239	21568
881.366	21447
881.493	21389
881.619	21245
881.746	21351
881.872	21211
881.999	21302
882.125	21203
882.252	21279
882.378	21317
882.505	21416
882.631	21165
882.757	21043
882.883	21039
883.01	20948
883.136	20902
883.262	20815
883.388	20758
883.514	20994
883.64	21032
883.766	20986
883.892	20667
884.018	20834
884.143	20941
884.269	20971
884.395	20758
884.52	20613
884.646	20571
884.772	20682
884.897	20632
885.023	20651
885.148	20777
885.274	20693
885.399	20693
885.524	20533
885.65	20640
885.775	20667
885.9	20526
886.025	20735
886.15	20716
886.275	20564
886.4	20514
886.525	20552
886.65	20625
886.775	20541
886.9	20754
887.025	20773
887.149	20625
887.274	20495
887.399	20454
887.523	20427
887.648	20278
887.773	20366
887.897	20355
888.021	20366
888.146	20381
888.27	20530
888.395	20476
888.519	20412
888.643	20423
888.767	20320
888.891	20324
889.015	20225
889.139	20256
889.263	20153
889.387	20469
889.511	20427
889.635	20294
889.759	20180
889.883	20107
890.006	20218
890.13	20305
890.254	20119
890.377	20305
890.501	20107
890.624	20024
890.748	20126
890.871	19868
890.995	19814
891.118	19655
891.241	19795
891.364	19772
891.488	20008
891.611	19769
891.734	19852
891.857	19906
891.98	19837
892.103	19852
892.226	19791
892.349	19723
892.471	19628
892.594	19742
892.717	19712
892.839	19757
892.962	19658
893.085	19795
893.207	19715
893.33	19601
893.452	19559
893.575	19693
893.697	19647
893.819	19917
893.941	19917
894.064	19887
894.186	19575
894.308	19491
894.43	19822
894.552	19944
894.674	19799
894.796	19693
894.918	19693
895.04	19681
895.161	19765
895.283	19715
895.405	19567
895.526	19639
895.648	19616
895.769	19814
895.891	19761
896.012	19822
896.134	19769
896.255	19685
896.376	19620
896.498	19704
896.619	19731
896.74	19632
896.861	19689
896.982	19993
897.103	20065
897.224	19932
897.345	19978
897.466	19712
897.587	19982
897.708	20043
897.828	19944
897.949	19890
898.07	19693
898.19	19936
898.311	20111
898.431	20031
898.552	19970
898.672	20069
898.792	19986
898.913	19940
899.033	19803
899.153	19658
899.273	19655
899.393	19784
899.513	19658
899.633	19635
899.753	19696
899.873	19681
899.993	19666
900.113	19521
900.232	19685
900.352	19647
900.472	19651
900.591	19449
900.711	19445
900.83	19358
900.95	19639
901.069	19518
901.189	19316
901.308	19156
901.427	19069
901.546	19053
901.665	19072
901.784	19107
901.904	18935
902.023	18745
902.141	18585
902.26	18650
902.379	18616
902.498	18589
902.617	18506
902.735	18650
902.854	18479
902.973	18486
903.091	18300
903.21	18213
903.328	18213
903.446	18083
903.565	18098
903.683	17980
903.801	17904
903.919	18076
904.038	18038
904.156	17882
904.274	17920
904.392	17786
904.51	17855
904.627	17718
904.745	17809
904.863	17923
904.981	17714
905.098	17535
905.216	17444
905.334	17604
905.451	17486
905.569	17425
905.686	17452
905.803	17535
905.921	17246
906.038	17345
906.155	17360
906.272	17128
906.389	17273
906.506	17121
906.623	17071
906.74	16877
906.857	16953
906.974	16953
907.091	16991
907.208	17143
907.324	16938
907.441	16892
907.557	16748
907.674	16809
907.79	16717
907.907	16706
908.023	16790
908.139	16835
908.256	16824
908.372	16664
908.488	16641
908.604	16577
908.72	16417
908.836	16512
908.952	16512
909.068	16489
909.184	16493
909.3	16550
909.415	16478
909.531	16535
909.647	16287
909.762	16295
909.878	16177
909.993	16196
910.108	16188
910.224	16078
910.339	16162
910.454	16036
910.57	16036
910.685	15918
910.8	16207
910.915	16112
911.03	15934
911.145	15880
911.259	15785
911.374	15797
911.489	15797
911.604	15698
911.718	15587
911.833	15660
911.947	15519
912.062	15397
912.176	15545
912.291	15564
912.405	15557
912.519	15812
912.633	15705
912.748	15572
912.862	15511
912.976	15397
913.09	15317
913.204	15272
913.318	15412
913.431	15389
913.545	15408
913.659	15492
913.772	15329
913.886	15207
914	15142
914.113	15188
914.226	15260
914.34	15173
914.453	15074
914.566	15249
914.68	15066
914.793	14986
914.906	14849
915.019	14659
915.132	14800
915.245	14796
915.358	14902
915.47	14636
915.583	14838
915.696	14804
915.809	14777
915.921	14956
916.034	14689
916.146	14754
916.259	14670
916.371	14853
916.483	14735
916.595	14575
916.708	14739
916.82	14602
916.932	14636
917.044	14590
917.156	14663
917.268	14507
917.38	14484
917.491	14408
917.603	14473
917.715	14518
917.826	14571
917.938	14457
918.049	14259
918.161	14389
918.272	14484
918.384	14518
918.495	14415
918.606	14275
918.717	14161
918.828	14252
918.939	14218
919.05	14107
919.161	14183
919.272	14039
919.383	14031
919.494	14278
919.604	14374
919.715	14157
919.826	14164
919.936	14145
920.047	14221
920.157	14073
920.267	14305
920.378	14161
920.488	14123
920.598	14339
920.708	14446
920.818	14313
920.928	14301
921.038	14499
921.148	14381
921.258	14183
921.368	14039
921.477	13947
921.587	13887
921.697	13849
921.806	13849
921.916	13917
922.025	13559
922.134	13594
922.244	13552
922.353	13685
922.462	13377
922.571	13343
922.68	13236
922.789	13187
922.898	13244
923.007	13198
923.116	13274
923.224	13198
923.333	13171
923.442	13076
923.55	13012
923.659	13091
923.767	13080
923.876	12970
923.984	13122
924.092	12989
924.201	13008
924.309	12943
924.417	12973
924.525	12871
924.633	12867
924.741	13628
924.849	12806
924.956	12707
925.064	12719
925.172	12559
925.279	12719
925.387	12635
925.494	12631
925.602	12795
925.709	12711
925.816	12525
925.924	12517
926.031	12749
926.138	12601
926.245	12547
926.352	12566
926.459	12642
926.566	12658
926.673	12502
926.779	12418
926.886	12460
926.993	12243
927.099	12292
927.206	12167
927.312	12220
927.419	12285
927.525	12186
927.631	12220
927.737	12213
927.843	11954
927.95	11813
928.056	12064
928.162	12133
928.267	12015
928.373	12677
928.479	12129
928.585	11901
928.69	12011
928.796	11939
928.901	11942
929.007	11748
929.112	11882
929.218	11878
929.323	11729
929.428	11703
929.533	11923
929.638	11745
929.743	11756
929.848	11840
929.953	11718
930.058	11642
930.163	11493
930.267	11471
930.372	11566
930.477	11406
930.581	11630
930.685	11490
930.79	11436
930.894	11398
930.998	11398
931.103	11471
931.207	11136
931.311	11025
931.415	11094
931.519	10790
931.623	10786
