Data from test_V78500241_967.txt Node
Date: Fri Mar 25 15:16:35 CST 2022
User: usil
Spectrometer: V785-0024
Trigger mode: 0
Integration Time (sec): 4.000000E-1
Scans to average: 1
Nonlinearity correction enabled: false
Boxcar width: 0
Storing dark spectrum: false
XAxis mode: Wavelengths
Number of Pixels in Spectrum: 1024
>>>>>Begin Spectral Data<<<<<
801.071	28074
801.214	28040
801.356	27804
801.499	27705
801.641	27648
801.783	27622
801.926	27736
802.068	27667
802.211	27671
802.353	27450
802.496	27325
802.638	27241
802.78	27325
802.923	27306
803.065	27211
803.208	27454
803.35	27374
803.492	27401
803.635	27405
803.777	27370
803.919	27458
804.061	27732
804.204	27492
804.346	27420
804.488	27321
804.63	27519
804.773	27492
804.915	27572
805.057	27595
805.199	27549
805.341	27549
805.483	27652
805.626	27686
805.768	27523
805.91	27622
806.052	27526
806.194	27572
806.336	27842
806.478	27641
806.62	27591
806.762	27755
806.904	27861
807.046	28185
807.188	28101
807.33	28109
807.472	28093
807.614	27979
807.756	28048
807.898	27857
808.04	27960
808.182	27827
808.324	27937
808.465	27892
808.607	28120
808.749	28333
808.891	28440
809.033	28409
809.174	28276
809.316	28223
809.458	28341
809.6	28303
809.741	28291
809.883	28512
810.025	28588
810.166	28569
810.308	28797
810.45	28440
810.591	28599
810.733	28382
810.875	28360
811.016	28417
811.158	28314
811.299	28485
811.441	28497
811.582	28417
811.724	28291
811.865	28272
812.007	28310
812.148	28261
812.29	28325
812.431	28535
812.573	28531
812.714	28843
812.855	28748
812.997	28896
813.138	29048
813.279	29010
813.421	28854
813.562	28793
813.703	28691
813.845	28500
813.986	28318
814.127	27998
814.268	28013
814.41	27998
814.551	27941
814.692	28112
814.833	27960
814.974	27949
815.115	28063
815.256	27922
815.397	27922
815.539	27914
815.68	27823
815.821	27842
815.962	27797
816.103	27797
816.244	27576
816.385	27766
816.526	27694
816.666	27405
816.807	27279
816.948	27504
817.089	27405
817.23	27325
817.371	27466
817.512	27542
817.653	27249
817.793	27279
817.934	27443
818.075	27393
818.216	27329
818.356	27241
818.497	27142
818.638	27093
818.778	26963
818.919	27096
819.06	27165
819.2	27123
819.341	27340
819.481	27317
819.622	27435
819.762	27854
819.903	27583
820.043	27523
820.184	27443
820.324	27291
820.465	27580
820.605	27378
820.746	27439
820.886	27291
821.026	27416
821.167	27450
821.307	27416
821.447	27313
821.588	27161
821.728	27001
821.868	26906
822.008	26792
822.149	26804
822.289	26785
822.429	26556
822.569	26549
822.709	26488
822.849	26313
822.99	26271
823.13	26248
823.27	26282
823.41	26202
823.55	25997
823.69	26210
823.83	26320
823.97	26202
824.11	26005
824.25	25841
824.389	26035
824.529	26024
824.669	25868
824.809	26157
824.949	25947
825.089	25993
825.228	26035
825.368	25799
825.508	25871
825.648	25830
825.787	26001
825.927	25868
826.067	25921
826.206	25860
826.346	25803
826.485	25856
826.625	25830
826.765	26001
826.904	25822
827.044	25776
827.183	25582
827.323	25594
827.462	25791
827.601	25476
827.741	25491
827.88	25556
828.02	25556
828.159	25525
828.298	25639
828.437	25548
828.577	25460
828.716	25727
828.855	25407
828.994	25426
829.134	25209
829.273	25362
829.412	25301
829.551	25354
829.69	25206
829.829	25388
829.968	25316
830.107	25282
830.246	25422
830.385	25156
830.524	25259
830.663	25080
830.802	24867
830.941	24928
831.08	24962
831.219	24894
831.357	24966
831.496	25225
831.635	24852
831.774	24920
831.913	24878
832.051	24734
832.19	24673
832.329	24646
832.467	24604
832.606	24574
832.744	24582
832.883	24563
833.022	24578
833.16	24521
833.299	24654
833.437	24612
833.576	24703
833.714	24738
833.852	24650
833.991	24753
834.129	24715
834.267	24764
834.406	24483
834.544	24589
834.682	24585
834.821	24608
834.959	24787
835.097	24555
835.235	24551
835.373	24623
835.511	24631
835.65	24471
835.788	24555
835.926	24266
836.064	24350
836.202	24327
836.34	24448
836.478	24445
836.615	24509
836.753	24509
836.891	24532
837.029	24426
837.167	24380
837.305	24456
837.443	24372
837.58	24365
837.718	24460
837.856	24304
837.993	24220
838.131	24277
838.269	24174
838.406	24121
838.544	24178
838.681	23901
838.819	23961
838.956	23786
839.094	23748
839.231	23779
839.369	23969
839.506	24239
839.643	24201
839.781	23775
839.918	23771
840.055	23699
840.193	23756
840.33	23634
840.467	23794
840.604	23687
840.742	23961
840.879	23459
841.016	23604
841.153	23474
841.29	23771
841.427	23684
841.564	23703
841.701	23718
841.838	23722
841.975	23619
842.112	23551
842.249	23543
842.385	23425
842.522	23558
842.659	23520
842.796	23406
842.933	23429
843.069	23410
843.206	23539
843.343	23421
843.479	23589
843.616	23543
843.752	23326
843.889	23185
844.025	23307
844.162	23200
844.298	23254
844.435	23284
844.571	23117
844.708	23303
844.844	23387
844.98	23391
845.117	23349
845.253	23178
845.389	23204
845.525	23216
845.661	23033
845.798	22961
845.934	22942
846.07	22930
846.206	23041
846.342	23094
846.478	23025
846.614	22740
846.75	22512
846.886	22622
847.022	22653
847.158	22656
847.294	22603
847.429	22691
847.565	22569
847.701	22904
847.837	22432
847.972	22348
848.108	22497
848.244	22512
848.379	22333
848.515	22177
848.65	22257
848.786	22253
848.921	22177
849.057	22390
849.192	22413
849.328	22299
849.463	22204
849.598	22287
849.734	22196
849.869	22044
850.004	21994
850.14	22131
850.275	22078
850.41	21975
850.545	21994
850.68	22109
850.815	22109
850.95	22044
851.085	22196
851.22	22215
851.355	21949
851.49	22048
851.625	21865
851.76	21934
851.895	22002
852.03	21926
852.165	21941
852.299	22105
852.434	22074
852.569	22078
852.703	21968
852.838	22055
852.973	22230
853.107	22139
853.242	21926
853.376	21922
853.511	21759
853.645	21759
853.78	21949
853.914	21823
854.048	21785
854.183	21922
854.317	21953
854.451	22116
854.585	21907
854.72	21998
854.854	21972
854.988	21827
855.122	21869
855.256	21759
855.39	21789
855.524	21918
855.658	21827
855.792	21869
855.926	21857
856.06	21918
856.194	21975
856.327	21857
856.461	21876
856.595	21899
856.729	21850
856.862	21991
856.996	21838
857.13	21975
857.263	22010
857.397	22032
857.53	21842
857.664	21831
857.797	21945
857.931	22002
858.064	21789
858.197	21956
858.331	21964
858.464	21667
858.597	21774
858.731	21732
858.864	21785
858.997	21808
859.13	21793
859.263	21884
859.396	21884
859.529	21831
859.662	21766
859.795	21873
859.928	21808
860.061	21998
860.194	22105
860.327	21876
860.46	21812
860.592	21983
860.725	21987
860.858	21975
860.99	21865
861.123	21854
861.256	21873
861.388	21930
861.521	22618
861.653	21625
861.786	21732
861.918	21523
862.05	21831
862.183	21709
862.315	21759
862.447	21743
862.58	21797
862.712	21545
862.844	21511
862.976	21606
863.108	21542
863.24	21994
863.372	21545
863.504	21473
863.636	21504
863.768	21534
863.9	21591
864.032	21523
864.164	21393
864.296	21572
864.428	21572
864.559	21568
864.691	21557
864.823	21587
864.954	21443
865.086	21374
865.217	21447
865.349	21378
865.48	21511
865.612	21515
865.743	21583
865.875	21507
866.006	21477
866.137	21458
866.269	21374
866.4	21481
866.531	21412
866.662	21211
866.793	21363
866.924	21359
867.055	21340
867.186	21283
867.317	21272
867.448	21241
867.579	21329
867.71	21218
867.841	21294
867.972	21367
868.103	21355
868.233	21393
868.364	21435
868.495	21412
868.625	21694
868.756	21701
868.886	21591
869.017	21743
869.147	21816
869.278	21720
869.408	21644
869.539	21709
869.669	21660
869.799	21667
869.929	21724
870.06	21759
870.19	21899
870.32	21835
870.45	21953
870.58	22109
870.71	21968
870.84	22143
870.97	22021
871.1	21953
871.23	22128
871.36	22147
871.489	22272
871.619	22124
871.749	22261
871.879	22044
872.008	22363
872.138	22105
872.267	22234
872.397	22048
872.526	21899
872.656	21949
872.785	22021
872.915	22188
873.044	22409
873.173	22223
873.303	22219
873.432	22344
873.561	22276
873.69	22226
873.819	22348
873.948	22360
874.077	22211
874.206	22154
874.335	22230
874.464	22428
874.593	22504
874.722	22424
874.851	22451
874.979	22542
875.108	22455
875.237	22314
875.365	22276
875.494	22314
875.623	22538
875.751	22318
875.88	22508
876.008	22645
876.136	22615
876.265	22767
876.393	22930
876.521	22862
876.65	22866
876.778	22767
876.906	22763
877.034	22805
877.162	22850
877.29	22687
877.418	22763
877.546	22748
877.674	22847
877.802	22767
877.93	22721
878.058	22763
878.185	22603
878.313	22656
878.441	22763
878.568	22611
878.696	22656
878.824	22862
878.951	22869
879.079	22976
879.206	23132
879.333	22949
879.461	22729
879.588	22877
879.715	22984
879.842	23006
879.97	22927
880.097	22649
880.224	22592
880.351	22694
880.478	22573
880.605	22447
880.732	22588
880.859	22809
880.986	22645
881.112	22630
881.239	22489
881.366	22363
881.493	22215
881.619	22120
881.746	22249
881.872	22166
881.999	22093
882.125	22135
882.252	22154
882.378	22135
882.505	22291
882.631	22002
882.757	21865
882.883	22013
883.01	21781
883.136	21827
883.262	21759
883.388	21789
883.514	21838
883.64	21850
883.766	21751
883.892	21720
884.018	21705
884.143	21873
884.269	21907
884.395	21576
884.52	21348
884.646	21561
884.772	21420
884.897	21351
885.023	21530
885.148	21614
885.274	21682
885.399	21671
885.524	21519
885.65	21572
885.775	21530
885.9	21485
886.025	21557
886.15	21576
886.275	21519
886.4	21420
886.525	21386
886.65	21439
886.775	21458
886.9	21629
887.025	21679
887.149	21428
887.274	21329
887.399	21355
887.523	21169
887.648	21252
887.773	21264
887.897	21260
888.021	21298
888.146	21222
888.27	21351
888.395	21325
888.519	21351
888.643	21275
888.767	21382
888.891	21169
889.015	21009
889.139	21142
889.263	21138
889.387	21157
889.511	21142
889.635	21218
889.759	21100
889.883	21161
890.006	21096
890.13	21169
890.254	21058
890.377	20952
890.501	20845
890.624	20746
890.748	20899
890.871	20678
890.995	20682
891.118	20587
891.241	20708
891.364	20598
891.488	20758
891.611	20571
891.734	20640
891.857	20655
891.98	20606
892.103	20609
892.226	20537
892.349	20495
892.471	20499
892.594	20541
892.717	20579
892.839	20419
892.962	20522
893.085	20644
893.207	20545
893.33	20530
893.452	20415
893.575	20617
893.697	20579
893.819	20651
893.941	20750
894.064	20636
894.186	20492
894.308	20423
894.43	20598
894.552	20621
894.674	20678
894.796	20339
894.918	20522
895.04	20358
895.161	20552
895.283	20526
895.405	20575
895.526	20446
895.648	20415
895.769	20533
895.891	20492
896.012	20476
896.134	20518
896.255	20434
896.376	20537
896.498	20533
896.619	20609
896.74	20602
896.861	20648
896.982	20815
897.103	20918
897.224	20701
897.345	20682
897.466	20648
897.587	20670
897.708	20880
897.828	20834
897.949	20686
898.07	20533
898.19	20564
898.311	20788
898.431	20583
898.552	20617
898.672	20678
898.792	20769
898.913	20697
899.033	20549
899.153	20598
899.273	20408
899.393	20511
899.513	20495
899.633	20400
899.753	20473
899.873	20469
899.993	20533
900.113	20317
900.232	20480
900.352	20263
900.472	20206
900.591	20187
900.711	20229
900.83	20149
900.95	20385
901.069	20320
901.189	20256
901.308	19936
901.427	19864
901.546	19784
901.665	19708
901.784	19738
901.904	19772
902.023	19476
902.141	19400
902.26	19274
902.379	19282
902.498	19316
902.617	19236
902.735	19187
902.854	19381
902.973	19217
903.091	18897
903.21	19008
903.328	18989
903.446	18806
903.565	18852
903.683	18810
903.801	18532
903.919	18696
904.038	18741
904.156	18639
904.274	18646
904.392	18528
904.51	18601
904.627	18517
904.745	18536
904.863	18646
904.981	18292
905.098	18232
905.216	18216
905.334	18224
905.451	18201
905.569	18171
905.686	18285
905.803	18125
905.921	18079
906.038	18194
906.155	18079
906.272	17916
906.389	18072
906.506	17779
906.623	17821
906.74	17832
906.857	17630
906.974	17646
907.091	17767
907.208	17802
907.324	17802
907.441	17585
907.557	17570
907.674	17417
907.79	17509
907.907	17478
908.023	17463
908.139	17463
908.256	17284
908.372	17345
908.488	17379
908.604	17349
908.72	17105
908.836	17212
908.952	17121
909.068	17235
909.184	17212
909.3	17288
909.415	17273
909.531	17372
909.647	16889
909.762	16987
909.878	16908
909.993	16938
910.108	16896
910.224	16869
910.339	16820
910.454	16759
910.57	16687
910.685	16637
910.8	16900
910.915	16774
911.03	16645
911.145	16580
911.259	16375
911.374	16428
911.489	16440
911.604	16424
911.718	16287
911.833	16204
911.947	16181
912.062	15941
912.176	16158
912.291	16219
912.405	16234
912.519	16295
912.633	16363
912.748	16207
912.862	16173
912.976	16074
913.09	16036
913.204	15915
913.318	16032
913.431	16082
913.545	16158
913.659	16090
913.772	16013
913.886	15968
914	15751
914.113	15850
914.226	16013
914.34	15888
914.453	15690
914.566	15922
914.68	15709
914.793	15736
914.906	15587
915.019	15447
915.132	15317
915.245	15405
915.358	15481
915.47	15393
915.583	15500
915.696	15504
915.809	15511
915.921	15553
916.034	15344
916.146	15389
916.259	15351
916.371	15386
916.483	15302
916.595	15226
916.708	15283
916.82	15230
916.932	15249
917.044	15165
917.156	15097
917.268	15119
917.38	15066
917.491	15070
917.603	15093
917.715	15097
917.826	14986
917.938	15009
918.049	14785
918.161	14914
918.272	15203
918.384	15119
918.495	14910
918.606	14773
918.717	14864
918.828	14876
918.939	14849
919.05	14750
919.161	14659
919.272	14617
919.383	14613
919.494	14849
919.604	15089
919.715	14800
919.826	14705
919.936	14724
920.047	14769
920.157	14800
920.267	14948
920.378	14811
920.488	14781
920.598	14902
920.708	15085
920.818	14944
920.928	14941
921.038	15036
921.148	14998
921.258	14777
921.368	14655
921.477	14613
921.587	14511
921.697	14332
921.806	14461
921.916	14366
922.025	14187
922.134	14145
922.244	14123
922.353	14176
922.462	14027
922.571	13947
922.68	13826
922.789	13818
922.898	13997
923.007	13719
923.116	13830
923.224	13799
923.333	13753
923.442	13693
923.55	13590
923.659	13594
923.767	13529
923.876	13499
923.984	13605
924.092	13518
924.201	13468
924.309	13445
924.417	13616
924.525	13449
924.633	13510
924.741	14438
924.849	13228
924.956	13407
925.064	13282
925.172	13145
925.279	13103
925.387	13179
925.494	13171
925.602	13304
925.709	13297
925.816	13103
925.924	13080
926.031	13145
926.138	13156
926.245	13126
926.352	13065
926.459	13183
926.566	13129
926.673	13050
926.779	12844
926.886	12886
926.993	12692
927.099	12719
927.206	12639
927.312	12662
927.419	12772
927.525	12738
927.631	12730
927.737	12677
927.843	12669
927.95	12494
928.056	12536
928.162	12627
928.267	12677
928.373	13190
928.479	12601
928.585	12433
928.69	12540
928.796	12582
928.901	12452
929.007	12262
929.112	12456
929.218	12334
929.323	12289
929.428	12213
929.533	12365
929.638	12194
929.743	12213
929.848	12232
929.953	12205
930.058	12140
930.163	12034
930.267	11939
930.372	12133
930.477	11977
930.581	12289
930.685	11992
930.79	11798
930.894	11912
930.998	11893
931.103	11939
931.207	11543
931.311	11493
931.415	11440
931.519	11113
931.623	11204
