Data from test_V78500241_2633.txt Node
Date: Fri Mar 25 15:28:11 CST 2022
User: usil
Spectrometer: V785-0024
Trigger mode: 0
Integration Time (sec): 4.000000E-1
Scans to average: 1
Nonlinearity correction enabled: false
Boxcar width: 0
Storing dark spectrum: false
XAxis mode: Wavelengths
Number of Pixels in Spectrum: 1024
>>>>>Begin Spectral Data<<<<<
801.071	27211
801.214	27157
801.356	26948
801.499	26880
801.641	26674
801.783	26777
801.926	26670
802.068	26659
802.211	26492
802.353	26453
802.496	26469
802.638	26351
802.78	26263
802.923	26294
803.065	26168
803.208	26210
803.35	26393
803.492	26526
803.635	26564
803.777	26457
803.919	26541
804.061	26674
804.204	26530
804.346	26499
804.488	26374
804.63	26579
804.773	26317
804.915	26514
805.057	26476
805.199	26484
805.341	26476
805.483	26556
805.626	26564
805.768	26617
805.91	26457
806.052	26434
806.194	26492
806.336	26697
806.478	26533
806.62	26613
806.762	26575
806.904	26735
807.046	26994
807.188	26940
807.33	26899
807.472	27070
807.614	26857
807.756	26880
807.898	26979
808.04	26686
808.182	26758
808.324	26819
808.465	26876
808.607	27085
808.749	27226
808.891	27207
809.033	27370
809.174	27226
809.316	27135
809.458	27161
809.6	27154
809.741	27275
809.883	27279
810.025	27370
810.166	27504
810.308	27401
810.45	27245
810.591	27378
810.733	27127
810.875	27116
811.016	27093
811.158	27112
811.299	27188
811.441	27256
811.582	27355
811.724	27096
811.865	27131
812.007	27077
812.148	27074
812.29	27127
812.431	27363
812.573	27424
812.714	27568
812.855	27477
812.997	27660
813.138	27846
813.279	27622
813.421	27622
813.562	27568
813.703	27393
813.845	27397
813.986	27180
814.127	26921
814.268	26876
814.41	26758
814.551	26602
814.692	26815
814.833	26629
814.974	26629
815.115	26777
815.256	26674
815.397	26598
815.539	26644
815.68	26625
815.821	26488
815.962	26579
816.103	26590
816.244	26575
816.385	26389
816.526	26195
816.666	26134
816.807	26024
816.948	26294
817.089	26092
817.23	26145
817.371	26008
817.512	26039
817.653	26020
817.793	25936
817.934	25925
818.075	26001
818.216	25974
818.356	26073
818.497	25818
818.638	25788
818.778	25696
818.919	25674
819.06	25868
819.2	25951
819.341	25955
819.481	26054
819.622	26172
819.762	26442
819.903	26172
820.043	26206
820.184	26142
820.324	26073
820.465	26168
820.605	26096
820.746	26096
820.886	26005
821.026	26195
821.167	26172
821.307	26058
821.447	26073
821.588	26031
821.728	25887
821.868	25582
822.008	25582
822.149	25483
822.289	25613
822.429	25350
822.569	25247
822.709	25297
822.849	25053
822.99	25080
823.13	24989
823.27	24958
823.41	24783
823.55	24829
823.69	24738
823.83	24764
823.97	24760
824.11	24726
824.25	24608
824.389	24631
824.529	24661
824.669	24642
824.809	24776
824.949	24726
825.089	24745
825.228	24578
825.368	24479
825.508	24384
825.648	24460
825.787	24467
825.927	24639
826.067	24505
826.206	24616
826.346	24585
826.485	24669
826.625	24559
826.765	24616
826.904	24555
827.044	24277
827.183	24277
827.323	24190
827.462	24334
827.601	24311
827.741	24129
827.88	24243
828.02	24030
828.159	24224
828.298	24171
828.437	24186
828.577	24144
828.716	24403
828.855	24117
828.994	23961
829.134	23958
829.273	23999
829.412	23954
829.551	23870
829.69	23977
829.829	23992
829.968	23908
830.107	23984
830.246	23988
830.385	23946
830.524	23828
830.663	23817
830.802	23627
830.941	23501
831.08	23615
831.219	23589
831.357	23585
831.496	23805
831.635	23684
831.774	23444
831.913	23524
832.051	23444
832.19	23307
832.329	23360
832.467	23345
832.606	23102
832.744	23166
832.883	23212
833.022	23341
833.16	23166
833.299	23277
833.437	23261
833.576	23277
833.714	23326
833.852	23349
833.991	23239
834.129	23398
834.267	23383
834.406	23303
834.544	23280
834.682	23303
834.821	23223
834.959	23501
835.097	23155
835.235	23379
835.373	23334
835.511	23307
835.65	23292
835.788	23102
835.926	22968
836.064	22999
836.202	22991
836.34	23067
836.478	23105
836.615	23136
836.753	23208
836.891	23216
837.029	23181
837.167	23090
837.305	23044
837.443	22968
837.58	22911
837.718	23117
837.856	23056
837.993	22915
838.131	22987
838.269	22881
838.406	22873
838.544	22778
838.681	22698
838.819	22615
838.956	22428
839.094	22527
839.231	22546
839.369	22615
839.506	22881
839.643	22786
839.781	22451
839.918	22527
840.055	22493
840.193	22531
840.33	22443
840.467	22485
840.604	22500
840.742	22649
840.879	22291
841.016	22333
841.153	22325
841.29	22535
841.427	22428
841.564	22287
841.701	22257
841.838	22291
841.975	22207
842.112	22276
842.249	22139
842.385	22246
842.522	22314
842.659	22242
842.796	22105
842.933	22120
843.069	22185
843.206	22124
843.343	22150
843.479	22128
843.616	22188
843.752	22067
843.889	22032
844.025	22029
844.162	21964
844.298	22120
844.435	22010
844.571	21888
844.708	21994
844.844	21991
844.98	22029
845.117	21949
845.253	21926
845.389	21827
845.525	21903
845.661	21770
845.798	21625
845.934	21774
846.07	21587
846.206	21717
846.342	21622
846.478	21644
846.614	21538
846.75	21443
846.886	21424
847.022	21587
847.158	21545
847.294	21500
847.429	21515
847.565	21469
847.701	21679
847.837	21100
847.972	21024
848.108	21173
848.244	21154
848.379	21039
848.515	20933
848.65	21009
848.786	20979
848.921	20998
849.057	21104
849.192	21112
849.328	21066
849.463	20990
849.598	21066
849.734	20986
849.869	20902
850.004	20853
850.14	20788
850.275	20861
850.41	20568
850.545	20849
850.68	20693
850.815	20758
850.95	20804
851.085	21039
851.22	20826
851.355	20785
851.49	20743
851.625	20693
851.76	20781
851.895	20663
852.03	20617
852.165	20693
852.299	20838
852.434	20918
852.569	20769
852.703	20708
852.838	20849
852.973	20929
853.107	20872
853.242	20663
853.376	20571
853.511	20530
853.645	20632
853.78	20632
853.914	20659
854.048	20423
854.183	20629
854.317	20579
854.451	20750
854.585	20625
854.72	20640
854.854	20769
854.988	20571
855.122	20541
855.256	20419
855.39	20598
855.524	20564
855.658	20617
855.792	20568
855.926	20613
856.06	20697
856.194	20621
856.327	20598
856.461	20526
856.595	20602
856.729	20560
856.862	20655
856.996	20579
857.13	20629
857.263	20720
857.397	20712
857.53	20511
857.664	20632
857.797	20697
857.931	20686
858.064	20644
858.197	20590
858.331	20587
858.464	20499
858.597	20423
858.731	20564
858.864	20625
858.997	20583
859.13	20667
859.263	20613
859.396	20659
859.529	20640
859.662	20606
859.795	20465
859.928	20594
860.061	20746
860.194	20735
860.327	20629
860.46	20651
860.592	20724
860.725	20781
860.858	20712
860.99	20568
861.123	20568
861.256	20522
861.388	20587
861.521	21211
861.653	20480
861.786	20362
861.918	20473
862.05	20533
862.183	20514
862.315	20469
862.447	20686
862.58	20366
862.712	20305
862.844	20358
862.976	20495
863.108	20389
863.24	20743
863.372	20172
863.504	20240
863.636	20301
863.768	20389
863.9	20400
864.032	20347
864.164	20282
864.296	20324
864.428	20488
864.559	20484
864.691	20431
864.823	20183
864.954	20282
865.086	20328
865.217	20153
865.349	20164
865.48	20336
865.612	20301
865.743	20446
865.875	20191
866.006	20142
866.137	20244
866.269	20256
866.4	20183
866.531	20138
866.662	20187
866.793	20119
866.924	20149
867.055	20077
867.186	20210
867.317	20157
867.448	20050
867.579	20176
867.71	20054
867.841	20149
867.972	20134
868.103	20100
868.233	20115
868.364	20191
868.495	20301
868.625	20286
868.756	20431
868.886	20374
869.017	20358
869.147	20526
869.278	20598
869.408	20427
869.539	20454
869.669	20556
869.799	20454
869.929	20583
870.06	20514
870.19	20651
870.32	20568
870.45	20705
870.58	20735
870.71	20895
870.84	20849
870.97	20838
871.1	20807
871.23	21013
871.36	21085
871.489	20891
871.619	20853
871.749	20941
871.879	21085
872.008	21047
872.138	21036
872.267	21100
872.397	20861
872.526	20762
872.656	20895
872.785	20823
872.915	21017
873.044	21043
873.173	21013
873.303	21131
873.432	21070
873.561	21085
873.69	21058
873.819	21047
873.948	21169
874.077	21058
874.206	21013
874.335	20998
874.464	21272
874.593	21207
874.722	21233
874.851	21283
874.979	21393
875.108	21317
875.237	21123
875.365	21348
875.494	21359
875.623	21408
875.751	21291
875.88	21359
876.008	21469
876.136	21504
876.265	21660
876.393	21762
876.521	21804
876.65	21694
876.778	21869
876.906	21701
877.034	21705
877.162	21587
877.29	21637
877.418	21736
877.546	21671
877.674	21644
877.802	21595
877.93	21709
878.058	21542
878.185	21549
878.313	21641
878.441	21648
878.568	21469
878.696	21610
878.824	21781
878.951	21709
879.079	21812
879.206	21895
879.333	21854
879.461	21720
879.588	21774
879.715	21751
879.842	21903
879.97	21751
880.097	21500
880.224	21473
880.351	21428
880.478	21450
880.605	21473
880.732	21504
880.859	21732
880.986	21504
881.112	21606
881.239	21306
881.366	21279
881.493	21093
881.619	21214
881.746	21081
881.872	21058
881.999	20956
882.125	20937
882.252	21146
882.378	21047
882.505	21070
882.631	21017
882.757	20731
882.883	20872
883.01	20891
883.136	20750
883.262	20507
883.388	20629
883.514	20842
883.64	20811
883.766	20674
883.892	20564
884.018	20552
884.143	20785
884.269	20777
884.395	20396
884.52	20476
884.646	20393
884.772	20404
884.897	20389
885.023	20488
885.148	20389
885.274	20560
885.399	20469
885.524	20499
885.65	20533
885.775	20488
885.9	20465
886.025	20480
886.15	20461
886.275	20404
886.4	20164
886.525	20351
886.65	20389
886.775	20393
886.9	20488
887.025	20636
887.149	20381
887.274	20191
887.399	20305
887.523	20256
887.648	20157
887.773	20122
887.897	20191
888.021	20237
888.146	20111
888.27	20328
888.395	20434
888.519	20221
888.643	20107
888.767	20237
888.891	20145
889.015	20027
889.139	20100
889.263	20024
889.387	20100
889.511	20187
889.635	20107
889.759	20111
889.883	19970
890.006	19879
890.13	20081
890.254	19936
890.377	19989
890.501	19803
890.624	19780
890.748	19799
890.871	19651
890.995	19582
891.118	19510
891.241	19750
891.364	19681
891.488	19655
891.611	19674
891.734	19582
891.857	19582
891.98	19578
892.103	19597
892.226	19647
892.349	19533
892.471	19403
892.594	19480
892.717	19533
892.839	19388
892.962	19468
893.085	19540
893.207	19487
893.33	19468
893.452	19468
893.575	19400
893.697	19521
893.819	19708
893.941	19712
894.064	19647
894.186	19495
894.308	19392
894.43	19677
894.552	19643
894.674	19609
894.796	19415
894.918	19537
895.04	19556
895.161	19567
895.283	19559
895.405	19533
895.526	19578
895.648	19563
895.769	19537
895.891	19613
896.012	19712
896.134	19559
896.255	19483
896.376	19468
896.498	19491
896.619	19563
896.74	19483
896.861	19544
896.982	19738
897.103	19894
897.224	19822
897.345	19765
897.466	19590
897.587	19826
897.708	19822
897.828	19788
897.949	19651
898.07	19666
898.19	19696
898.311	19738
898.431	19761
898.552	19769
898.672	19818
898.792	19830
898.913	19799
899.033	19639
899.153	19518
899.273	19510
899.393	19468
899.513	19518
899.633	19605
899.753	19518
899.873	19457
899.993	19514
900.113	19441
900.232	19472
900.352	19396
900.472	19282
900.591	19324
900.711	19316
900.83	19293
900.95	19396
901.069	19365
901.189	19148
901.308	18981
901.427	18928
901.546	18916
901.665	18875
901.784	18825
901.904	18745
902.023	18719
902.141	18547
902.26	18429
902.379	18456
902.498	18391
902.617	18346
902.735	18445
902.854	18251
902.973	18323
903.091	18022
903.21	17965
903.328	18167
903.446	18015
903.565	17798
903.683	17863
903.801	17745
903.919	17893
904.038	17847
904.156	17684
904.274	17817
904.392	17665
904.51	17623
904.627	17627
904.745	17707
904.863	17684
904.981	17425
905.098	17330
905.216	17318
905.334	17360
905.451	17345
905.569	17299
905.686	17315
905.803	17315
905.921	17254
906.038	17132
906.155	17105
906.272	17025
906.389	16987
906.506	16980
906.623	16923
906.74	16847
906.857	16782
906.974	16774
907.091	16892
907.208	17014
907.324	16980
907.441	16713
907.557	16687
907.674	16622
907.79	16493
907.907	16664
908.023	16637
908.139	16531
908.256	16516
908.372	16481
908.488	16535
908.604	16405
908.72	16413
908.836	16386
908.952	16360
909.068	16352
909.184	16428
909.3	16413
909.415	16318
909.531	16333
909.647	16074
909.762	16078
909.878	16059
909.993	16071
910.108	15998
910.224	15953
910.339	15998
910.454	15907
910.57	15922
910.685	15846
910.8	16074
910.915	15934
911.03	15816
911.145	15701
911.259	15576
911.374	15633
911.489	15564
911.604	15504
911.718	15386
911.833	15428
911.947	15344
912.062	15245
912.176	15401
912.291	15511
912.405	15439
912.519	15534
912.633	15568
912.748	15473
912.862	15389
912.976	15226
913.09	15127
913.204	15157
913.318	15313
913.431	15382
913.545	15264
913.659	15424
913.772	15127
913.886	14986
914	15081
914.113	15032
914.226	15100
914.34	15062
914.453	15009
914.566	15093
914.68	14914
914.793	14853
914.906	14727
915.019	14640
915.132	14549
915.245	14697
915.358	14735
915.47	14689
915.583	14590
915.696	14587
915.809	14796
915.921	14743
916.034	14648
916.146	14511
916.259	14476
916.371	14575
916.483	14507
916.595	14454
916.708	14465
916.82	14408
916.932	14400
917.044	14480
917.156	14454
917.268	14355
917.38	14267
917.491	14362
917.603	14355
917.715	14298
917.826	14374
917.938	14263
918.049	14115
918.161	14244
918.272	14454
918.384	14400
918.495	14290
918.606	14043
918.717	13967
918.828	14073
918.939	14142
919.05	14058
919.161	14073
919.272	13959
919.383	13879
919.494	14077
919.604	14240
919.715	14039
919.826	14005
919.936	14027
920.047	14103
920.157	14073
920.267	14221
920.378	14058
920.488	14062
920.598	14130
920.708	14244
920.818	14221
920.928	14294
921.038	14389
921.148	14328
921.258	13974
921.368	13944
921.477	13769
921.587	13776
921.697	13624
921.806	13780
921.916	13658
922.025	13636
922.134	13430
922.244	13464
922.353	13506
922.462	13312
922.571	13206
922.68	13133
922.789	13110
922.898	13149
923.007	13023
923.116	13023
923.224	13129
923.333	13103
923.442	12970
923.55	12875
923.659	12928
923.767	12928
923.876	12829
923.984	12913
924.092	12840
924.201	12878
924.309	12814
924.417	12867
924.525	12760
924.633	12707
924.741	13731
924.849	12612
924.956	12703
925.064	12608
925.172	12490
925.279	12597
925.387	12536
925.494	12506
925.602	12650
925.709	12544
925.816	12460
925.924	12486
926.031	12521
926.138	12509
926.245	12540
926.352	12369
926.459	12467
926.566	12593
926.673	12448
926.779	12369
926.886	12334
926.993	12178
927.099	12224
927.206	12133
927.312	12102
927.419	12152
927.525	12098
927.631	12125
927.737	12049
927.843	11988
927.95	11847
928.056	11969
928.162	11916
928.267	11965
928.373	12460
928.479	12087
928.585	11707
928.69	11878
928.796	11908
928.901	11748
929.007	11608
929.112	11794
929.218	11718
929.323	11741
929.428	11783
929.533	11821
929.638	11630
929.743	11623
929.848	11737
929.953	11573
930.058	11596
930.163	11345
930.267	11315
930.372	11493
930.477	11349
930.581	11570
930.685	11425
930.79	11162
930.894	11303
930.998	11254
931.103	11296
931.207	10991
931.311	11041
931.415	10839
931.519	10717
931.623	10694
