Data from test_V78500241_719.txt Node
Date: Fri Mar 25 15:14:51 CST 2022
User: usil
Spectrometer: V785-0024
Trigger mode: 0
Integration Time (sec): 4.000000E-1
Scans to average: 1
Nonlinearity correction enabled: false
Boxcar width: 0
Storing dark spectrum: false
XAxis mode: Wavelengths
Number of Pixels in Spectrum: 1024
>>>>>Begin Spectral Data<<<<<
801.071	28166
801.214	27983
801.356	27755
801.499	27895
801.641	27576
801.783	27694
801.926	27732
802.068	27500
802.211	27507
802.353	27340
802.496	27367
802.638	27260
802.78	27367
802.923	27195
803.065	27298
803.208	27184
803.35	27313
803.492	27370
803.635	27481
803.777	27260
803.919	27686
804.061	27717
804.204	27507
804.346	27523
804.488	27291
804.63	27424
804.773	27256
804.915	27504
805.057	27625
805.199	27458
805.341	27591
805.483	27637
805.626	27625
805.768	27538
805.91	27618
806.052	27686
806.194	27622
806.336	27785
806.478	27663
806.62	27656
806.762	27800
806.904	27930
807.046	28078
807.188	28010
807.33	28059
807.472	28181
807.614	27918
807.756	28135
807.898	27964
808.04	27797
808.182	27949
808.324	27941
808.465	27975
808.607	28154
808.749	28318
808.891	28306
809.033	28356
809.174	28455
809.316	28246
809.458	28356
809.6	28401
809.741	28329
809.883	28424
810.025	28535
810.166	28683
810.308	28607
810.45	28569
810.591	28561
810.733	28291
810.875	28291
811.016	28265
811.158	28303
811.299	28466
811.441	28470
811.582	28474
811.724	28257
811.865	28375
812.007	28219
812.148	28284
812.29	28367
812.431	28519
812.573	28634
812.714	28752
812.855	28778
812.997	28938
813.138	29200
813.279	28999
813.421	28942
813.562	28816
813.703	28580
813.845	28634
813.986	28238
814.127	28010
814.268	27994
814.41	28109
814.551	27953
814.692	27930
814.833	27926
814.974	27918
815.115	28048
815.256	27755
815.397	27861
815.539	27949
815.68	27808
815.821	27766
815.962	27759
816.103	27831
816.244	27785
816.385	27564
816.526	27488
816.666	27568
816.807	27393
816.948	27431
817.089	27427
817.23	27374
817.371	27306
817.512	27389
817.653	27310
817.793	27340
817.934	27287
818.075	27329
818.216	27317
818.356	27268
818.497	27222
818.638	27020
818.778	27032
818.919	27009
819.06	27176
819.2	27283
819.341	27226
819.481	27222
819.622	27397
819.762	27606
819.903	27504
820.043	27545
820.184	27492
820.324	27268
820.465	27488
820.605	27462
820.746	27367
820.886	27291
821.026	27405
821.167	27386
821.307	27515
821.447	27355
821.588	27203
821.728	27039
821.868	26937
822.008	26830
822.149	26693
822.289	26773
822.429	26541
822.569	26507
822.709	26400
822.849	26336
822.99	26343
823.13	26301
823.27	26233
823.41	26031
823.55	26092
823.69	26157
823.83	26138
823.97	26119
824.11	25974
824.25	25906
824.389	25860
824.529	26081
824.669	25963
824.809	26020
824.949	26031
825.089	26081
825.228	26069
825.368	25677
825.508	25822
825.648	25807
825.787	25902
825.927	25864
826.067	25795
826.206	25784
826.346	25727
826.485	25799
826.625	25788
826.765	25966
826.904	25795
827.044	25632
827.183	25540
827.323	25468
827.462	25571
827.601	25479
827.741	25438
827.88	25609
828.02	25331
828.159	25369
828.298	25495
828.437	25708
828.577	25449
828.716	25578
828.855	25354
828.994	25240
829.134	25255
829.273	25320
829.412	25270
829.551	25126
829.69	25232
829.829	25285
829.968	25228
830.107	25335
830.246	25179
830.385	25148
830.524	25236
830.663	24992
830.802	24924
830.941	24894
831.08	24779
831.219	24821
831.357	24852
831.496	24894
831.635	24878
831.774	24544
831.913	24760
832.051	24646
832.19	24623
832.329	24551
832.467	24658
832.606	24486
832.744	24323
832.883	24372
833.022	24327
833.16	24372
833.299	24544
833.437	24380
833.576	24589
833.714	24521
833.852	24559
833.991	24681
834.129	24631
834.267	24601
834.406	24532
834.544	24631
834.682	24505
834.821	24429
834.959	24707
835.097	24486
835.235	24505
835.373	24642
835.511	24410
835.65	24350
835.788	24266
835.926	24315
836.064	24239
836.202	24361
836.34	24285
836.478	24486
836.615	24300
836.753	24304
836.891	24467
837.029	24357
837.167	24304
837.305	24388
837.443	24224
837.58	24155
837.718	24277
837.856	24155
837.993	24068
838.131	24216
838.269	24030
838.406	23996
838.544	24007
838.681	23870
838.819	23840
838.956	23672
839.094	23611
839.231	23783
839.369	23760
839.506	24038
839.643	23863
839.781	23627
839.918	23729
840.055	23577
840.193	23676
840.33	23512
840.467	23512
840.604	23547
840.742	23920
840.879	23505
841.016	23512
841.153	23493
841.29	23680
841.427	23520
841.564	23676
841.701	23455
841.838	23531
841.975	23539
842.112	23520
842.249	23436
842.385	23315
842.522	23604
842.659	23398
842.796	23227
842.933	23326
843.069	23318
843.206	23349
843.343	23356
843.479	23250
843.616	23368
843.752	23178
843.889	23105
844.025	23296
844.162	22991
844.298	23235
844.435	23162
844.571	23094
844.708	23197
844.844	23246
844.98	23261
845.117	23170
845.253	23022
845.389	23064
845.525	23052
845.661	22927
845.798	22847
845.934	22809
846.07	22839
846.206	22961
846.342	22934
846.478	22786
846.614	22713
846.75	22535
846.886	22717
847.022	22660
847.158	22702
847.294	22535
847.429	22527
847.565	22573
847.701	22908
847.837	22390
847.972	22265
848.108	22428
848.244	22478
848.379	22185
848.515	22112
848.65	22109
848.786	22303
848.921	22234
849.057	22261
849.192	22272
849.328	22402
849.463	22135
849.598	22166
849.734	22032
849.869	22002
850.004	21975
850.14	21922
850.275	21911
850.41	21873
850.545	21926
850.68	21964
850.815	21953
850.95	21915
851.085	22029
851.22	22078
851.355	21979
851.49	21926
851.625	21812
851.76	21888
851.895	21854
852.03	21869
852.165	21918
852.299	21998
852.434	21956
852.569	21937
852.703	22067
852.838	22051
852.973	22109
853.107	22082
853.242	21930
853.376	21743
853.511	21614
853.645	21644
853.78	21873
853.914	21816
854.048	21762
854.183	21739
854.317	21789
854.451	21953
854.585	21823
854.72	21739
854.854	21911
854.988	21686
855.122	21774
855.256	21637
855.39	21698
855.524	21831
855.658	21709
855.792	21808
855.926	21827
856.06	21739
856.194	21823
856.327	21656
856.461	21576
856.595	21705
856.729	21789
856.862	21911
856.996	21766
857.13	21846
857.263	21781
857.397	21823
857.53	21739
857.664	21766
857.797	21934
857.931	21808
858.064	21751
858.197	21884
858.331	21705
858.464	21663
858.597	21713
858.731	21766
858.864	21603
858.997	21778
859.13	21846
859.263	21781
859.396	21751
859.529	21660
859.662	21736
859.795	21857
859.928	21831
860.061	21816
860.194	21869
860.327	21762
860.46	21762
860.592	21804
860.725	21926
860.858	21857
860.99	21743
861.123	21663
861.256	21667
861.388	21770
861.521	22474
861.653	21591
861.786	21561
861.918	21496
862.05	21751
862.183	21671
862.315	21713
862.447	21603
862.58	21644
862.712	21454
862.844	21405
862.976	21466
863.108	21652
863.24	21732
863.372	21424
863.504	21572
863.636	21485
863.768	21466
863.9	21408
864.032	21405
864.164	21355
864.296	21405
864.428	21526
864.559	21561
864.691	21580
864.823	21450
864.954	21477
865.086	21389
865.217	21351
865.349	21317
865.48	21294
865.612	21367
865.743	21462
865.875	21329
866.006	21294
866.137	21310
866.269	21298
866.4	21222
866.531	21252
866.662	21211
866.793	21279
866.924	21348
867.055	21291
867.186	21291
867.317	21138
867.448	21211
867.579	21211
867.71	21093
867.841	21135
867.972	21252
868.103	21294
868.233	21211
868.364	21260
868.495	21355
868.625	21458
868.756	21561
868.886	21515
869.017	21294
869.147	21675
869.278	21679
869.408	21583
869.539	21458
869.669	21622
869.799	21458
869.929	21618
870.06	21507
870.19	21732
870.32	21835
870.45	21922
870.58	21892
870.71	21850
870.84	22010
870.97	21812
871.1	21907
871.23	22055
871.36	22051
871.489	22070
871.619	22169
871.749	21975
871.879	22002
872.008	22147
872.138	22246
872.267	22067
872.397	21895
872.526	21880
872.656	21975
872.785	21861
872.915	22211
873.044	22204
873.173	22124
873.303	22147
873.432	22048
873.561	22109
873.69	22325
873.819	22070
873.948	22166
874.077	22112
874.206	22128
874.335	22093
874.464	22280
874.593	22405
874.722	22238
874.851	22386
874.979	22379
875.108	22379
875.237	22253
875.365	22295
875.494	22367
875.623	22478
875.751	22257
875.88	22390
876.008	22535
876.136	22493
876.265	22607
876.393	22854
876.521	22839
876.65	22843
876.778	22717
876.906	22691
877.034	22596
877.162	22736
877.29	22569
877.418	22805
877.546	22687
877.674	22755
877.802	22664
877.93	22637
878.058	22831
878.185	22611
878.313	22672
878.441	22778
878.568	22447
878.696	22679
878.824	22740
878.951	22809
879.079	22873
879.206	22995
879.333	22687
879.461	22687
879.588	22752
879.715	22919
879.842	22995
879.97	22694
880.097	22512
880.224	22500
880.351	22440
880.478	22500
880.605	22402
880.732	22394
880.859	22698
880.986	22512
881.112	22409
881.239	22440
881.366	22261
881.493	22139
881.619	21991
881.746	22067
881.872	22055
881.999	21979
882.125	22109
882.252	22169
882.378	22086
882.505	22337
882.631	22036
882.757	21686
882.883	21827
883.01	21778
883.136	21663
883.262	21641
883.388	21759
883.514	21675
883.64	21857
883.766	21682
883.892	21431
884.018	21583
884.143	21663
884.269	21694
884.395	21534
884.52	21397
884.646	21367
884.772	21393
884.897	21203
885.023	21416
885.148	21382
885.274	21450
885.399	21401
885.524	21424
885.65	21458
885.775	21454
885.9	21420
886.025	21431
886.15	21447
886.275	21374
886.4	21157
886.525	21275
886.65	21252
886.775	21344
886.9	21500
887.025	21542
887.149	21321
887.274	21123
887.399	21127
887.523	21180
887.648	21142
887.773	21020
887.897	21287
888.021	21150
888.146	21146
888.27	21310
888.395	21306
888.519	21283
888.643	21138
888.767	21154
888.891	21036
889.015	20971
889.139	21051
889.263	20933
889.387	21112
889.511	21241
889.635	21047
889.759	20979
889.883	20811
890.006	20956
890.13	21074
890.254	20857
890.377	20906
890.501	20735
890.624	20632
890.748	20708
890.871	20617
890.995	20488
891.118	20404
891.241	20549
891.364	20442
891.488	20587
891.611	20575
891.734	20454
891.857	20556
891.98	20743
892.103	20590
892.226	20412
892.349	20507
892.471	20362
892.594	20408
892.717	20503
892.839	20457
892.962	20454
893.085	20526
893.207	20347
893.33	20275
893.452	20195
893.575	20343
893.697	20252
893.819	20575
893.941	20492
894.064	20469
894.186	20408
894.308	20301
894.43	20495
894.552	20507
894.674	20412
894.796	20278
894.918	20385
895.04	20507
895.161	20469
895.283	20427
895.405	20221
895.526	20366
895.648	20442
895.769	20442
895.891	20507
896.012	20442
896.134	20579
896.255	20404
896.376	20324
896.498	20446
896.619	20351
896.74	20396
896.861	20499
896.982	20667
897.103	20815
897.224	20819
897.345	20716
897.466	20514
897.587	20651
897.708	20826
897.828	20560
897.949	20526
898.07	20469
898.19	20465
898.311	20568
898.431	20606
898.552	20659
898.672	20609
898.792	20788
898.913	20609
899.033	20450
899.153	20370
899.273	20336
899.393	20294
899.513	20461
899.633	20450
899.753	20511
899.873	20301
899.993	20427
900.113	20259
900.232	20263
900.352	20244
900.472	20153
900.591	20157
900.711	20225
900.83	20081
900.95	20339
901.069	20195
901.189	20050
901.308	19898
901.427	19795
901.546	19742
901.665	19734
901.784	19635
901.904	19693
902.023	19430
902.141	19339
902.26	19285
902.379	19263
902.498	19209
902.617	19244
902.735	19312
902.854	19217
902.973	19160
903.091	18878
903.21	18897
903.328	18821
903.446	18817
903.565	18749
903.683	18658
903.801	18585
903.919	18681
904.038	18642
904.156	18490
904.274	18551
904.392	18433
904.51	18547
904.627	18407
904.745	18494
904.863	18403
904.981	18289
905.098	18114
905.216	18072
905.334	18155
905.451	18095
905.569	18060
905.686	18136
905.803	18136
905.921	17931
906.038	18095
906.155	17859
906.272	17836
906.389	17897
906.506	17668
906.623	17684
906.74	17646
906.857	17524
906.974	17509
907.091	17809
907.208	17707
907.324	17668
907.441	17486
907.557	17398
907.674	17383
907.79	17372
907.907	17353
908.023	17414
908.139	17368
908.256	17280
908.372	17292
908.488	17299
908.604	17113
908.72	17121
908.836	17094
908.952	17113
909.068	17086
909.184	17128
909.3	17086
909.415	17132
909.531	17094
909.647	16839
909.762	16816
909.878	16759
909.993	16816
910.108	16786
910.224	16755
910.339	16790
910.454	16744
910.57	16641
910.685	16592
910.8	16866
910.915	16755
911.03	16611
911.145	16481
911.259	16440
911.374	16360
911.489	16333
911.604	16322
911.718	16120
911.833	16196
911.947	16006
912.062	15907
912.176	16048
912.291	16082
912.405	16105
912.519	16249
912.633	16215
912.748	16192
912.862	16029
912.976	15857
913.09	15876
913.204	15964
913.318	15998
913.431	16017
913.545	15934
913.659	16025
913.772	16002
913.886	15854
914	15797
914.113	15739
914.226	15835
914.34	15770
914.453	15644
914.566	15663
914.68	15641
914.793	15610
914.906	15466
915.019	15332
915.132	15291
915.245	15351
915.358	15306
915.47	15378
915.583	15359
915.696	15302
915.809	15431
915.921	15447
916.034	15268
916.146	15214
916.259	15203
916.371	15302
916.483	15283
916.595	15157
916.708	15226
916.82	15146
916.932	15142
917.044	15085
917.156	15154
917.268	15047
917.38	14982
917.491	14918
917.603	14994
917.715	14990
917.826	15070
917.938	14982
918.049	14876
918.161	14967
918.272	15020
918.384	15047
918.495	14880
918.606	14792
918.717	14727
918.828	14762
918.939	14853
919.05	14594
919.161	14727
919.272	14480
919.383	14560
919.494	14663
919.604	14979
919.715	14792
919.826	14598
919.936	14727
920.047	14788
920.157	14796
920.267	14895
920.378	14670
920.488	14716
920.598	14853
920.708	15074
920.818	14712
920.928	14804
921.038	14986
921.148	14937
921.258	14651
921.368	14556
921.477	14522
921.587	14518
921.697	14484
921.806	14404
921.916	14351
922.025	14130
922.134	14172
922.244	14031
922.353	14103
922.462	13951
922.571	13913
922.68	13780
922.789	13689
922.898	13753
923.007	13712
923.116	13685
923.224	13689
923.333	13658
923.442	13483
923.55	13525
923.659	13605
923.767	13594
923.876	13514
923.984	13651
924.092	13293
924.201	13445
924.309	13476
924.417	13476
924.525	13388
924.633	13396
924.741	14111
924.849	13145
924.956	13255
925.064	13149
925.172	13187
925.279	13118
925.387	13168
925.494	13156
925.602	13107
925.709	13187
925.816	12954
925.924	13019
926.031	13084
926.138	13015
926.245	13107
926.352	12916
926.459	12985
926.566	13103
926.673	12954
926.779	12867
926.886	12916
926.993	12741
927.099	12658
927.206	12654
927.312	12612
927.419	12692
927.525	12547
927.631	12662
927.737	12635
927.843	12635
927.95	12346
928.056	12540
928.162	12551
928.267	12563
928.373	13194
928.479	12566
928.585	12464
928.69	12388
928.796	12448
928.901	12376
929.007	12254
929.112	12357
929.218	12350
929.323	12258
929.428	12182
929.533	12357
929.638	12216
929.743	12213
929.848	12239
929.953	12155
930.058	12148
930.163	11878
930.267	11927
930.372	12072
930.477	11802
930.581	12102
930.685	11901
930.79	11794
930.894	11836
930.998	11760
931.103	11973
931.207	11493
931.311	11474
931.415	11379
931.519	11227
931.623	11204
