Data from test_V78500241_2215.txt Node
Date: Fri Mar 25 15:25:16 CST 2022
User: usil
Spectrometer: V785-0024
Trigger mode: 0
Integration Time (sec): 4.000000E-1
Scans to average: 1
Nonlinearity correction enabled: false
Boxcar width: 0
Storing dark spectrum: false
XAxis mode: Wavelengths
Number of Pixels in Spectrum: 1024
>>>>>Begin Spectral Data<<<<<
801.071	27800
801.214	27732
801.356	27500
801.499	27576
801.641	27416
801.783	27313
801.926	27351
802.068	27443
802.211	27332
802.353	27272
802.496	27047
802.638	27066
802.78	27199
802.923	26979
803.065	26933
803.208	26960
803.35	27032
803.492	27093
803.635	27260
803.777	27180
803.919	27302
804.061	27648
804.204	27203
804.346	27214
804.488	27173
804.63	27150
804.773	27199
804.915	27184
805.057	27317
805.199	27268
805.341	27279
805.483	27370
805.626	27405
805.768	27161
805.91	27359
806.052	27325
806.194	27294
806.336	27458
806.478	27370
806.62	27420
806.762	27496
806.904	27633
807.046	27835
807.188	27922
807.33	27751
807.472	27884
807.614	27652
807.756	27895
807.898	27663
808.04	27690
808.182	27595
808.324	27580
808.465	27724
808.607	28078
808.749	27972
808.891	28135
809.033	28120
809.174	28143
809.316	27945
809.458	27968
809.6	27960
809.741	28135
809.883	28078
810.025	28348
810.166	28352
810.308	28341
810.45	28169
810.591	28090
810.733	28101
810.875	27838
811.016	27884
811.158	27895
811.299	28051
811.441	28166
811.582	28196
811.724	27972
811.865	27846
812.007	27983
812.148	28040
812.29	27998
812.431	28013
812.573	28333
812.714	28295
812.855	28554
812.997	28573
813.138	28729
813.279	28713
813.421	28512
813.562	28447
813.703	28310
813.845	28280
813.986	27907
814.127	27888
814.268	27880
814.41	27797
814.551	27618
814.692	27679
814.833	27755
814.974	27610
815.115	27671
815.256	27564
815.397	27766
815.539	27572
815.68	27530
815.821	27500
815.962	27469
816.103	27378
816.244	27363
816.385	27218
816.526	27214
816.666	27085
816.807	26899
816.948	27127
817.089	27154
817.23	27036
817.371	26963
817.512	26952
817.653	26861
817.793	26979
817.934	26838
818.075	27055
818.216	26895
818.356	26899
818.497	26864
818.638	26727
818.778	26686
818.919	26811
819.06	26826
819.2	26963
819.341	26883
819.481	27036
819.622	27207
819.762	27408
819.903	27199
820.043	27188
820.184	27104
820.324	27032
820.465	27150
820.605	26998
820.746	27180
820.886	26971
821.026	27165
821.167	27009
821.307	27108
821.447	26918
821.588	26876
821.728	26796
821.868	26644
822.008	26499
822.149	26404
822.289	26275
822.429	26202
822.569	26088
822.709	26252
822.849	25963
822.99	25894
823.13	26016
823.27	25906
823.41	25780
823.55	25643
823.69	25734
823.83	25940
823.97	25647
824.11	25457
824.25	25578
824.389	25563
824.529	25708
824.669	25453
824.809	25609
824.949	25734
825.089	25742
825.228	25639
825.368	25487
825.508	25419
825.648	25438
825.787	25460
825.927	25670
826.067	25518
826.206	25358
826.346	25510
826.485	25510
826.625	25350
826.765	25453
826.904	25403
827.044	25293
827.183	25316
827.323	25259
827.462	25327
827.601	25053
827.741	25148
827.88	25175
828.02	25095
828.159	25198
828.298	25145
828.437	25095
828.577	25187
828.716	25179
828.855	25008
828.994	24894
829.134	24951
829.273	24871
829.412	24848
829.551	24886
829.69	24935
829.829	24863
829.968	24913
830.107	24867
830.246	24821
830.385	24673
830.524	24802
830.663	24681
830.802	24677
830.941	24570
831.08	24460
831.219	24646
831.357	24388
831.496	24669
831.635	24418
831.774	24505
831.913	24292
832.051	24296
832.19	24159
832.329	24281
832.467	24076
832.606	24174
832.744	24003
832.883	23980
833.022	24083
833.16	24072
833.299	24091
833.437	24110
833.576	24136
833.714	24197
833.852	24148
833.991	24205
834.129	24254
834.267	24144
834.406	24258
834.544	24281
834.682	24300
834.821	24022
834.959	24429
835.097	24091
835.235	24167
835.373	24148
835.511	24038
835.65	24018
835.788	24136
835.926	23828
836.064	23764
836.202	23992
836.34	24091
836.478	24087
836.615	23984
836.753	23935
836.891	24155
837.029	24022
837.167	23893
837.305	23741
837.443	23923
837.58	23764
837.718	24026
837.856	23885
837.993	23908
838.131	23889
838.269	23817
838.406	23752
838.544	23695
838.681	23497
838.819	23497
838.956	23303
839.094	23330
839.231	23444
839.369	23459
839.506	23672
839.643	23619
839.781	23303
839.918	23246
840.055	23356
840.193	23368
840.33	23098
840.467	23136
840.604	23258
840.742	23497
840.879	23109
841.016	23136
841.153	23029
841.29	23307
841.427	23239
841.564	23265
841.701	23200
841.838	23147
841.975	23136
842.112	23159
842.249	22957
842.385	23006
842.522	23132
842.659	23052
842.796	23022
842.933	22828
843.069	22858
843.206	22862
843.343	23105
843.479	23010
843.616	23056
843.752	22759
843.889	22816
844.025	22923
844.162	22809
844.298	22885
844.435	22740
844.571	22664
844.708	22672
844.844	22790
844.98	22892
845.117	22752
845.253	22717
845.389	22569
845.525	22744
845.661	22675
845.798	22428
845.934	22577
846.07	22436
846.206	22455
846.342	22527
846.478	22421
846.614	22238
846.75	22223
846.886	22204
847.022	22287
847.158	22124
847.294	22306
847.429	22234
847.565	22192
847.701	22299
847.837	21960
847.972	21869
848.108	22010
848.244	22070
848.379	21861
848.515	21816
848.65	21728
848.786	21709
848.921	21861
849.057	21873
849.192	21854
849.328	21846
849.463	21819
849.598	21766
849.734	21705
849.869	21644
850.004	21583
850.14	21572
850.275	21622
850.41	21401
850.545	21545
850.68	21530
850.815	21671
850.95	21549
851.085	21827
851.22	21637
851.355	21633
851.49	21545
851.625	21557
851.76	21488
851.895	21405
852.03	21488
852.165	21545
852.299	21538
852.434	21576
852.569	21679
852.703	21591
852.838	21610
852.973	21701
853.107	21606
853.242	21450
853.376	21462
853.511	21199
853.645	21310
853.78	21618
853.914	21351
854.048	21355
854.183	21329
854.317	21302
854.451	21481
854.585	21287
854.72	21298
854.854	21428
854.988	21363
855.122	21454
855.256	21169
855.39	21443
855.524	21393
855.658	21420
855.792	21317
855.926	21420
856.06	21317
856.194	21462
856.327	21340
856.461	21359
856.595	21370
856.729	21351
856.862	21401
856.996	21466
857.13	21557
857.263	21408
857.397	21386
857.53	21363
857.664	21351
857.797	21458
857.931	21561
858.064	21351
858.197	21424
858.331	21408
858.464	21313
858.597	21336
858.731	21363
858.864	21367
858.997	21344
859.13	21370
859.263	21298
859.396	21420
859.529	21408
859.662	21397
859.795	21389
859.928	21321
860.061	21618
860.194	21492
860.327	21469
860.46	21412
860.592	21401
860.725	21485
860.858	21564
860.99	21367
861.123	21332
861.256	21306
861.388	21317
861.521	22162
861.653	21150
861.786	21138
861.918	21203
862.05	21184
862.183	21283
862.315	21325
862.447	21450
862.58	21275
862.712	21043
862.844	21070
862.976	21157
863.108	21131
863.24	21370
863.372	21066
863.504	21058
863.636	21070
863.768	21195
863.9	21093
864.032	21036
864.164	21024
864.296	21199
864.428	21195
864.559	21135
864.691	21283
864.823	21020
864.954	21051
865.086	21157
865.217	21074
865.349	20918
865.48	21005
865.612	20944
865.743	20986
865.875	21062
866.006	20990
866.137	20906
866.269	20944
866.4	20944
866.531	20914
866.662	20937
866.793	20929
866.924	21005
867.055	20921
867.186	20796
867.317	20853
867.448	20785
867.579	20895
867.71	20918
867.841	20902
867.972	20982
868.103	20902
868.233	20785
868.364	20929
868.495	20967
868.625	21062
868.756	21211
868.886	20998
869.017	21100
869.147	21256
869.278	21332
869.408	21142
869.539	21150
869.669	21268
869.799	21291
869.929	21230
870.06	21207
870.19	21412
870.32	21431
870.45	21523
870.58	21603
870.71	21690
870.84	21629
870.97	21682
871.1	21614
871.23	21629
871.36	21572
871.489	21462
871.619	21690
871.749	21686
871.879	21759
872.008	21789
872.138	21861
872.267	21800
872.397	21656
872.526	21599
872.656	21690
872.785	21606
872.915	21812
873.044	21747
873.173	21854
873.303	21903
873.432	21698
873.561	21865
873.69	21838
873.819	21857
873.948	21873
874.077	21709
874.206	21717
874.335	21682
874.464	21926
874.593	21998
874.722	21930
874.851	22021
874.979	21987
875.108	22063
875.237	21953
875.365	21831
875.494	21949
875.623	22093
875.751	21892
875.88	21975
876.008	22109
876.136	22169
876.265	22519
876.393	22382
876.521	22386
876.65	22455
876.778	22253
876.906	22322
877.034	22337
877.162	22329
877.29	22314
877.418	22386
877.546	22257
877.674	22363
877.802	22223
877.93	22230
878.058	22352
878.185	22185
878.313	22409
878.441	22333
878.568	22090
878.696	22223
878.824	22348
878.951	22360
879.079	22485
879.206	22611
879.333	22474
879.461	22402
879.588	22405
879.715	22535
879.842	22649
879.97	22413
880.097	22196
880.224	22120
880.351	22242
880.478	22211
880.605	22021
880.732	22105
880.859	22356
880.986	22261
881.112	22162
881.239	22124
881.366	21945
881.493	21876
881.619	21732
881.746	21759
881.872	21667
881.999	21720
882.125	21629
882.252	21667
882.378	21679
882.505	21838
882.631	21618
882.757	21420
882.883	21576
883.01	21473
883.136	21382
883.262	21108
883.388	21195
883.514	21332
883.64	21416
883.766	21321
883.892	21199
884.018	21241
884.143	21401
884.269	21408
884.395	21154
884.52	21108
884.646	20982
884.772	21081
884.897	20933
885.023	21055
885.148	21116
885.274	21199
885.399	21317
885.524	21081
885.65	21123
885.775	21047
885.9	20944
886.025	21116
886.15	21077
886.275	21017
886.4	20887
886.525	21039
886.65	20921
886.775	21119
886.9	21135
887.025	21264
887.149	20933
887.274	20952
887.399	20826
887.523	20819
887.648	20819
887.773	20629
887.897	20777
888.021	20804
888.146	20739
888.27	20921
888.395	20906
888.519	20925
888.643	20937
888.767	20944
888.891	20670
889.015	20659
889.139	20640
889.263	20640
889.387	20682
889.511	20754
889.635	20731
889.759	20705
889.883	20629
890.006	20720
890.13	20804
890.254	20560
890.377	20469
890.501	20347
890.624	20298
890.748	20469
890.871	20317
890.995	20122
891.118	20092
891.241	20187
891.364	20168
891.488	20362
891.611	20195
891.734	20153
891.857	20336
891.98	20263
892.103	20275
892.226	20103
892.349	20168
892.471	19917
892.594	20142
892.717	20058
892.839	20077
892.962	20172
893.085	20195
893.207	20084
893.33	20020
893.452	20008
893.575	20122
893.697	20096
893.819	20233
893.941	20393
894.064	20267
894.186	20024
894.308	19989
894.43	20119
894.552	20157
894.674	20180
894.796	19856
894.918	20077
895.04	20138
895.161	20252
895.283	20218
895.405	19955
895.526	20100
895.648	20065
895.769	20119
895.891	20176
896.012	20130
896.134	20130
896.255	20069
896.376	19993
896.498	20130
896.619	20119
896.74	20134
896.861	20157
896.982	20366
897.103	20556
897.224	20385
897.345	20377
897.466	20221
897.587	20309
897.708	20393
897.828	20415
897.949	20199
898.07	20176
898.19	20225
898.311	20332
898.431	20187
898.552	20381
898.672	20438
898.792	20461
898.913	20301
899.033	20259
899.153	20111
899.273	20027
899.393	20043
899.513	20115
899.633	20054
899.753	20027
899.873	20020
899.993	20024
900.113	20046
900.232	20054
900.352	20031
900.472	20008
900.591	19765
900.711	19811
900.83	19704
900.95	19940
901.069	19913
901.189	19780
901.308	19575
901.427	19453
901.546	19533
901.665	19438
901.784	19537
901.904	19362
902.023	19263
902.141	19061
902.26	18954
902.379	19057
902.498	18951
902.617	18901
902.735	19038
902.854	18954
902.973	18897
903.091	18738
903.21	18681
903.328	18642
903.446	18544
903.565	18429
903.683	18509
903.801	18277
903.919	18426
904.038	18311
904.156	18148
904.274	18338
904.392	18186
904.51	18064
904.627	18171
904.745	18194
904.863	18174
904.981	17969
905.098	17882
905.216	17939
905.334	17786
905.451	17840
905.569	17836
905.686	17843
905.803	17893
905.921	17657
906.038	17703
906.155	17653
906.272	17532
906.389	17596
906.506	17349
906.623	17387
906.74	17398
906.857	17299
906.974	17258
907.091	17471
907.208	17474
907.324	17372
907.441	17280
907.557	17174
907.674	17147
907.79	17071
907.907	17018
908.023	17178
908.139	17113
908.256	16949
908.372	16953
908.488	16923
908.604	16919
908.72	16820
908.836	16820
908.952	16824
909.068	16816
909.184	16843
909.3	16713
909.415	16900
909.531	16763
909.647	16656
909.762	16637
909.878	16504
909.993	16527
910.108	16466
910.224	16451
910.339	16565
910.454	16497
910.57	16356
910.685	16215
910.8	16443
910.915	16432
911.03	16246
911.145	16215
911.259	16044
911.374	16143
911.489	16090
911.604	16032
911.718	15804
911.833	15907
911.947	15770
912.062	15694
912.176	15857
912.291	15774
912.405	15800
912.519	16029
912.633	16063
912.748	15846
912.862	15918
912.976	15751
913.09	15625
913.204	15625
913.318	15690
913.431	15781
913.545	15838
913.659	15713
913.772	15709
913.886	15549
914	15378
914.113	15580
914.226	15576
914.34	15576
914.453	15302
914.566	15485
914.68	15317
914.793	15416
914.906	15127
915.019	15138
915.132	15013
915.245	15039
915.358	15108
915.47	15165
915.583	15116
915.696	15089
915.809	15116
915.921	15302
916.034	15043
916.146	14967
916.259	14998
916.371	14986
916.483	15066
916.595	14937
916.708	14998
916.82	14914
916.932	14918
917.044	14933
917.156	14785
917.268	14769
917.38	14697
917.491	14701
917.603	14777
917.715	14785
917.826	14838
917.938	14682
918.049	14575
918.161	14693
918.272	14811
918.384	14739
918.495	14640
918.606	14552
918.717	14396
918.828	14503
918.939	14503
919.05	14396
919.161	14465
919.272	14336
919.383	14313
919.494	14503
919.604	14724
919.715	14530
919.826	14347
919.936	14518
920.047	14621
920.157	14434
920.267	14568
920.378	14415
920.488	14454
920.598	14598
920.708	14815
920.818	14579
920.928	14556
921.038	14773
921.148	14663
921.258	14473
921.368	14290
921.477	14294
921.587	14172
921.697	14043
921.806	14153
921.916	13982
922.025	13852
922.134	13734
922.244	13757
922.353	13856
922.462	13708
922.571	13647
922.68	13533
922.789	13457
922.898	13460
923.007	13422
923.116	13567
923.224	13480
923.333	13578
923.442	13346
923.55	13285
923.659	13392
923.767	13415
923.876	13270
923.984	13343
924.092	13206
924.201	13289
924.309	13179
924.417	13171
924.525	13183
924.633	13133
924.741	13913
924.849	13012
924.956	13076
925.064	12970
925.172	12837
925.279	12894
925.387	12943
925.494	12882
925.602	13095
925.709	12962
925.816	12867
925.924	12905
926.031	12909
926.138	12817
926.245	12878
926.352	12719
926.459	12970
926.566	12837
926.673	12757
926.779	12684
926.886	12677
926.993	12464
927.099	12547
927.206	12479
927.312	12388
927.419	12467
927.525	12612
927.631	12486
927.737	12490
927.843	12365
927.95	12171
928.056	12247
928.162	12266
928.267	12273
928.373	13004
928.479	12308
928.585	12106
928.69	12251
928.796	12376
928.901	12194
929.007	12068
929.112	12121
929.218	12098
929.323	12098
929.428	12022
929.533	12171
929.638	12034
929.743	11996
929.848	12007
929.953	11939
930.058	11821
930.163	11703
930.267	11786
930.372	11828
930.477	11714
930.581	11908
930.685	11843
930.79	11554
930.894	11646
930.998	11596
931.103	11710
931.207	11284
931.311	11250
931.415	11155
931.519	11041
931.623	11052
