Data from test_V78500241_853.txt Node
Date: Fri Mar 25 15:15:47 CST 2022
User: usil
Spectrometer: V785-0024
Trigger mode: 0
Integration Time (sec): 4.000000E-1
Scans to average: 1
Nonlinearity correction enabled: false
Boxcar width: 0
Storing dark spectrum: false
XAxis mode: Wavelengths
Number of Pixels in Spectrum: 1024
>>>>>Begin Spectral Data<<<<<
801.071	28287
801.214	28268
801.356	27983
801.499	27934
801.641	27652
801.783	27739
801.926	27804
802.068	27774
802.211	27686
802.353	27492
802.496	27443
802.638	27469
802.78	27469
802.923	27405
803.065	27340
803.208	27359
803.35	27519
803.492	27679
803.635	27583
803.777	27591
803.919	27637
804.061	27968
804.204	27701
804.346	27603
804.488	27732
804.63	27583
804.773	27507
804.915	27667
805.057	27831
805.199	27675
805.341	27789
805.483	27941
805.626	27759
805.768	27720
805.91	27861
806.052	27835
806.194	27785
806.336	28048
806.478	27880
806.62	27899
806.762	27987
806.904	28032
807.046	28337
807.188	28276
807.33	28299
807.472	28150
807.614	28120
807.756	28291
807.898	28067
808.04	28082
808.182	28101
808.324	28029
808.465	28238
808.607	28299
808.749	28413
808.891	28394
809.033	28641
809.174	28466
809.316	28459
809.458	28497
809.6	28451
809.741	28546
809.883	28569
810.025	28801
810.166	28744
810.308	28733
810.45	28611
810.591	28729
810.733	28508
810.875	28512
811.016	28428
811.158	28398
811.299	28497
811.441	28622
811.582	28622
811.724	28333
811.865	28424
812.007	28470
812.148	28538
812.29	28478
812.431	28683
812.573	28972
812.714	28839
812.855	28999
812.997	29086
813.138	29299
813.279	29231
813.421	28991
813.562	29071
813.703	28900
813.845	28809
813.986	28554
814.127	28257
814.268	28131
814.41	28223
814.551	28238
814.692	28291
814.833	28211
814.974	28006
815.115	28246
815.256	28059
815.397	28074
815.539	28082
815.68	28013
815.821	27930
815.962	28063
816.103	28059
816.244	27865
816.385	27770
816.526	27850
816.666	27625
816.807	27473
816.948	27656
817.089	27583
817.23	27507
817.371	27591
817.512	27542
817.653	27454
817.793	27504
817.934	27545
818.075	27610
818.216	27534
818.356	27504
818.497	27458
818.638	27256
818.778	27203
818.919	27424
819.06	27351
819.2	27561
819.341	27538
819.481	27481
819.622	27713
819.762	27785
819.903	27724
820.043	27698
820.184	27625
820.324	27549
820.465	27618
820.605	27690
820.746	27667
820.886	27511
821.026	27557
821.167	27606
821.307	27709
821.447	27542
821.588	27370
821.728	27264
821.868	27127
822.008	26960
822.149	26979
822.289	26990
822.429	26769
822.569	26590
822.709	26705
822.849	26446
822.99	26476
823.13	26495
823.27	26511
823.41	26423
823.55	26153
823.69	26412
823.83	26328
823.97	26267
824.11	26199
824.25	26058
824.389	26157
824.529	26115
824.669	26278
824.809	26126
824.949	26366
825.089	26202
825.228	26134
825.368	25963
825.508	25986
825.648	26103
825.787	26024
825.927	26145
826.067	25951
826.206	26001
826.346	26111
826.485	26130
826.625	26062
826.765	26172
826.904	26012
827.044	25772
827.183	25742
827.323	25807
827.462	25666
827.601	25655
827.741	25594
827.88	25696
828.02	25628
828.159	25681
828.298	25731
828.437	25765
828.577	25769
828.716	25913
828.855	25548
828.994	25529
829.134	25407
829.273	25483
829.412	25415
829.551	25384
829.69	25415
829.829	25388
829.968	25441
830.107	25434
830.246	25479
830.385	25335
830.524	25297
830.663	25289
830.802	25187
830.941	25141
831.08	25000
831.219	25232
831.357	25236
831.496	25171
831.635	25019
831.774	24947
831.913	25023
832.051	24821
832.19	24829
832.329	24795
832.467	24795
832.606	24696
832.744	24741
832.883	24745
833.022	24749
833.16	24833
833.299	24730
833.437	24760
833.576	24806
833.714	24726
833.852	24753
833.991	24745
834.129	24973
834.267	24943
834.406	24768
834.544	24768
834.682	24722
834.821	24688
834.959	25000
835.097	24738
835.235	24764
835.373	24844
835.511	24719
835.65	24532
835.788	24551
835.926	24536
836.064	24441
836.202	24475
836.34	24646
836.478	24757
836.615	24760
836.753	24585
836.891	24661
837.029	24597
837.167	24471
837.305	24498
837.443	24551
837.58	24464
837.718	24483
837.856	24528
837.993	24448
838.131	24544
838.269	24254
838.406	24277
838.544	24258
838.681	23916
838.819	24018
838.956	23999
839.094	23931
839.231	23904
839.369	24076
839.506	24334
839.643	24254
839.781	23851
839.918	23794
840.055	23859
840.193	23920
840.33	23870
840.467	23783
840.604	23847
840.742	24159
840.879	23699
841.016	23798
841.153	23726
841.29	23897
841.427	23809
841.564	23843
841.701	23775
841.838	23794
841.975	23714
842.112	23767
842.249	23634
842.385	23524
842.522	23771
842.659	23543
842.796	23657
842.933	23585
843.069	23471
843.206	23577
843.343	23680
843.479	23604
843.616	23531
843.752	23318
843.889	23258
844.025	23554
844.162	23345
844.298	23376
844.435	23356
844.571	23227
844.708	23356
844.844	23531
844.98	23490
845.117	23417
845.253	23391
845.389	23197
845.525	23147
845.661	23208
845.798	23109
845.934	23109
846.07	22938
846.206	23075
846.342	23189
846.478	23143
846.614	22801
846.75	22717
846.886	22752
847.022	22828
847.158	22733
847.294	22881
847.429	22942
847.565	22828
847.701	23014
847.837	22584
847.972	22424
848.108	22721
848.244	22580
848.379	22379
848.515	22371
848.65	22253
848.786	22405
848.921	22409
849.057	22413
849.192	22451
849.328	22428
849.463	22500
849.598	22219
849.734	22325
849.869	22314
850.004	22124
850.14	22169
850.275	22055
850.41	21998
850.545	22154
850.68	22097
850.815	22234
850.95	22177
851.085	22386
851.22	22230
851.355	22109
851.49	22006
851.625	22120
851.76	22196
851.895	22032
852.03	22128
852.165	22162
852.299	22147
852.434	22200
852.569	22257
852.703	22188
852.838	22219
852.973	22367
853.107	22196
853.242	22154
853.376	21926
853.511	21926
853.645	22059
853.78	22036
853.914	22048
854.048	22059
854.183	21873
854.317	22013
854.451	22139
854.585	21983
854.72	22025
854.854	22025
854.988	21903
855.122	21880
855.256	21747
855.39	21930
855.524	22025
855.658	22090
855.792	22082
855.926	21884
856.06	22013
856.194	22070
856.327	22036
856.461	21918
856.595	21876
856.729	21918
856.862	22120
856.996	22128
857.13	21956
857.263	22143
857.397	21911
857.53	21949
857.664	22025
857.797	21975
857.931	22124
858.064	22029
858.197	22139
858.331	21911
858.464	21937
858.597	21873
858.731	21907
858.864	21857
858.997	21953
859.13	22021
859.263	21903
859.396	22048
859.529	21918
859.662	21903
859.795	21918
859.928	21972
860.061	22135
860.194	22097
860.327	21956
860.46	22013
860.592	22120
860.725	22082
860.858	22162
860.99	22063
861.123	21907
861.256	21945
861.388	22021
861.521	22786
861.653	21987
861.786	21880
861.918	21823
862.05	21895
862.183	21918
862.315	22097
862.447	22029
862.58	21907
862.712	21774
862.844	21694
862.976	21759
863.108	21808
863.24	21991
863.372	21652
863.504	21595
863.636	21606
863.768	21736
863.9	21759
864.032	21660
864.164	21667
864.296	21762
864.428	21751
864.559	21705
864.691	21629
864.823	21736
864.954	21679
865.086	21644
865.217	21603
865.349	21523
865.48	21599
865.612	21447
865.743	21671
865.875	21485
866.006	21545
866.137	21591
866.269	21637
866.4	21591
866.531	21420
866.662	21405
866.793	21408
866.924	21526
867.055	21587
867.186	21500
867.317	21473
867.448	21447
867.579	21549
867.71	21424
867.841	21408
867.972	21488
868.103	21507
868.233	21477
868.364	21496
868.495	21625
868.625	21774
868.756	21785
868.886	21595
869.017	21743
869.147	21895
869.278	21816
869.408	21759
869.539	21690
869.669	21724
869.799	21766
869.929	21899
870.06	21797
870.19	22067
870.32	22078
870.45	22006
870.58	22067
870.71	22226
870.84	22291
870.97	22185
871.1	22067
871.23	22325
871.36	22386
871.489	22299
871.619	22303
871.749	22386
871.879	22303
872.008	22379
872.138	22306
872.267	22371
872.397	22166
872.526	22173
872.656	22265
872.785	22242
872.915	22325
873.044	22325
873.173	22367
873.303	22367
873.432	22382
873.561	22440
873.69	22223
873.819	22363
873.948	22314
874.077	22280
874.206	22284
874.335	22344
874.464	22459
874.593	22546
874.722	22363
874.851	22618
874.979	22656
875.108	22645
875.237	22443
875.365	22417
875.494	22485
875.623	22596
875.751	22573
875.88	22554
876.008	22721
876.136	22721
876.265	22961
876.393	23025
876.521	23014
876.65	22968
876.778	23018
876.906	22820
877.034	22801
877.162	22957
877.29	22752
877.418	22919
877.546	22965
877.674	22915
877.802	22885
877.93	22820
878.058	22828
878.185	22816
878.313	22835
878.441	22740
878.568	22778
878.696	22797
878.824	22942
878.951	22911
879.079	23189
879.206	23151
879.333	23003
879.461	22984
879.588	23056
879.715	23113
879.842	23242
879.97	22873
880.097	22641
880.224	22733
880.351	22782
880.478	22786
880.605	22763
880.732	22786
880.859	22831
880.986	22603
881.112	22691
881.239	22481
881.366	22394
881.493	22325
881.619	22322
881.746	22390
881.872	22295
881.999	22325
882.125	22166
882.252	22352
882.378	22234
882.505	22352
882.631	22124
882.757	22109
882.883	22067
883.01	22070
883.136	22006
883.262	21892
883.388	21949
883.514	21876
883.64	22010
883.766	21876
883.892	21572
884.018	21804
884.143	21937
884.269	22017
884.395	21663
884.52	21656
884.646	21477
884.772	21561
884.897	21435
885.023	21564
885.148	21728
885.274	21694
885.399	21652
885.524	21660
885.65	21557
885.775	21610
885.9	21557
886.025	21701
886.15	21656
886.275	21580
886.4	21534
886.525	21450
886.65	21435
886.775	21564
886.9	21743
887.025	21797
887.149	21633
887.274	21447
887.399	21336
887.523	21344
887.648	21370
887.773	21355
887.897	21466
888.021	21500
888.146	21287
888.27	21443
888.395	21389
888.519	21336
888.643	21367
888.767	21412
888.891	21302
889.015	21291
889.139	21275
889.263	21070
889.387	21310
889.511	21416
889.635	21222
889.759	21142
889.883	21272
890.006	21142
890.13	21264
890.254	20998
890.377	21047
890.501	20914
890.624	20811
890.748	20876
890.871	20777
890.995	20777
891.118	20678
891.241	20705
891.364	20788
891.488	20967
891.611	20762
891.734	20826
891.857	20758
891.98	20746
892.103	20750
892.226	20792
892.349	20606
892.471	20518
892.594	20609
892.717	20625
892.839	20689
892.962	20602
893.085	20651
893.207	20552
893.33	20556
893.452	20530
893.575	20632
893.697	20594
893.819	20804
893.941	20792
894.064	20746
894.186	20552
894.308	20499
894.43	20663
894.552	20689
894.674	20644
894.796	20431
894.918	20598
895.04	20526
895.161	20556
895.283	20594
895.405	20495
895.526	20727
895.648	20461
895.769	20541
895.891	20514
896.012	20568
896.134	20720
896.255	20629
896.376	20495
896.498	20587
896.619	20769
896.74	20659
896.861	20613
896.982	20819
897.103	20975
897.224	20948
897.345	20906
897.466	20716
897.587	20819
897.708	20952
897.828	20861
897.949	20716
898.07	20629
898.19	20724
898.311	20906
898.431	20796
898.552	20754
898.672	20823
898.792	20823
898.913	20800
899.033	20697
899.153	20765
899.273	20400
899.393	20598
899.513	20651
899.633	20609
899.753	20587
899.873	20545
899.993	20670
900.113	20564
900.232	20518
900.352	20393
900.472	20503
900.591	20385
900.711	20320
900.83	20313
900.95	20454
901.069	20434
901.189	20164
901.308	19974
901.427	19826
901.546	19841
901.665	19868
901.784	19917
901.904	19723
902.023	19658
902.141	19521
902.26	19403
902.379	19483
902.498	19384
902.617	19343
902.735	19491
902.854	19430
902.973	19312
903.091	19137
903.21	19088
903.328	19008
903.446	18973
903.565	18981
903.683	18810
903.801	18806
903.919	18779
904.038	18806
904.156	18757
904.274	18719
904.392	18642
904.51	18597
904.627	18574
904.745	18639
904.863	18688
904.981	18452
905.098	18311
905.216	18277
905.334	18365
905.451	18296
905.569	18281
905.686	18327
905.803	18209
905.921	18186
906.038	18220
906.155	18125
906.272	18060
906.389	17961
906.506	17824
906.623	17874
906.74	17866
906.857	17748
906.974	17745
907.091	17813
907.208	17916
907.324	17874
907.441	17783
907.557	17604
907.674	17543
907.79	17600
907.907	17471
908.023	17672
908.139	17627
908.256	17573
908.372	17425
908.488	17440
908.604	17353
908.72	17326
908.836	17322
908.952	17204
909.068	17246
909.184	17349
909.3	17307
909.415	17303
909.531	17250
909.647	17060
909.762	16999
909.878	16923
909.993	17033
910.108	16927
910.224	16858
910.339	16801
910.454	16889
910.57	16828
910.685	16679
910.8	17033
910.915	17029
911.03	16660
911.145	16538
911.259	16504
911.374	16596
911.489	16485
911.604	16481
911.718	16310
911.833	16306
911.947	16265
912.062	16162
912.176	16265
912.291	16284
912.405	16272
912.519	16478
912.633	16421
912.748	16352
912.862	16253
912.976	16055
913.09	16029
913.204	16109
913.318	16147
913.431	16169
913.545	16272
913.659	16162
913.772	16063
913.886	15949
914	15895
914.113	15953
914.226	16093
914.34	15899
914.453	15720
914.566	15835
914.68	15873
914.793	15709
914.906	15622
915.019	15435
915.132	15458
915.245	15447
915.358	15462
915.47	15485
915.583	15469
915.696	15526
915.809	15572
915.921	15618
916.034	15511
916.146	15450
916.259	15416
916.371	15523
916.483	15431
916.595	15294
916.708	15287
916.82	15222
916.932	15211
917.044	15268
917.156	15195
917.268	15100
917.38	15039
917.491	15108
917.603	15123
917.715	15233
917.826	15264
917.938	15032
918.049	15017
918.161	15058
918.272	15161
918.384	15146
918.495	15108
918.606	14925
918.717	14811
918.828	14895
918.939	14876
919.05	14765
919.161	14902
919.272	14590
919.383	14716
919.494	14918
919.604	15081
919.715	14853
919.826	14686
919.936	14716
920.047	14868
920.157	14880
920.267	14941
920.378	14857
920.488	14861
920.598	14994
920.708	15119
920.818	14998
920.928	14864
921.038	15119
921.148	15097
921.258	14811
921.368	14716
921.477	14545
921.587	14625
921.697	14408
921.806	14499
921.916	14495
922.025	14229
922.134	14191
922.244	14214
922.353	14305
922.462	14115
922.571	13906
922.68	13894
922.789	13833
922.898	13849
923.007	13803
923.116	13925
923.224	13887
923.333	13799
923.442	13704
923.55	13685
923.659	13685
923.767	13818
923.876	13590
923.984	13696
924.092	13582
924.201	13632
924.309	13655
924.417	13575
924.525	13559
924.633	13578
924.741	14248
924.849	13247
924.956	13384
925.064	13236
925.172	13156
925.279	13213
925.387	13350
925.494	13251
925.602	13289
925.709	13285
925.816	13145
925.924	13133
926.031	13217
926.138	13209
926.245	13232
926.352	13103
926.459	13266
926.566	13240
926.673	13038
926.779	12985
926.886	12947
926.993	12776
927.099	12859
927.206	12753
927.312	12650
927.419	12772
927.525	12795
927.631	12867
927.737	12673
927.843	12589
927.95	12547
928.056	12551
928.162	12715
928.267	12570
928.373	13190
928.479	12738
928.585	12456
928.69	12540
928.796	12612
928.901	12494
929.007	12323
929.112	12475
929.218	12399
929.323	12319
929.428	12311
929.533	12513
929.638	12182
929.743	12254
929.848	12369
929.953	12308
930.058	12171
930.163	11973
930.267	11950
930.372	12163
930.477	11931
930.581	12224
930.685	11977
930.79	11794
930.894	11920
930.998	11897
931.103	12083
931.207	11688
931.311	11589
931.415	11433
931.519	11235
931.623	11235
