Data from test_V78500241_3612.txt Node
Date: Fri Mar 25 15:35:00 CST 2022
User: usil
Spectrometer: V785-0024
Trigger mode: 0
Integration Time (sec): 4.000000E-1
Scans to average: 1
Nonlinearity correction enabled: false
Boxcar width: 0
Storing dark spectrum: false
XAxis mode: Wavelengths
Number of Pixels in Spectrum: 1024
>>>>>Begin Spectral Data<<<<<
801.071	27363
801.214	27188
801.356	27039
801.499	27009
801.641	26971
801.783	26857
801.926	26876
802.068	26933
802.211	26785
802.353	26758
802.496	26587
802.638	26480
802.78	26480
802.923	26423
803.065	26457
803.208	26507
803.35	26598
803.492	26663
803.635	26727
803.777	26552
803.919	26606
804.061	27058
804.204	26807
804.346	26613
804.488	26579
804.63	26663
804.773	26587
804.915	26781
805.057	26777
805.199	26708
805.341	26750
805.483	26705
805.626	26655
805.768	26754
805.91	26781
806.052	26811
806.194	26769
806.336	27013
806.478	26769
806.62	26804
806.762	26952
806.904	26986
807.046	27230
807.188	27192
807.33	27116
807.472	27127
807.614	27195
807.756	27154
807.898	26887
808.04	26960
808.182	26868
808.324	26982
808.465	27085
808.607	27298
808.749	27496
808.891	27545
809.033	27663
809.174	27458
809.316	27340
809.458	27306
809.6	27363
809.741	27504
809.883	27572
810.025	27656
810.166	27641
810.308	27720
810.45	27660
810.591	27564
810.733	27450
810.875	27447
811.016	27321
811.158	27203
811.299	27511
811.441	27462
811.582	27583
811.724	27488
811.865	27416
812.007	27481
812.148	27279
812.29	27340
812.431	27564
812.573	27934
812.714	27819
812.855	27964
812.997	27880
813.138	28147
813.279	28006
813.421	28017
813.562	27797
813.703	27739
813.845	27526
813.986	27367
814.127	27233
814.268	27051
814.41	27131
814.551	27173
814.692	27005
814.833	26944
814.974	27039
815.115	27043
815.256	26785
815.397	26883
815.539	26971
815.68	26857
815.821	26697
815.962	26849
816.103	26887
816.244	26724
816.385	26678
816.526	26640
816.666	26347
816.807	26119
816.948	26313
817.089	26393
817.23	26446
817.371	26282
817.512	26294
817.653	26218
817.793	26248
817.934	26355
818.075	26332
818.216	26248
818.356	26256
818.497	26195
818.638	26016
818.778	26012
818.919	26073
819.06	26214
819.2	26244
819.341	26248
819.481	26218
819.622	26507
819.762	26602
819.903	26522
820.043	26381
820.184	26575
820.324	26492
820.465	26571
820.605	26492
820.746	26377
820.886	26168
821.026	26457
821.167	26370
821.307	26393
821.447	26355
821.588	26244
821.728	26157
821.868	26039
822.008	25890
822.149	25765
822.289	25788
822.429	25472
822.569	25453
822.709	25491
822.849	25373
822.99	25358
823.13	25362
823.27	25190
823.41	25209
823.55	25107
823.69	25080
823.83	25122
823.97	25008
824.11	24897
824.25	24977
824.389	24875
824.529	24951
824.669	24939
824.809	25095
824.949	25072
825.089	25019
825.228	24947
825.368	24798
825.508	24806
825.648	24920
825.787	24825
825.927	24859
826.067	24768
826.206	24943
826.346	24715
826.485	24871
826.625	25084
826.765	24871
826.904	24848
827.044	24582
827.183	24494
827.323	24589
827.462	24578
827.601	24544
827.741	24536
827.88	24540
828.02	24505
828.159	24627
828.298	24551
828.437	24719
828.577	24536
828.716	24616
828.855	24555
828.994	24235
829.134	24296
829.273	24319
829.412	24228
829.551	24239
829.69	24190
829.829	24376
829.968	24353
830.107	24353
830.246	24369
830.385	24197
830.524	24152
830.663	24121
830.802	23912
830.941	23885
831.08	23893
831.219	24034
831.357	23939
831.496	24041
831.635	23802
831.774	23874
831.913	23756
832.051	23600
832.19	23672
832.329	23745
832.467	23592
832.606	23543
832.744	23455
832.883	23554
833.022	23493
833.16	23554
833.299	23615
833.437	23668
833.576	23707
833.714	23668
833.852	23722
833.991	23608
834.129	23623
834.267	23695
834.406	23794
834.544	23714
834.682	23676
834.821	23699
834.959	23878
835.097	23558
835.235	23653
835.373	23680
835.511	23638
835.65	23535
835.788	23539
835.926	23391
836.064	23330
836.202	23299
836.34	23547
836.478	23665
836.615	23490
836.753	23444
836.891	23577
837.029	23429
837.167	23482
837.305	23353
837.443	23452
837.58	23421
837.718	23345
837.856	23391
837.993	23337
838.131	23242
838.269	23200
838.406	23376
838.544	23159
838.681	22938
838.819	23010
838.956	22850
839.094	22812
839.231	22858
839.369	23003
839.506	23124
839.643	23121
839.781	22752
839.918	22653
840.055	22850
840.193	22801
840.33	22805
840.467	22843
840.604	22835
840.742	23075
840.879	22733
841.016	22778
841.153	22596
841.29	22877
841.427	22687
841.564	22767
841.701	22797
841.838	22691
841.975	22706
842.112	22618
842.249	22694
842.385	22592
842.522	22736
842.659	22584
842.796	22497
842.933	22481
843.069	22428
843.206	22356
843.343	22546
843.479	22615
843.616	22443
843.752	22154
843.889	22303
844.025	22394
844.162	22261
844.298	22344
844.435	22295
844.571	22105
844.708	22314
844.844	22413
844.98	22382
845.117	22356
845.253	22211
845.389	22188
845.525	22128
845.661	22040
845.798	21930
845.934	22021
846.07	22002
846.206	22059
846.342	22131
846.478	21998
846.614	21808
846.75	21690
846.886	21797
847.022	21736
847.158	21755
847.294	21713
847.429	21720
847.565	21835
847.701	21968
847.837	21412
847.972	21526
848.108	21526
848.244	21431
848.379	21363
848.515	21424
848.65	21279
848.786	21378
848.921	21511
849.057	21420
849.192	21382
849.328	21431
849.463	21321
849.598	21302
849.734	21336
849.869	21264
850.004	21184
850.14	21077
850.275	21093
850.41	21096
850.545	21070
850.68	21020
850.815	21176
850.95	21131
851.085	21329
851.22	21218
851.355	20998
851.49	21146
851.625	21116
851.76	21077
851.895	21043
852.03	21017
852.165	21058
852.299	21157
852.434	21150
852.569	21199
852.703	21154
852.838	21138
852.973	21264
853.107	21325
853.242	21055
853.376	20796
853.511	20941
853.645	20960
853.78	20948
853.914	20967
854.048	20933
854.183	20910
854.317	21089
854.451	21058
854.585	20967
854.72	20921
854.854	20975
854.988	20887
855.122	20979
855.256	20937
855.39	20960
855.524	20986
855.658	20967
855.792	20849
855.926	20998
856.06	21017
856.194	21001
856.327	20899
856.461	20762
856.595	20960
856.729	20868
856.862	21032
856.996	21024
857.13	20906
857.263	20975
857.397	21062
857.53	20941
857.664	20876
857.797	20979
857.931	20982
858.064	20941
858.197	21024
858.331	20963
858.464	20880
858.597	20800
858.731	20826
858.864	20933
858.997	20800
859.13	20956
859.263	20975
859.396	21036
859.529	20925
859.662	20857
859.795	20998
859.928	21074
860.061	21089
860.194	21146
860.327	20948
860.46	21001
860.592	21028
860.725	21104
860.858	21150
860.99	20845
861.123	20918
861.256	20948
861.388	20967
861.521	21656
861.653	20769
861.786	20750
861.918	20815
862.05	20838
862.183	20815
862.315	20933
862.447	20804
862.58	20849
862.712	20720
862.844	20602
862.976	20716
863.108	20727
863.24	21096
863.372	20625
863.504	20541
863.636	20560
863.768	20777
863.9	20632
864.032	20602
864.164	20640
864.296	20560
864.428	20750
864.559	20716
864.691	20754
864.823	20621
864.954	20587
865.086	20625
865.217	20621
865.349	20537
865.48	20552
865.612	20476
865.743	20655
865.875	20686
866.006	20594
866.137	20533
866.269	20598
866.4	20606
866.531	20461
866.662	20488
866.793	20473
866.924	20484
867.055	20473
867.186	20560
867.317	20507
867.448	20313
867.579	20507
867.71	20454
867.841	20339
867.972	20541
868.103	20503
868.233	20583
868.364	20511
868.495	20560
868.625	20667
868.756	20781
868.886	20735
869.017	20762
869.147	20914
869.278	20864
869.408	20781
869.539	20689
869.669	20804
869.799	20785
869.929	20918
870.06	20941
870.19	21089
870.32	21112
870.45	20982
870.58	21127
870.71	21374
870.84	21256
870.97	21131
871.1	21169
871.23	21287
871.36	21439
871.489	21348
871.619	21154
871.749	21340
871.879	21351
872.008	21500
872.138	21401
872.267	21386
872.397	21222
872.526	21116
872.656	21207
872.785	21161
872.915	21298
873.044	21386
873.173	21359
873.303	21507
873.432	21458
873.561	21374
873.69	21340
873.819	21355
873.948	21405
874.077	21237
874.206	21374
874.335	21454
874.464	21534
874.593	21591
874.722	21443
874.851	21595
874.979	21595
875.108	21641
875.237	21545
875.365	21435
875.494	21534
875.623	21755
875.751	21447
875.88	21595
876.008	21701
876.136	21713
876.265	21968
876.393	22109
876.521	22048
876.65	22093
876.778	21945
876.906	21979
877.034	21972
877.162	21937
877.29	21854
877.418	21987
877.546	21968
877.674	21895
877.802	21964
877.93	21915
878.058	21941
878.185	21876
878.313	21888
878.441	21827
878.568	21895
878.696	21907
878.824	21876
878.951	22006
879.079	22101
879.206	22204
879.333	22287
879.461	21922
879.588	22055
879.715	21987
879.842	22196
879.97	21941
880.097	21709
880.224	21717
880.351	21778
880.478	21770
880.605	21698
880.732	21766
880.859	21991
880.986	21774
881.112	21876
881.239	21587
881.366	21507
881.493	21542
881.619	21431
881.746	21344
881.872	21310
881.999	21378
882.125	21291
882.252	21389
882.378	21431
882.505	21420
882.631	21100
882.757	21066
882.883	21138
883.01	21089
883.136	21017
883.262	20872
883.388	20956
883.514	21013
883.64	21119
883.766	21032
883.892	20921
884.018	20902
884.143	21005
884.269	20982
884.395	20731
884.52	20689
884.646	20743
884.772	20617
884.897	20655
885.023	20750
885.148	20891
885.274	20895
885.399	20815
885.524	20587
885.65	20644
885.775	20629
885.9	20678
886.025	20754
886.15	20807
886.275	20674
886.4	20590
886.525	20655
886.65	20594
886.775	20503
886.9	20819
887.025	20902
887.149	20655
887.274	20431
887.399	20564
887.523	20442
887.648	20427
887.773	20343
887.897	20545
888.021	20434
888.146	20514
888.27	20522
888.395	20556
888.519	20484
888.643	20492
888.767	20571
888.891	20381
889.015	20343
889.139	20351
889.263	20218
889.387	20294
889.511	20552
889.635	20351
889.759	20336
889.883	20195
890.006	20278
890.13	20381
890.254	20142
890.377	20256
890.501	20073
890.624	20027
890.748	20092
890.871	19913
890.995	19864
891.118	19849
891.241	19936
891.364	19928
891.488	19856
891.611	19845
891.734	19803
891.857	19963
891.98	19769
892.103	19887
892.226	19909
892.349	19814
892.471	19693
892.594	19753
892.717	19761
892.839	19674
892.962	19731
893.085	19830
893.207	19746
893.33	19704
893.452	19674
893.575	19723
893.697	19700
893.819	19978
893.941	20008
894.064	19970
894.186	19788
894.308	19731
894.43	19913
894.552	19944
894.674	19803
894.796	19814
894.918	19708
895.04	19704
895.161	19841
895.283	19662
895.405	19689
895.526	19788
895.648	19693
895.769	19746
895.891	19791
896.012	19841
896.134	19849
896.255	19791
896.376	19799
896.498	19833
896.619	19723
896.74	19784
896.861	19833
896.982	20142
897.103	20168
897.224	20134
897.345	19970
897.466	19906
897.587	19947
897.708	20103
897.828	20039
897.949	19940
898.07	19845
898.19	19963
898.311	19974
898.431	20001
898.552	19955
898.672	20092
898.792	20058
898.913	20012
899.033	19883
899.153	19765
899.273	19757
899.393	19753
899.513	19852
899.633	19734
899.753	19769
899.873	19742
899.993	19727
900.113	19548
900.232	19681
900.352	19624
900.472	19605
900.591	19525
900.711	19468
900.83	19422
900.95	19540
901.069	19632
901.189	19445
901.308	19137
901.427	19099
901.546	19046
901.665	19126
901.784	19103
901.904	18890
902.023	18852
902.141	18673
902.26	18585
902.379	18703
902.498	18582
902.617	18551
902.735	18639
902.854	18601
902.973	18532
903.091	18243
903.21	18281
903.328	18357
903.446	18102
903.565	18159
903.683	18167
903.801	18079
903.919	18133
904.038	17996
904.156	17908
904.274	17889
904.392	17828
904.51	17813
904.627	17965
904.745	17889
904.863	17931
904.981	17649
905.098	17532
905.216	17649
905.334	17543
905.451	17516
905.569	17478
905.686	17562
905.803	17562
905.921	17391
906.038	17467
906.155	17318
906.272	17162
906.389	17181
906.506	17037
906.623	17071
906.74	17151
906.857	17022
906.974	16999
907.091	17189
907.208	17136
907.324	17143
907.441	16987
907.557	16816
907.674	16873
907.79	16809
907.907	16942
908.023	16797
908.139	16816
908.256	16763
908.372	16831
908.488	16630
908.604	16592
908.72	16550
908.836	16531
908.952	16455
909.068	16561
909.184	16679
909.3	16577
909.415	16565
909.531	16432
909.647	16363
909.762	16371
909.878	16150
909.993	16261
910.108	16257
910.224	16177
910.339	16211
910.454	16078
910.57	16105
910.685	15960
910.8	16230
910.915	16204
911.03	16029
911.145	15888
911.259	15865
911.374	15930
911.489	15736
911.604	15732
911.718	15671
911.833	15553
911.947	15576
912.062	15412
912.176	15587
912.291	15660
912.405	15656
912.519	15831
912.633	15812
912.748	15690
912.862	15454
912.976	15469
913.09	15317
913.204	15397
913.318	15473
913.431	15454
913.545	15576
913.659	15519
913.772	15412
913.886	15218
914	15154
914.113	15355
914.226	15287
914.34	15351
914.453	15207
914.566	15260
914.68	15108
914.793	14994
914.906	14902
915.019	14754
915.132	14769
915.245	14849
915.358	14815
915.47	14826
915.583	14857
915.696	14849
915.809	14864
915.921	14937
916.034	14830
916.146	14712
916.259	14708
916.371	14716
916.483	14785
916.595	14655
916.708	14697
916.82	14640
916.932	14655
917.044	14617
917.156	14518
917.268	14507
917.38	14533
917.491	14423
917.603	14431
917.715	14648
917.826	14621
917.938	14465
918.049	14389
918.161	14431
918.272	14564
918.384	14511
918.495	14450
918.606	14305
918.717	14168
918.828	14305
918.939	14248
919.05	14145
919.161	14305
919.272	14119
919.383	14084
919.494	14298
919.604	14419
919.715	14271
919.826	14176
919.936	14244
920.047	14298
920.157	14130
920.267	14313
920.378	14168
920.488	14130
920.598	14370
920.708	14499
920.818	14309
920.928	14336
921.038	14480
921.148	14457
921.258	14115
921.368	14031
921.477	14001
921.587	13902
921.697	13917
921.806	13955
921.916	13887
922.025	13738
922.134	13731
922.244	13582
922.353	13658
922.462	13476
922.571	13434
922.68	13259
922.789	13225
922.898	13263
923.007	13240
923.116	13289
923.224	13225
923.333	13206
923.442	13145
923.55	13072
923.659	13168
923.767	13168
923.876	13095
923.984	13129
924.092	12962
924.201	12996
924.309	13057
924.417	13008
924.525	12875
924.633	12867
924.741	13830
924.849	12779
924.956	12916
925.064	12726
925.172	12722
925.279	12711
925.387	12745
925.494	12692
925.602	12764
925.709	12776
925.816	12544
925.924	12654
926.031	12631
926.138	12654
926.245	12722
926.352	12441
926.459	12779
926.566	12616
926.673	12582
926.779	12486
926.886	12418
926.993	12319
927.099	12296
927.206	12281
927.312	12152
927.419	12281
927.525	12190
927.631	12323
927.737	12155
927.843	12110
927.95	12038
928.056	12114
928.162	12102
928.267	12083
928.373	12566
928.479	12155
928.585	11999
928.69	12072
928.796	12045
928.901	11999
929.007	11821
929.112	11961
929.218	11916
929.323	11882
929.428	11809
929.533	11908
929.638	11805
929.743	11760
929.848	11847
929.953	11767
930.058	11729
930.163	11619
930.267	11615
930.372	11672
930.477	11535
930.581	11745
930.685	11520
930.79	11410
930.894	11440
930.998	11482
931.103	11589
931.207	11185
931.311	11136
931.415	10995
931.519	10843
931.623	10805
