Data from test_V78500241_2229.txt Node
Date: Fri Mar 25 15:25:22 CST 2022
User: usil
Spectrometer: V785-0024
Trigger mode: 0
Integration Time (sec): 4.000000E-1
Scans to average: 1
Nonlinearity correction enabled: false
Boxcar width: 0
Storing dark spectrum: false
XAxis mode: Wavelengths
Number of Pixels in Spectrum: 1024
>>>>>Begin Spectral Data<<<<<
801.071	27686
801.214	27656
801.356	27519
801.499	27245
801.641	27173
801.783	27260
801.926	27317
802.068	27195
802.211	27131
802.353	27077
802.496	27001
802.638	26971
802.78	26807
802.923	26994
803.065	26872
803.208	26830
803.35	26960
803.492	26937
803.635	27077
803.777	26975
803.919	26971
804.061	27306
804.204	27161
804.346	26982
804.488	26975
804.63	26899
804.773	27123
804.915	27055
805.057	27062
805.199	27070
805.341	27195
805.483	27264
805.626	27089
805.768	27123
805.91	27119
806.052	27047
806.194	27074
806.336	27401
806.478	27268
806.62	27100
806.762	27348
806.904	27477
807.046	27667
807.188	27454
807.33	27606
807.472	27637
807.614	27545
807.756	27603
807.898	27382
808.04	27386
808.182	27473
808.324	27450
808.465	27488
808.607	27530
808.749	27838
808.891	27816
809.033	27895
809.174	27873
809.316	27770
809.458	27842
809.6	27895
809.741	27911
809.883	27903
810.025	28013
810.166	27998
810.308	28143
810.45	27979
810.591	27892
810.733	27797
810.875	27747
811.016	27545
811.158	27732
811.299	27903
811.441	28010
811.582	27846
811.724	27808
811.865	27701
812.007	27808
812.148	27838
812.29	27816
812.431	27865
812.573	28067
812.714	28147
812.855	28401
812.997	28481
813.138	28478
813.279	28424
813.421	28226
813.562	28242
813.703	28196
813.845	27838
813.986	27747
814.127	27595
814.268	27564
814.41	27515
814.551	27523
814.692	27496
814.833	27329
814.974	27389
815.115	27450
815.256	27264
815.397	27431
815.539	27256
815.68	27256
815.821	27233
815.962	27268
816.103	27256
816.244	27062
816.385	27028
816.526	26948
816.666	26891
816.807	26552
816.948	26800
817.089	26857
817.23	26754
817.371	26678
817.512	26842
817.653	26777
817.793	26556
817.934	26625
818.075	26849
818.216	26640
818.356	26655
818.497	26530
818.638	26488
818.778	26530
818.919	26499
819.06	26648
819.2	26522
819.341	26720
819.481	26762
819.622	27028
819.762	27028
819.903	27013
820.043	26902
820.184	26819
820.324	26842
820.465	26918
820.605	26861
820.746	26788
820.886	26705
821.026	26754
821.167	26720
821.307	26861
821.447	26705
821.588	26648
821.728	26537
821.868	26339
822.008	26259
822.149	26164
822.289	26195
822.429	25940
822.569	25902
822.709	25871
822.849	25761
822.99	25769
823.13	25681
823.27	25658
823.41	25563
823.55	25411
823.69	25476
823.83	25559
823.97	25476
824.11	25343
824.25	25194
824.389	25335
824.529	25495
824.669	25381
824.809	25468
824.949	25434
825.089	25415
825.228	25377
825.368	25255
825.508	25346
825.648	25198
825.787	25255
825.927	25255
826.067	25076
826.206	25217
826.346	25278
826.485	25240
826.625	25190
826.765	25274
826.904	25259
827.044	24913
827.183	25000
827.323	24958
827.462	25019
827.601	24962
827.741	24882
827.88	24951
828.02	24829
828.159	24878
828.298	24943
828.437	24859
828.577	24837
828.716	24966
828.855	24776
828.994	24627
829.134	24525
829.273	24806
829.412	24631
829.551	24437
829.69	24726
829.829	24627
829.968	24726
830.107	24696
830.246	24456
830.385	24612
830.524	24384
830.663	24509
830.802	24357
830.941	24148
831.08	24251
831.219	24296
831.357	24372
831.496	24464
831.635	24235
831.774	24110
831.913	24026
832.051	23939
832.19	24091
832.329	24034
832.467	23923
832.606	23859
832.744	23794
832.883	23878
833.022	23813
833.16	23984
833.299	24003
833.437	23805
833.576	23771
833.714	23885
833.852	23980
833.991	23988
834.129	23977
834.267	24087
834.406	23889
834.544	23965
834.682	24049
834.821	23984
834.959	24129
835.097	23874
835.235	23908
835.373	23855
835.511	23809
835.65	23847
835.788	23897
835.926	23794
836.064	23657
836.202	23585
836.34	23726
836.478	23843
836.615	23672
836.753	23699
836.891	23893
837.029	23813
837.167	23783
837.305	23497
837.443	23741
837.58	23520
837.718	23767
837.856	23531
837.993	23581
838.131	23471
838.269	23417
838.406	23497
838.544	23471
838.681	23273
838.819	23117
838.956	23006
839.094	23044
839.231	23166
839.369	23197
839.506	23444
839.643	23387
839.781	23189
839.918	22980
840.055	23067
840.193	23117
840.33	22972
840.467	22949
840.604	22995
840.742	23121
840.879	22755
841.016	22858
841.153	22942
841.29	23136
841.427	23052
841.564	22961
841.701	23048
841.838	22896
841.975	22900
842.112	22908
842.249	22782
842.385	22702
842.522	22900
842.659	22866
842.796	22774
842.933	22771
843.069	22721
843.206	22618
843.343	22831
843.479	22767
843.616	22668
843.752	22440
843.889	22527
844.025	22561
844.162	22561
844.298	22653
844.435	22603
844.571	22478
844.708	22569
844.844	22713
844.98	22694
845.117	22584
845.253	22390
845.389	22379
845.525	22329
845.661	22318
845.798	22272
845.934	22291
846.07	22226
846.206	22459
846.342	22295
846.478	22363
846.614	22036
846.75	22048
846.886	21922
847.022	22044
847.158	22086
847.294	22086
847.429	21994
847.565	21892
847.701	22131
847.837	21709
847.972	21682
848.108	21854
848.244	21698
848.379	21580
848.515	21652
848.65	21534
848.786	21603
848.921	21561
849.057	21720
849.192	21732
849.328	21492
849.463	21583
849.598	21530
849.734	21492
849.869	21439
850.004	21317
850.14	21378
850.275	21450
850.41	21348
850.545	21378
850.68	21370
850.815	21500
850.95	21275
851.085	21523
851.22	21477
851.355	21443
851.49	21313
851.625	21340
851.76	21306
851.895	21291
852.03	21188
852.165	21317
852.299	21340
852.434	21355
852.569	21302
852.703	21370
852.838	21405
852.973	21526
853.107	21458
853.242	21473
853.376	21112
853.511	21176
853.645	21093
853.78	21252
853.914	21184
854.048	21169
854.183	21161
854.317	21180
854.451	21332
854.585	21173
854.72	21184
854.854	21180
854.988	21119
855.122	21135
855.256	21013
855.39	21093
855.524	21298
855.658	21279
855.792	21192
855.926	21131
856.06	21173
856.194	21233
856.327	21096
856.461	21062
856.595	21138
856.729	21138
856.862	21310
856.996	21264
857.13	21176
857.263	21165
857.397	21351
857.53	21142
857.664	21245
857.797	21230
857.931	21275
858.064	21180
858.197	21268
858.331	21119
858.464	21024
858.597	21001
858.731	21138
858.864	21089
858.997	21051
859.13	21298
859.263	21150
859.396	21226
859.529	21028
859.662	21138
859.795	21176
859.928	21119
860.061	21431
860.194	21389
860.327	21211
860.46	21176
860.592	21298
860.725	21264
860.858	21294
860.99	21176
861.123	21150
861.256	21039
861.388	21264
861.521	21724
861.653	21036
861.786	20777
861.918	20899
862.05	21005
862.183	21096
862.315	21119
862.447	21096
862.58	21081
862.712	20857
862.844	20819
862.976	20990
863.108	20929
863.24	21192
863.372	20868
863.504	20944
863.636	20948
863.768	21020
863.9	20883
864.032	20792
864.164	20845
864.296	21028
864.428	20918
864.559	21001
864.691	21013
864.823	20967
864.954	20880
865.086	20735
865.217	20830
865.349	20629
865.48	20796
865.612	20712
865.743	21032
865.875	20876
866.006	20830
866.137	20750
866.269	20807
866.4	20724
866.531	20678
866.662	20781
866.793	20724
866.924	20804
867.055	20678
867.186	20781
867.317	20693
867.448	20613
867.579	20708
867.71	20724
867.841	20587
867.972	20724
868.103	20682
868.233	20636
868.364	20663
868.495	20872
868.625	20902
868.756	21047
868.886	20834
869.017	21032
869.147	21066
869.278	21112
869.408	20944
869.539	20891
869.669	21028
869.799	21005
869.929	21161
870.06	21112
870.19	21211
870.32	21157
870.45	21329
870.58	21408
870.71	21393
870.84	21325
870.97	21317
871.1	21336
871.23	21401
871.36	21644
871.489	21500
871.619	21515
871.749	21568
871.879	21698
872.008	21682
872.138	21317
872.267	21477
872.397	21355
872.526	21389
872.656	21549
872.785	21344
872.915	21667
873.044	21644
873.173	21462
873.303	21595
873.432	21576
873.561	21629
873.69	21686
873.819	21496
873.948	21488
874.077	21625
874.206	21511
874.335	21595
874.464	21781
874.593	21778
874.722	21698
874.851	21797
874.979	21648
875.108	21838
875.237	21751
875.365	21591
875.494	21724
875.623	21762
875.751	21736
875.88	21831
876.008	21895
876.136	21937
876.265	22207
876.393	22325
876.521	22386
876.65	22169
876.778	22246
876.906	22143
877.034	22116
877.162	22128
877.29	22013
877.418	22086
877.546	22059
877.674	22082
877.802	22219
877.93	22082
878.058	22200
878.185	21960
878.313	22082
878.441	22112
878.568	21972
878.696	22063
878.824	22166
878.951	22223
879.079	22314
879.206	22382
879.333	22478
879.461	22070
879.588	22284
879.715	22367
879.842	22337
879.97	22223
880.097	21956
880.224	21934
880.351	22013
880.478	21926
880.605	21907
880.732	21987
880.859	22219
880.986	21922
881.112	21945
881.239	21770
881.366	21701
881.493	21610
881.619	21747
881.746	21553
881.872	21568
881.999	21504
882.125	21481
882.252	21519
882.378	21477
882.505	21663
882.631	21401
882.757	21348
882.883	21397
883.01	21306
883.136	21100
883.262	21070
883.388	21089
883.514	21203
883.64	21199
883.766	21066
883.892	21138
884.018	21081
884.143	21058
884.269	21245
884.395	21020
884.52	20880
884.646	20948
884.772	20773
884.897	20674
885.023	20883
885.148	20891
885.274	20990
885.399	21116
885.524	20902
885.65	20937
885.775	20864
885.9	20750
886.025	20952
886.15	20998
886.275	20929
886.4	20796
886.525	20800
886.65	20861
886.775	20727
886.9	21081
887.025	21093
887.149	20891
887.274	20636
887.399	20678
887.523	20606
887.648	20533
887.773	20655
887.897	20823
888.021	20632
888.146	20674
888.27	20785
888.395	20731
888.519	20769
888.643	20659
888.767	20674
888.891	20442
889.015	20492
889.139	20617
889.263	20431
889.387	20590
889.511	20636
889.635	20530
889.759	20465
889.883	20450
890.006	20415
890.13	20606
890.254	20389
890.377	20408
890.501	20202
890.624	20142
890.748	20206
890.871	20187
890.995	20062
891.118	19947
891.241	20096
891.364	20035
891.488	20100
891.611	19947
891.734	20130
891.857	20054
891.98	19989
892.103	20008
892.226	20073
892.349	19970
892.471	19883
892.594	19913
892.717	19982
892.839	19898
892.962	19978
893.085	19997
893.207	19887
893.33	19795
893.452	19803
893.575	20008
893.697	19765
893.819	20103
893.941	20069
894.064	20077
894.186	19811
894.308	19868
894.43	20046
894.552	20138
894.674	20020
894.796	19776
894.918	20005
895.04	19822
895.161	19932
895.283	20043
895.405	19830
895.526	20035
895.648	19925
895.769	19967
895.891	19921
896.012	19978
896.134	20012
896.255	20039
896.376	19986
896.498	19932
896.619	19894
896.74	19837
896.861	19986
896.982	20157
897.103	20434
897.224	20233
897.345	20077
897.466	20183
897.587	20183
897.708	20225
897.828	20134
897.949	20157
898.07	19959
898.19	20054
898.311	20248
898.431	20008
898.552	20145
898.672	20180
898.792	20263
898.913	20172
899.033	20016
899.153	19986
899.273	19708
899.393	19898
899.513	19936
899.633	19788
899.753	19951
899.873	19864
899.993	19947
900.113	19963
900.232	19982
900.352	19742
900.472	19712
900.591	19658
900.711	19776
900.83	19715
900.95	19841
901.069	19814
901.189	19662
901.308	19472
901.427	19369
901.546	19388
901.665	19221
901.784	19327
901.904	19156
902.023	19076
902.141	18749
902.26	18787
902.379	18821
902.498	18821
902.617	18787
902.735	18779
902.854	18715
902.973	18787
903.091	18479
903.21	18464
903.328	18566
903.446	18365
903.565	18235
903.683	18167
903.801	18258
903.919	18315
904.038	18243
904.156	18026
904.274	18121
904.392	18068
904.51	18022
904.627	17973
904.745	18015
904.863	18106
904.981	17851
905.098	17794
905.216	17729
905.334	17668
905.451	17832
905.569	17592
905.686	17798
905.803	17707
905.921	17539
906.038	17611
906.155	17490
906.272	17345
906.389	17493
906.506	17280
906.623	17326
906.74	17296
906.857	17170
906.974	17159
907.091	17280
907.208	17299
907.324	17318
907.441	17273
907.557	17003
907.674	16915
907.79	16927
907.907	16930
908.023	17006
908.139	16938
908.256	16919
908.372	16820
908.488	16862
908.604	16767
908.72	16740
908.836	16713
908.952	16710
909.068	16611
909.184	16790
909.3	16752
909.415	16725
909.531	16713
909.647	16348
909.762	16409
909.878	16390
909.993	16329
910.108	16363
910.224	16295
910.339	16447
910.454	16223
910.57	16325
910.685	16063
910.8	16363
910.915	16360
911.03	16173
911.145	16090
911.259	16013
911.374	16063
911.489	15937
911.604	15892
911.718	15819
911.833	15698
911.947	15595
912.062	15606
912.176	15568
912.291	15705
912.405	15778
912.519	15804
912.633	15922
912.748	15736
912.862	15709
912.976	15564
913.09	15439
913.204	15523
913.318	15572
913.431	15667
913.545	15625
913.659	15679
913.772	15428
913.886	15386
914	15348
914.113	15466
914.226	15439
914.34	15321
914.453	15214
914.566	15469
914.68	15173
914.793	15291
914.906	15138
915.019	15001
915.132	14880
915.245	14891
915.358	14971
915.47	14933
915.583	14941
915.696	14975
915.809	15055
915.921	15085
916.034	14883
916.146	14842
916.259	14868
916.371	14952
916.483	14941
916.595	14739
916.708	14804
916.82	14773
916.932	14781
917.044	14788
917.156	14754
917.268	14587
917.38	14746
917.491	14583
917.603	14727
917.715	14670
917.826	14682
917.938	14545
918.049	14484
918.161	14530
918.272	14705
918.384	14731
918.495	14598
918.606	14415
918.717	14381
918.828	14423
918.939	14370
919.05	14305
919.161	14381
919.272	14199
919.383	14305
919.494	14313
919.604	14632
919.715	14381
919.826	14240
919.936	14278
920.047	14434
920.157	14400
920.267	14476
920.378	14370
920.488	14362
920.598	14488
920.708	14556
920.818	14389
920.928	14545
921.038	14670
921.148	14552
921.258	14355
921.368	14229
921.477	14088
921.587	14119
921.697	14012
921.806	14088
921.916	13974
922.025	13932
922.134	13818
922.244	13715
922.353	13662
922.462	13613
922.571	13590
922.68	13457
922.789	13358
922.898	13400
923.007	13335
923.116	13331
923.224	13430
923.333	13312
923.442	13247
923.55	13179
923.659	13297
923.767	13278
923.876	13187
923.984	13244
924.092	13141
924.201	13221
924.309	13198
924.417	13190
924.525	13050
924.633	13149
924.741	13913
924.849	12947
924.956	13012
925.064	12894
925.172	12726
925.279	12791
925.387	12932
925.494	12890
925.602	13000
925.709	12886
925.816	12730
925.924	12817
926.031	12905
926.138	12859
926.245	12848
926.352	12722
926.459	12829
926.566	12817
926.673	12658
926.779	12597
926.886	12589
926.993	12498
927.099	12414
927.206	12399
927.312	12350
927.419	12429
927.525	12467
927.631	12426
927.737	12300
927.843	12342
927.95	12136
928.056	12216
928.162	12281
928.267	12273
928.373	12867
928.479	12330
928.585	12095
928.69	12163
928.796	12186
928.901	12121
929.007	11954
929.112	12125
929.218	12144
929.323	11992
929.428	11965
929.533	12125
929.638	11885
929.743	11840
929.848	12007
929.953	11920
930.058	11783
930.163	11748
930.267	11665
930.372	11798
930.477	11657
930.581	11923
930.685	11733
930.79	11524
930.894	11619
930.998	11486
931.103	11676
931.207	11299
931.311	11178
931.415	11201
931.519	10942
931.623	10942
