Data from test_V78500241_2398.txt Node
Date: Fri Mar 25 15:26:33 CST 2022
User: usil
Spectrometer: V785-0024
Trigger mode: 0
Integration Time (sec): 4.000000E-1
Scans to average: 1
Nonlinearity correction enabled: false
Boxcar width: 0
Storing dark spectrum: false
XAxis mode: Wavelengths
Number of Pixels in Spectrum: 1024
>>>>>Begin Spectral Data<<<<<
801.071	27112
801.214	27100
801.356	26883
801.499	26785
801.641	26800
801.783	26773
801.926	26727
802.068	26659
802.211	26530
802.353	26545
802.496	26347
802.638	26332
802.78	26423
802.923	26225
803.065	26164
803.208	26077
803.35	26275
803.492	26374
803.635	26606
803.777	26396
803.919	26526
804.061	26739
804.204	26571
804.346	26549
804.488	26256
804.63	26476
804.773	26275
804.915	26533
805.057	26473
805.199	26457
805.341	26457
805.483	26659
805.626	26659
805.768	26560
805.91	26461
806.052	26533
806.194	26339
806.336	26815
806.478	26480
806.62	26549
806.762	26545
806.904	26990
807.046	26944
807.188	26952
807.33	26861
807.472	27123
807.614	26895
807.756	26902
807.898	26754
808.04	26720
808.182	26651
808.324	26716
808.465	26872
808.607	27055
808.749	27131
808.891	27169
809.033	27275
809.174	27176
809.316	27005
809.458	27154
809.6	27108
809.741	27245
809.883	27256
810.025	27469
810.166	27363
810.308	27523
810.45	27268
810.591	27218
810.733	27222
810.875	27062
811.016	27039
811.158	26960
811.299	27127
811.441	27359
811.582	27207
811.724	27199
811.865	27066
812.007	27070
812.148	27093
812.29	27287
812.431	27283
812.573	27389
812.714	27485
812.855	27644
812.997	27709
813.138	27865
813.279	27625
813.421	27732
813.562	27561
813.703	27450
813.845	27355
813.986	27036
814.127	26891
814.268	26880
814.41	26807
814.551	26868
814.692	26769
814.833	26815
814.974	26727
815.115	26777
815.256	26617
815.397	26750
815.539	26670
815.68	26629
815.821	26560
815.962	26533
816.103	26716
816.244	26453
816.385	26343
816.526	26511
816.666	26050
816.807	26058
816.948	26267
817.089	26195
817.23	26096
817.371	26153
817.512	25993
817.653	26122
817.793	25989
817.934	26119
818.075	26073
818.216	26039
818.356	25894
818.497	25807
818.638	25723
818.778	25906
818.919	25788
819.06	25830
819.2	25795
819.341	26027
819.481	26039
819.622	26278
819.762	26294
819.903	26374
820.043	26233
820.184	26115
820.324	26183
820.465	26183
820.605	26142
820.746	26130
820.886	25997
821.026	26191
821.167	26111
821.307	26046
821.447	25925
821.588	25925
821.728	25776
821.868	25715
822.008	25544
822.149	25575
822.289	25578
822.429	25362
822.569	25297
822.709	25213
822.849	25069
822.99	25004
823.13	25122
823.27	25038
823.41	25015
823.55	24700
823.69	24951
823.83	24833
823.97	24719
824.11	24604
824.25	24646
824.389	24627
824.529	24753
824.669	24559
824.809	24840
824.949	24772
825.089	24730
825.228	24825
825.368	24456
825.508	24547
825.648	24639
825.787	24513
825.927	24540
826.067	24395
826.206	24544
826.346	24441
826.485	24422
826.625	24566
826.765	24540
826.904	24627
827.044	24247
827.183	24273
827.323	24224
827.462	24243
827.601	24220
827.741	24224
827.88	24220
828.02	24194
828.159	24182
828.298	24213
828.437	24220
828.577	24285
828.716	24273
828.855	24197
828.994	23897
829.134	23946
829.273	24064
829.412	23882
829.551	23923
829.69	23961
829.829	23927
829.968	24007
830.107	24068
830.246	24011
830.385	23783
830.524	23904
830.663	23737
830.802	23619
830.941	23535
831.08	23512
831.219	23649
831.357	23577
831.496	23611
831.635	23562
831.774	23501
831.913	23387
832.051	23341
832.19	23417
832.329	23379
832.467	23330
832.606	23181
832.744	23326
832.883	23220
833.022	23185
833.16	23220
833.299	23277
833.437	23391
833.576	23277
833.714	23223
833.852	23334
833.991	23387
834.129	23444
834.267	23299
834.406	23220
834.544	23254
834.682	23193
834.821	23307
834.959	23444
835.097	23231
835.235	23330
835.373	23212
835.511	23254
835.65	23128
835.788	23330
835.926	23018
836.064	22957
836.202	23094
836.34	23109
836.478	23189
836.615	23117
836.753	23098
836.891	23166
837.029	23208
837.167	22915
837.305	23044
837.443	23022
837.58	22881
837.718	22984
837.856	23079
837.993	22972
838.131	22995
838.269	22759
838.406	22919
838.544	22660
838.681	22668
838.819	22580
838.956	22440
839.094	22474
839.231	22630
839.369	22557
839.506	22664
839.643	22675
839.781	22379
839.918	22318
840.055	22508
840.193	22371
840.33	22428
840.467	22314
840.604	22451
840.742	22653
840.879	22234
841.016	22405
841.153	22303
841.29	22462
841.427	22409
841.564	22356
841.701	22413
841.838	22417
841.975	22257
842.112	22329
842.249	22173
842.385	22158
842.522	22265
842.659	22379
842.796	22162
842.933	22177
843.069	22116
843.206	22090
843.343	22325
843.479	22181
843.616	22154
843.752	21930
843.889	21873
844.025	22112
844.162	21857
844.298	21987
844.435	21884
844.571	21797
844.708	21880
844.844	22101
844.98	22124
845.117	21964
845.253	21857
845.389	21835
845.525	21789
845.661	21762
845.798	21717
845.934	21709
846.07	21576
846.206	21785
846.342	21759
846.478	21717
846.614	21389
846.75	21393
846.886	21420
847.022	21500
847.158	21408
847.294	21306
847.429	21355
847.565	21469
847.701	21656
847.837	21123
847.972	21207
848.108	21340
848.244	21146
848.379	21055
848.515	20990
848.65	21020
848.786	21036
848.921	20971
849.057	21142
849.192	21051
849.328	21001
849.463	21028
849.598	20982
849.734	20830
849.869	20796
850.004	20800
850.14	20819
850.275	20849
850.41	20655
850.545	20735
850.68	20644
850.815	20872
850.95	20762
851.085	20944
851.22	20902
851.355	20765
851.49	20708
851.625	20739
851.76	20659
851.895	20598
852.03	20640
852.165	20663
852.299	20800
852.434	20792
852.569	20754
852.703	20746
852.838	20807
852.973	20861
853.107	20849
853.242	20640
853.376	20571
853.511	20454
853.645	20575
853.78	20659
853.914	20693
854.048	20480
854.183	20590
854.317	20689
854.451	20819
854.585	20598
854.72	20560
854.854	20686
854.988	20583
855.122	20484
855.256	20495
855.39	20602
855.524	20667
855.658	20648
855.792	20621
855.926	20613
856.06	20625
856.194	20727
856.327	20480
856.461	20537
856.595	20537
856.729	20556
856.862	20621
856.996	20530
857.13	20716
857.263	20743
857.397	20727
857.53	20518
857.664	20632
857.797	20636
857.931	20697
858.064	20594
858.197	20712
858.331	20579
858.464	20556
858.597	20511
858.731	20499
858.864	20503
858.997	20526
859.13	20598
859.263	20667
859.396	20575
859.529	20526
859.662	20575
859.795	20568
859.928	20587
860.061	20708
860.194	20811
860.327	20644
860.46	20697
860.592	20727
860.725	20689
860.858	20667
860.99	20629
861.123	20571
861.256	20564
861.388	20636
861.521	21138
861.653	20336
861.786	20393
861.918	20499
862.05	20507
862.183	20533
862.315	20568
862.447	20568
862.58	20514
862.712	20320
862.844	20347
862.976	20385
863.108	20332
863.24	20788
863.372	20229
863.504	20336
863.636	20237
863.768	20347
863.9	20309
864.032	20157
864.164	20259
864.296	20259
864.428	20381
864.559	20400
864.691	20362
864.823	20408
864.954	20309
865.086	20362
865.217	20271
865.349	20100
865.48	20218
865.612	20225
865.743	20351
865.875	20244
866.006	20187
866.137	20244
866.269	20153
866.4	20180
866.531	20058
866.662	20119
866.793	20145
866.924	20142
867.055	20126
867.186	20092
867.317	20153
867.448	20073
867.579	20115
867.71	20054
867.841	20088
867.972	20012
868.103	20164
868.233	20191
868.364	20252
868.495	20218
868.625	20404
868.756	20571
868.886	20282
869.017	20385
869.147	20484
869.278	20484
869.408	20442
869.539	20377
869.669	20358
869.799	20412
869.929	20404
870.06	20446
870.19	20659
870.32	20689
870.45	20750
870.58	20853
870.71	20815
870.84	20861
870.97	20777
871.1	20762
871.23	20948
871.36	21001
871.489	20921
871.619	20842
871.749	21055
871.879	20864
872.008	21051
872.138	21028
872.267	20891
872.397	20762
872.526	20834
872.656	20826
872.785	20864
872.915	21036
873.044	21024
873.173	21036
873.303	21005
873.432	21051
873.561	21108
873.69	21055
873.819	21005
873.948	21085
874.077	21032
874.206	21077
874.335	21104
874.464	21112
874.593	21329
874.722	21104
874.851	21283
874.979	21268
875.108	21340
875.237	21287
875.365	21165
875.494	21127
875.623	21241
875.751	21146
875.88	21184
876.008	21359
876.136	21401
876.265	21606
876.393	21747
876.521	21648
876.65	21743
876.778	21774
876.906	21625
877.034	21572
877.162	21618
877.29	21515
877.418	21561
877.546	21462
877.674	21610
877.802	21591
877.93	21660
878.058	21485
878.185	21477
878.313	21648
878.441	21660
878.568	21367
878.696	21511
878.824	21580
878.951	21564
879.079	21785
879.206	21937
879.333	21937
879.461	21526
879.588	21622
879.715	21846
879.842	21941
879.97	21739
880.097	21420
880.224	21389
880.351	21412
880.478	21382
880.605	21504
880.732	21355
880.859	21568
880.986	21386
881.112	21447
881.239	21287
881.366	21180
881.493	21142
881.619	20979
881.746	21047
881.872	20982
881.999	21020
882.125	21070
882.252	20967
882.378	20986
882.505	21180
882.631	20883
882.757	20750
882.883	20853
883.01	20720
883.136	20663
883.262	20503
883.388	20552
883.514	20731
883.64	20701
883.766	20655
883.892	20450
884.018	20549
884.143	20686
884.269	20720
884.395	20514
884.52	20305
884.646	20339
884.772	20320
884.897	20298
885.023	20393
885.148	20389
885.274	20686
885.399	20469
885.524	20431
885.65	20465
885.775	20393
885.9	20355
886.025	20499
886.15	20533
886.275	20492
886.4	20256
886.525	20317
886.65	20290
886.775	20256
886.9	20370
887.025	20575
887.149	20343
887.274	20115
887.399	20134
887.523	20111
887.648	20103
887.773	19993
887.897	20107
888.021	20221
888.146	20149
888.27	20221
888.395	20336
888.519	20157
888.643	20263
888.767	20153
888.891	20050
889.015	19986
889.139	19955
889.263	19944
889.387	19947
889.511	20206
889.635	19974
889.759	19936
889.883	20024
890.006	19997
890.13	19989
890.254	19723
890.377	19803
890.501	19814
890.624	19719
890.748	19708
890.871	19685
890.995	19586
891.118	19518
891.241	19483
891.364	19594
891.488	19609
891.611	19521
891.734	19556
891.857	19563
891.98	19601
892.103	19578
892.226	19601
892.349	19514
892.471	19327
892.594	19426
892.717	19434
892.839	19422
892.962	19388
893.085	19480
893.207	19468
893.33	19438
893.452	19362
893.575	19320
893.697	19388
893.819	19514
893.941	19643
894.064	19548
894.186	19445
894.308	19312
894.43	19506
894.552	19601
894.674	19430
894.796	19358
894.918	19434
895.04	19407
895.161	19525
895.283	19521
895.405	19354
895.526	19438
895.648	19415
895.769	19415
895.891	19518
896.012	19495
896.134	19441
896.255	19422
896.376	19411
896.498	19358
896.619	19590
896.74	19491
896.861	19681
896.982	19788
897.103	19871
897.224	19830
897.345	19575
897.466	19723
897.587	19624
897.708	19765
897.828	19685
897.949	19613
898.07	19510
898.19	19552
898.311	19811
898.431	19590
898.552	19616
898.672	19677
898.792	19799
898.913	19719
899.033	19582
899.153	19556
899.273	19502
899.393	19415
899.513	19464
899.633	19487
899.753	19491
899.873	19460
899.993	19400
900.113	19483
900.232	19491
900.352	19297
900.472	19339
900.591	19156
900.711	19365
900.83	19091
900.95	19259
901.069	19320
901.189	19110
901.308	18954
901.427	18817
901.546	18894
901.665	18783
901.784	18738
901.904	18741
902.023	18631
902.141	18445
902.26	18311
902.379	18467
902.498	18391
902.617	18258
902.735	18365
902.854	18384
902.973	18380
903.091	18117
903.21	17866
903.328	18110
903.446	17946
903.565	17786
903.683	17859
903.801	17733
903.919	17771
904.038	17779
904.156	17627
904.274	17786
904.392	17554
904.51	17657
904.627	17581
904.745	17581
904.863	17676
904.981	17452
905.098	17258
905.216	17296
905.334	17307
905.451	17292
905.569	17273
905.686	17227
905.803	17258
905.921	17048
906.038	17193
906.155	17197
906.272	16885
906.389	17124
906.506	16930
906.623	16809
906.74	16793
906.857	16660
906.974	16793
907.091	16869
907.208	16866
907.324	16866
907.441	16675
907.557	16573
907.674	16577
907.79	16413
907.907	16618
908.023	16645
908.139	16504
908.256	16500
908.372	16489
908.488	16356
908.604	16386
908.72	16135
908.836	16329
908.952	16284
909.068	16295
909.184	16363
909.3	16200
909.415	16367
909.531	16257
909.647	16017
909.762	15945
909.878	16048
909.993	16010
910.108	15964
910.224	15994
910.339	15972
910.454	15945
910.57	15861
910.685	15694
910.8	15892
910.915	15857
911.03	15781
911.145	15739
911.259	15629
911.374	15595
911.489	15488
911.604	15519
911.718	15420
911.833	15268
911.947	15233
912.062	15249
912.176	15264
912.291	15355
912.405	15321
912.519	15519
912.633	15530
912.748	15401
912.862	15291
912.976	15222
913.09	15074
913.204	15108
913.318	15135
913.431	15161
913.545	15161
913.659	15310
913.772	15020
913.886	15032
914	15001
914.113	14998
914.226	15070
914.34	15058
914.453	14872
914.566	14971
914.68	14876
914.793	14872
914.906	14640
915.019	14530
915.132	14564
915.245	14640
915.358	14594
915.47	14552
915.583	14537
915.696	14636
915.809	14640
915.921	14651
916.034	14594
916.146	14415
916.259	14522
916.371	14583
916.483	14568
916.595	14473
916.708	14511
916.82	14362
916.932	14457
917.044	14454
917.156	14298
917.268	14294
917.38	14294
917.491	14259
917.603	14305
917.715	14339
917.826	14320
917.938	14172
918.049	14088
918.161	14256
918.272	14347
918.384	14358
918.495	14237
918.606	14149
918.717	13986
918.828	14058
918.939	14016
919.05	13982
919.161	14054
919.272	13803
919.383	13902
919.494	13974
919.604	14229
919.715	14050
919.826	13913
919.936	13955
920.047	14123
920.157	14005
920.267	14161
920.378	14077
920.488	13967
920.598	14202
920.708	14355
920.818	14119
920.928	14206
921.038	14229
921.148	14290
921.258	13978
921.368	13826
921.477	13761
921.587	13776
921.697	13651
921.806	13803
921.916	13616
922.025	13426
922.134	13411
922.244	13396
922.353	13415
922.462	13270
922.571	13145
922.68	13091
922.789	13091
922.898	13069
923.007	12939
923.116	13072
923.224	13042
923.333	13019
923.442	12913
923.55	12829
923.659	12920
923.767	12928
923.876	12829
923.984	12852
924.092	12810
924.201	12795
924.309	12791
924.417	12829
924.525	12783
924.633	12719
924.741	13590
924.849	12544
924.956	12696
925.064	12441
925.172	12464
925.279	12418
925.387	12528
925.494	12452
925.602	12662
925.709	12494
925.816	12418
925.924	12471
926.031	12582
926.138	12464
926.245	12483
926.352	12304
926.459	12555
926.566	12513
926.673	12346
926.779	12251
926.886	12262
926.993	12125
927.099	12152
927.206	12003
927.312	12068
927.419	12091
927.525	12034
927.631	12022
927.737	11939
927.843	11939
927.95	11741
928.056	11901
928.162	11961
928.267	11939
928.373	12616
928.479	12007
928.585	11703
928.69	11863
928.796	11912
928.901	11699
929.007	11714
929.112	11756
929.218	11775
929.323	11596
929.428	11665
929.533	11756
929.638	11539
929.743	11627
929.848	11691
929.953	11638
930.058	11448
930.163	11315
930.267	11379
930.372	11436
930.477	11315
930.581	11532
930.685	11452
930.79	11280
930.894	11330
930.998	11143
931.103	11303
931.207	11052
931.311	10835
931.415	10778
931.519	10675
931.623	10618
