Data from test_V78500241_3349.txt Node
Date: Fri Mar 25 15:33:10 CST 2022
User: usil
Spectrometer: V785-0024
Trigger mode: 0
Integration Time (sec): 4.000000E-1
Scans to average: 1
Nonlinearity correction enabled: false
Boxcar width: 0
Storing dark spectrum: false
XAxis mode: Wavelengths
Number of Pixels in Spectrum: 1024
>>>>>Begin Spectral Data<<<<<
801.071	27100
801.214	27058
801.356	26887
801.499	26674
801.641	26674
801.783	26556
801.926	26659
802.068	26644
802.211	26659
802.353	26503
802.496	26434
802.638	26286
802.78	26206
802.923	26259
803.065	26187
803.208	26271
803.35	26328
803.492	26495
803.635	26571
803.777	26271
803.919	26396
804.061	26670
804.204	26545
804.346	26317
804.488	26450
804.63	26507
804.773	26362
804.915	26492
805.057	26541
805.199	26408
805.341	26412
805.483	26503
805.626	26583
805.768	26400
805.91	26644
806.052	26526
806.194	26343
806.336	26674
806.478	26400
806.62	26412
806.762	26682
806.904	26743
807.046	27043
807.188	26914
807.33	26864
807.472	26902
807.614	26956
807.756	26994
807.898	26777
808.04	26739
808.182	26796
808.324	26777
808.465	26712
808.607	26819
808.749	27237
808.891	27195
809.033	27298
809.174	27157
809.316	27157
809.458	27135
809.6	27051
809.741	27180
809.883	27146
810.025	27481
810.166	27477
810.308	27450
810.45	27336
810.591	27344
810.733	27070
810.875	27104
811.016	26933
811.158	26975
811.299	27184
811.441	27325
811.582	27081
811.724	27085
811.865	27169
812.007	27093
812.148	27051
812.29	27131
812.431	27233
812.573	27393
812.714	27469
812.855	27511
812.997	27637
813.138	27694
813.279	27641
813.421	27652
813.562	27545
813.703	27401
813.845	27252
813.986	26933
814.127	26868
814.268	26880
814.41	26765
814.551	26720
814.692	26891
814.833	26693
814.974	26678
815.115	26819
815.256	26670
815.397	26579
815.539	26800
815.68	26469
815.821	26492
815.962	26556
816.103	26514
816.244	26393
816.385	26248
816.526	26256
816.666	26172
816.807	26065
816.948	26157
817.089	26183
817.23	26039
817.371	26008
817.512	25955
817.653	25982
817.793	25997
817.934	25963
818.075	26031
818.216	25966
818.356	26035
818.497	25883
818.638	25719
818.778	25799
818.919	25765
819.06	25837
819.2	25879
819.341	26054
819.481	26008
819.622	26084
819.762	26389
819.903	26252
820.043	26126
820.184	25982
820.324	26138
820.465	26126
820.605	26237
820.746	26069
820.886	26020
821.026	26035
821.167	26043
821.307	26046
821.447	26065
821.588	25925
821.728	25780
821.868	25628
822.008	25567
822.149	25445
822.289	25506
822.429	25308
822.569	25187
822.709	25274
822.849	25042
822.99	24973
823.13	24859
823.27	24970
823.41	24760
823.55	24779
823.69	24817
823.83	24859
823.97	24848
824.11	24505
824.25	24623
824.389	24783
824.529	24692
824.669	24574
824.809	24635
824.949	24844
825.089	24722
825.228	24669
825.368	24380
825.508	24521
825.648	24505
825.787	24532
825.927	24654
826.067	24486
826.206	24479
826.346	24566
826.485	24521
826.625	24566
826.765	24555
826.904	24494
827.044	24350
827.183	24346
827.323	24342
827.462	24243
827.601	24220
827.741	24281
827.88	24247
828.02	24076
828.159	24174
828.298	24220
828.437	24433
828.577	24220
828.716	24273
828.855	24144
828.994	23954
829.134	23866
829.273	24034
829.412	23775
829.551	23904
829.69	24144
829.829	23958
829.968	24076
830.107	24041
830.246	23885
830.385	23908
830.524	23942
830.663	23813
830.802	23741
830.941	23558
831.08	23615
831.219	23676
831.357	23634
831.496	23840
831.635	23539
831.774	23547
831.913	23341
832.051	23330
832.19	23280
832.329	23414
832.467	23254
832.606	23181
832.744	23227
832.883	23246
833.022	23261
833.16	23280
833.299	23220
833.437	23318
833.576	23322
833.714	23311
833.852	23311
833.991	23493
834.129	23330
834.267	23292
834.406	23250
834.544	23356
834.682	23463
834.821	23345
834.959	23566
835.097	23250
835.235	23433
835.373	23254
835.511	23159
835.65	23212
835.788	23181
835.926	23109
836.064	22934
836.202	23033
836.34	23071
836.478	23155
836.615	23151
836.753	23220
836.891	23379
837.029	23231
837.167	23094
837.305	23086
837.443	23056
837.58	23064
837.718	23147
837.856	23060
837.993	22991
838.131	22938
838.269	22889
838.406	22889
838.544	22881
838.681	22733
838.819	22538
838.956	22554
839.094	22462
839.231	22500
839.369	22645
839.506	22942
839.643	22736
839.781	22489
839.918	22481
840.055	22485
840.193	22443
840.33	22455
840.467	22318
840.604	22390
840.742	22675
840.879	22284
841.016	22371
841.153	22272
841.29	22542
841.427	22306
841.564	22466
841.701	22306
841.838	22356
841.975	22261
842.112	22375
842.249	22147
842.385	22261
842.522	22390
842.659	22188
842.796	22131
842.933	22181
843.069	22181
843.206	22226
843.343	22291
843.479	22192
843.616	22131
843.752	22036
843.889	21968
844.025	21991
844.162	21937
844.298	22101
844.435	21846
844.571	21922
844.708	21991
844.844	22143
844.98	22150
845.117	22070
845.253	21991
845.389	21880
845.525	21797
845.661	21797
845.798	21629
845.934	21747
846.07	21682
846.206	21656
846.342	21751
846.478	21690
846.614	21420
846.75	21317
846.886	21401
847.022	21530
847.158	21564
847.294	21481
847.429	21507
847.565	21496
847.701	21797
847.837	21176
847.972	21211
848.108	21332
848.244	21279
848.379	21138
848.515	21062
848.65	20990
848.786	21017
848.921	21093
849.057	21237
849.192	21104
849.328	21039
849.463	20952
849.598	20887
849.734	20990
849.869	20899
850.004	20826
850.14	20762
850.275	20792
850.41	20701
850.545	20838
850.68	20807
850.815	20815
850.95	20800
851.085	21036
851.22	20929
851.355	20788
851.49	20720
851.625	20910
851.76	20838
851.895	20655
852.03	20712
852.165	20819
852.299	20758
852.434	20861
852.569	20800
852.703	20796
852.838	20826
852.973	20918
853.107	20857
853.242	20640
853.376	20727
853.511	20511
853.645	20511
853.78	20739
853.914	20609
854.048	20511
854.183	20663
854.317	20644
854.451	20758
854.585	20594
854.72	20583
854.854	20727
854.988	20689
855.122	20613
855.256	20473
855.39	20594
855.524	20739
855.658	20739
855.792	20602
855.926	20674
856.06	20705
856.194	20819
856.327	20552
856.461	20533
856.595	20492
856.729	20579
856.862	20701
856.996	20701
857.13	20705
857.263	20731
857.397	20731
857.53	20655
857.664	20613
857.797	20712
857.931	20765
858.064	20609
858.197	20648
858.331	20629
858.464	20697
858.597	20537
858.731	20629
858.864	20682
858.997	20556
859.13	20606
859.263	20461
859.396	20697
859.529	20655
859.662	20552
859.795	20579
859.928	20735
860.061	20804
860.194	20842
860.327	20682
860.46	20609
860.592	20739
860.725	20613
860.858	20815
860.99	20617
861.123	20511
861.256	20564
861.388	20617
861.521	21287
861.653	20446
861.786	20393
861.918	20400
862.05	20518
862.183	20469
862.315	20621
862.447	20712
862.58	20499
862.712	20400
862.844	20358
862.976	20450
863.108	20343
863.24	20785
863.372	20317
863.504	20343
863.636	20298
863.768	20412
863.9	20362
864.032	20328
864.164	20282
864.296	20381
864.428	20450
864.559	20419
864.691	20385
864.823	20385
864.954	20263
865.086	20328
865.217	20237
865.349	20168
865.48	20298
865.612	20290
865.743	20240
865.875	20290
866.006	20161
866.137	20320
866.269	20206
866.4	20244
866.531	20195
866.662	20142
866.793	20142
866.924	20271
867.055	20062
867.186	20183
867.317	20294
867.448	20214
867.579	20111
867.71	20176
867.841	20153
867.972	20210
868.103	20294
868.233	20206
868.364	20157
868.495	20214
868.625	20495
868.756	20583
868.886	20275
869.017	20503
869.147	20473
869.278	20568
869.408	20404
869.539	20377
869.669	20606
869.799	20408
869.929	20511
870.06	20583
870.19	20678
870.32	20739
870.45	20720
870.58	20785
870.71	20880
870.84	20815
870.97	20815
871.1	20830
871.23	20937
871.36	20956
871.489	20963
871.619	21032
871.749	20975
871.879	21020
872.008	21104
872.138	21135
872.267	21005
872.397	20876
872.526	20845
872.656	20880
872.785	20872
872.915	21058
873.044	21089
873.173	21051
873.303	21074
873.432	21100
873.561	21058
873.69	21093
873.819	20994
873.948	21058
874.077	21112
874.206	20918
874.335	21036
874.464	21207
874.593	21233
874.722	21272
874.851	21416
874.979	21504
875.108	21336
875.237	21306
875.365	21146
875.494	21230
875.623	21408
875.751	21287
875.88	21264
876.008	21534
876.136	21587
876.265	21728
876.393	21823
876.521	21789
876.65	21781
876.778	21781
876.906	21717
877.034	21618
877.162	21625
877.29	21679
877.418	21641
877.546	21568
877.674	21580
877.802	21720
877.93	21694
878.058	21428
878.185	21477
878.313	21549
878.441	21686
878.568	21564
878.696	21633
878.824	21686
878.951	21633
879.079	21686
879.206	21873
879.333	21800
879.461	21652
879.588	21755
879.715	21637
879.842	21979
879.97	21694
880.097	21439
880.224	21439
880.351	21545
880.478	21500
880.605	21473
880.732	21496
880.859	21667
880.986	21629
881.112	21564
881.239	21287
881.366	21294
881.493	21085
881.619	21077
881.746	21127
881.872	21108
881.999	21085
882.125	21036
882.252	21032
882.378	21013
882.505	21116
882.631	20918
882.757	20750
882.883	20788
883.01	20773
883.136	20693
883.262	20530
883.388	20617
883.514	20800
883.64	20921
883.766	20716
883.892	20560
884.018	20556
884.143	20762
884.269	20689
884.395	20495
884.52	20415
884.646	20492
884.772	20374
884.897	20290
885.023	20442
885.148	20419
885.274	20689
885.399	20492
885.524	20400
885.65	20457
885.775	20427
885.9	20450
886.025	20492
886.15	20450
886.275	20370
886.4	20324
886.525	20282
886.65	20339
886.775	20282
886.9	20503
887.025	20446
887.149	20393
887.274	20149
887.399	20229
887.523	20176
887.648	20096
887.773	20069
887.897	20263
888.021	20229
888.146	20229
888.27	20415
888.395	20252
888.519	20115
888.643	20157
888.767	20191
888.891	20027
889.015	20092
889.139	20183
889.263	19906
889.387	20096
889.511	20263
889.635	20069
889.759	20039
889.883	20020
890.006	19978
890.13	20122
890.254	20005
890.377	19894
890.501	19879
890.624	19708
890.748	19696
890.871	19727
890.995	19635
891.118	19514
891.241	19571
891.364	19647
891.488	19609
891.611	19582
891.734	19491
891.857	19662
891.98	19556
892.103	19731
892.226	19567
892.349	19487
892.471	19350
892.594	19514
892.717	19438
892.839	19464
892.962	19552
893.085	19518
893.207	19491
893.33	19365
893.452	19468
893.575	19647
893.697	19449
893.819	19662
893.941	19643
894.064	19639
894.186	19457
894.308	19552
894.43	19548
894.552	19746
894.674	19597
894.796	19324
894.918	19491
895.04	19373
895.161	19563
895.283	19438
895.405	19457
895.526	19597
895.648	19339
895.769	19525
895.891	19567
896.012	19552
896.134	19632
896.255	19491
896.376	19464
896.498	19518
896.619	19480
896.74	19518
896.861	19620
896.982	19814
897.103	19955
897.224	19753
897.345	19731
897.466	19685
897.587	19769
897.708	19799
897.828	19674
897.949	19670
898.07	19586
898.19	19734
898.311	19803
898.431	19525
898.552	19795
898.672	19681
898.792	19731
898.913	19731
899.033	19597
899.153	19552
899.273	19480
899.393	19518
899.513	19563
899.633	19457
899.753	19464
899.873	19400
899.993	19521
900.113	19422
900.232	19487
900.352	19362
900.472	19335
900.591	19255
900.711	19316
900.83	19377
900.95	19247
901.069	19289
901.189	19103
901.308	18958
901.427	18878
901.546	18916
901.665	18798
901.784	18882
901.904	18726
902.023	18665
902.141	18441
902.26	18441
902.379	18540
902.498	18414
902.617	18323
902.735	18433
902.854	18311
902.973	18338
903.091	18057
903.21	18011
903.328	18106
903.446	17973
903.565	17939
903.683	17980
903.801	17855
903.919	17847
904.038	17764
904.156	17596
904.274	17627
904.392	17608
904.51	17592
904.627	17638
904.745	17707
904.863	17611
904.981	17425
905.098	17303
905.216	17417
905.334	17436
905.451	17478
905.569	17341
905.686	17383
905.803	17284
905.921	17147
906.038	17220
906.155	17117
906.272	16968
906.389	17037
906.506	16824
906.623	16805
906.74	16755
906.857	16725
906.974	16877
907.091	16824
907.208	16904
907.324	16755
907.441	16771
907.557	16607
907.674	16569
907.79	16538
907.907	16679
908.023	16580
908.139	16592
908.256	16554
908.372	16512
908.488	16459
908.604	16371
908.72	16257
908.836	16360
908.952	16257
909.068	16287
909.184	16356
909.3	16424
909.415	16325
909.531	16299
909.647	16131
909.762	15987
909.878	16078
909.993	16036
910.108	15979
910.224	15956
910.339	15964
910.454	15850
910.57	15850
910.685	15728
910.8	15998
910.915	15991
911.03	15800
911.145	15789
911.259	15667
911.374	15652
911.489	15625
911.604	15542
911.718	15416
911.833	15370
911.947	15344
912.062	15291
912.176	15435
912.291	15450
912.405	15405
912.519	15473
912.633	15572
912.748	15397
912.862	15397
912.976	15222
913.09	15081
913.204	15188
913.318	15188
913.431	15329
913.545	15268
913.659	15397
913.772	15211
913.886	15028
914	15028
914.113	15093
914.226	15100
914.34	15108
914.453	14899
914.566	15055
914.68	14918
914.793	14773
914.906	14708
915.019	14522
915.132	14720
915.245	14598
915.358	14610
915.47	14625
915.583	14598
915.696	14655
915.809	14682
915.921	14720
916.034	14530
916.146	14537
916.259	14545
916.371	14571
916.483	14571
916.595	14499
916.708	14454
916.82	14454
916.932	14412
917.044	14511
917.156	14385
917.268	14278
917.38	14358
917.491	14248
917.603	14362
917.715	14336
917.826	14438
917.938	14271
918.049	14043
918.161	14278
918.272	14366
918.384	14324
918.495	14214
918.606	14138
918.717	14031
918.828	14012
918.939	14077
919.05	13978
919.161	14069
919.272	13776
919.383	13928
919.494	14138
919.604	14240
919.715	13951
919.826	13940
919.936	13913
920.047	14180
920.157	14046
920.267	14240
920.378	14020
920.488	13974
920.598	14065
920.708	14282
920.818	14199
920.928	14244
921.038	14263
921.148	14393
921.258	13906
921.368	13898
921.477	13871
921.587	13742
921.697	13666
921.806	13742
921.916	13567
922.025	13537
922.134	13567
922.244	13358
922.353	13441
922.462	13335
922.571	13270
922.68	13194
922.789	13050
922.898	13046
923.007	12954
923.116	13053
923.224	13042
923.333	12966
923.442	12909
923.55	12886
923.659	12901
923.767	13015
923.876	12886
923.984	12916
924.092	12844
924.201	12867
924.309	12806
924.417	12894
924.525	12703
924.633	12764
924.741	13670
924.849	12593
924.956	12707
925.064	12525
925.172	12460
925.279	12475
925.387	12551
925.494	12475
925.602	12612
925.709	12555
925.816	12483
925.924	12441
926.031	12467
926.138	12456
926.245	12585
926.352	12388
926.459	12513
926.566	12608
926.673	12388
926.779	12308
926.886	12228
926.993	12133
927.099	12117
927.206	12076
927.312	12038
927.419	12098
927.525	11999
927.631	12121
927.737	12011
927.843	11988
927.95	11859
928.056	11897
928.162	12007
928.267	12019
928.373	12452
928.479	12079
928.585	11836
928.69	12007
928.796	11882
928.901	11756
929.007	11646
929.112	11760
929.218	11733
929.323	11661
929.428	11634
929.533	11752
929.638	11611
929.743	11547
929.848	11623
929.953	11604
930.058	11482
930.163	11334
930.267	11406
930.372	11562
930.477	11349
930.581	11577
930.685	11402
930.79	11250
930.894	11292
930.998	11246
931.103	11410
931.207	11006
931.311	11033
931.415	10942
931.519	10653
931.623	10733
