Data from test_V78500241_1477.txt Node
Date: Fri Mar 25 15:20:08 CST 2022
User: usil
Spectrometer: V785-0024
Trigger mode: 0
Integration Time (sec): 4.000000E-1
Scans to average: 1
Nonlinearity correction enabled: false
Boxcar width: 0
Storing dark spectrum: false
XAxis mode: Wavelengths
Number of Pixels in Spectrum: 1024
>>>>>Begin Spectral Data<<<<<
801.071	27960
801.214	27934
801.356	27656
801.499	27644
801.641	27469
801.783	27481
801.926	27439
802.068	27538
802.211	27500
802.353	27401
802.496	27275
802.638	27058
802.78	27024
802.923	26975
803.065	26914
803.208	27089
803.35	27119
803.492	27218
803.635	27268
803.777	27203
803.919	27386
804.061	27736
804.204	27515
804.346	27329
804.488	27348
804.63	27275
804.773	27226
804.915	27374
805.057	27515
805.199	27283
805.341	27405
805.483	27515
805.626	27576
805.768	27439
805.91	27591
806.052	27416
806.194	27397
806.336	27606
806.478	27572
806.62	27507
806.762	27549
806.904	27751
807.046	28013
807.188	27937
807.33	27812
807.472	28059
807.614	27937
807.756	27960
807.898	27800
808.04	27698
808.182	27717
808.324	27789
808.465	27823
808.607	28101
808.749	28154
808.891	28185
809.033	28246
809.174	28120
809.316	28032
809.458	28135
809.6	28139
809.741	28181
809.883	28295
810.025	28538
810.166	28596
810.308	28474
810.45	28322
810.591	28382
810.733	28348
810.875	28063
811.016	28097
811.158	28124
811.299	28219
811.441	28310
811.582	28246
811.724	28200
811.865	28158
812.007	28150
812.148	28063
812.29	28143
812.431	28443
812.573	28508
812.714	28531
812.855	28706
812.997	28885
813.138	28904
813.279	28820
813.421	28748
813.562	28611
813.703	28379
813.845	28322
813.986	28192
814.127	28036
814.268	27865
814.41	27930
814.551	27937
814.692	27922
814.833	27774
814.974	27823
815.115	27861
815.256	27690
815.397	27759
815.539	27755
815.68	27599
815.821	27603
815.962	27686
816.103	27732
816.244	27591
816.385	27431
816.526	27363
816.666	27180
816.807	27207
816.948	27207
817.089	27222
817.23	27241
817.371	27150
817.512	27047
817.653	27287
817.793	27066
817.934	27214
818.075	27226
818.216	27146
818.356	27085
818.497	27096
818.638	26826
818.778	26735
818.919	26914
819.06	26963
819.2	27142
819.341	27218
819.481	27146
819.622	27230
819.762	27469
819.903	27511
820.043	27237
820.184	27192
820.324	27096
820.465	27157
820.605	27325
820.746	27135
820.886	27135
821.026	27222
821.167	27207
821.307	27275
821.447	27214
821.588	27070
821.728	27009
821.868	26727
822.008	26556
822.149	26613
822.289	26602
822.429	26267
822.569	26317
822.709	26320
822.849	25966
822.99	26134
823.13	26035
823.27	26024
823.41	26024
823.55	25776
823.69	25925
823.83	25966
823.97	25788
824.11	25753
824.25	25715
824.389	25727
824.529	25849
824.669	25887
824.809	25833
824.949	25868
825.089	25841
825.228	25887
825.368	25571
825.508	25635
825.648	25662
825.787	25624
825.927	25765
826.067	25582
826.206	25605
826.346	25639
826.485	25620
826.625	25597
826.765	25651
826.904	25556
827.044	25419
827.183	25445
827.323	25225
827.462	25449
827.601	25343
827.741	25263
827.88	25247
828.02	25377
828.159	25331
828.298	25384
828.437	25354
828.577	25278
828.716	25365
828.855	25285
828.994	25012
829.134	24985
829.273	25046
829.412	24856
829.551	24848
829.69	24973
829.829	25133
829.968	25015
830.107	25187
830.246	24989
830.385	24951
830.524	24890
830.663	24840
830.802	24650
830.941	24646
831.08	24490
831.219	24692
831.357	24730
831.496	24863
831.635	24521
831.774	24692
831.913	24513
832.051	24429
832.19	24433
832.329	24464
832.467	24388
832.606	24106
832.744	24262
832.883	24308
833.022	24171
833.16	24391
833.299	24281
833.437	24254
833.576	24304
833.714	24315
833.852	24304
833.991	24407
834.129	24384
834.267	24319
834.406	24300
834.544	24304
834.682	24311
834.821	24273
834.959	24593
835.097	24281
835.235	24365
835.373	24361
835.511	24357
835.65	24083
835.788	24205
835.926	24155
836.064	23958
836.202	24003
836.34	24159
836.478	24178
836.615	24129
836.753	24216
836.891	24289
837.029	24220
837.167	24178
837.305	24087
837.443	24129
837.58	24167
837.718	24083
837.856	24015
837.993	23855
838.131	24034
838.269	23916
838.406	23942
838.544	23794
838.681	23748
838.819	23649
838.956	23497
839.094	23334
839.231	23528
839.369	23551
839.506	23733
839.643	23794
839.781	23376
839.918	23227
840.055	23551
840.193	23436
840.33	23349
840.467	23360
840.604	23402
840.742	23512
840.879	23239
841.016	23307
841.153	23337
841.29	23398
841.427	23425
841.564	23356
841.701	23326
841.838	23368
841.975	23330
842.112	23132
842.249	23277
842.385	23261
842.522	23239
842.659	23162
842.796	23121
842.933	23235
843.069	23079
843.206	23052
843.343	23208
843.479	23162
843.616	23223
843.752	22919
843.889	22900
844.025	23022
844.162	22820
844.298	23010
844.435	22972
844.571	22889
844.708	23098
844.844	23071
844.98	22984
845.117	22927
845.253	22862
845.389	22786
845.525	22771
845.661	22725
845.798	22702
845.934	22786
846.07	22577
846.206	22615
846.342	22744
846.478	22668
846.614	22405
846.75	22329
846.886	22485
847.022	22371
847.158	22363
847.294	22493
847.429	22268
847.565	22344
847.701	22565
847.837	22067
847.972	22284
848.108	22265
848.244	22219
848.379	22021
848.515	21937
848.65	21975
848.786	21998
848.921	21804
849.057	22101
849.192	22128
849.328	22040
849.463	21998
849.598	21850
849.734	21804
849.869	21835
850.004	21694
850.14	21724
850.275	21682
850.41	21709
850.545	21580
850.68	21717
850.815	21759
850.95	21641
851.085	21987
851.22	21819
851.355	21808
851.49	21747
851.625	21686
851.76	21633
851.895	21576
852.03	21591
852.165	21629
852.299	21667
852.434	21827
852.569	21778
852.703	21747
852.838	21865
852.973	21888
853.107	21884
853.242	21663
853.376	21618
853.511	21416
853.645	21542
853.78	21698
853.914	21625
854.048	21660
854.183	21557
854.317	21545
854.451	21743
854.585	21515
854.72	21526
854.854	21652
854.988	21389
855.122	21504
855.256	21477
855.39	21538
855.524	21583
855.658	21507
855.792	21545
855.926	21557
856.06	21485
856.194	21595
856.327	21557
856.461	21515
856.595	21515
856.729	21523
856.862	21538
856.996	21682
857.13	21519
857.263	21603
857.397	21610
857.53	21583
857.664	21610
857.797	21557
857.931	21812
858.064	21504
858.197	21641
858.331	21378
858.464	21393
858.597	21485
858.731	21500
858.864	21511
858.997	21511
859.13	21515
859.263	21500
859.396	21660
859.529	21382
859.662	21439
859.795	21412
859.928	21576
860.061	21720
860.194	21690
860.327	21595
860.46	21587
860.592	21682
860.725	21759
860.858	21580
860.99	21424
861.123	21408
861.256	21492
861.388	21568
861.521	21972
861.653	21279
861.786	21408
861.918	21336
862.05	21283
862.183	21492
862.315	21386
862.447	21511
862.58	21329
862.712	21184
862.844	21233
862.976	21367
863.108	21252
863.24	21762
863.372	21150
863.504	21218
863.636	21306
863.768	21268
863.9	21195
864.032	21165
864.164	21211
864.296	21264
864.428	21329
864.559	21199
864.691	21348
864.823	21325
864.954	21116
865.086	21207
865.217	21161
865.349	21093
865.48	21192
865.612	21127
865.743	21245
865.875	21199
866.006	21199
866.137	21161
866.269	21142
866.4	20971
866.531	20986
866.662	20933
866.793	21051
866.924	21043
867.055	21180
867.186	21051
867.317	21017
867.448	21089
867.579	20864
867.71	21032
867.841	21039
867.972	21058
868.103	21142
868.233	21146
868.364	21192
868.495	21207
868.625	21386
868.756	21359
868.886	21272
869.017	21264
869.147	21496
869.278	21439
869.408	21382
869.539	21325
869.669	21435
869.799	21389
869.929	21378
870.06	21447
870.19	21557
870.32	21576
870.45	21614
870.58	21701
870.71	21823
870.84	21732
870.97	21720
871.1	21720
871.23	21835
871.36	21911
871.489	21781
871.619	21854
871.749	21778
871.879	21949
872.008	21953
872.138	21949
872.267	22006
872.397	21759
872.526	21705
872.656	21732
872.785	21778
872.915	22086
873.044	22021
873.173	21983
873.303	21930
873.432	22055
873.561	21964
873.69	21846
873.819	21926
873.948	21835
874.077	21888
874.206	21960
874.335	21926
874.464	22013
874.593	22029
874.722	22128
874.851	22200
874.979	22223
875.108	22135
875.237	21972
875.365	22112
875.494	22139
875.623	22082
875.751	22112
875.88	22112
876.008	22211
876.136	22329
876.265	22447
876.393	22519
876.521	22637
876.65	22546
876.778	22512
876.906	22546
877.034	22493
877.162	22504
877.29	22542
877.418	22618
877.546	22409
877.674	22554
877.802	22402
877.93	22508
878.058	22371
878.185	22398
878.313	22394
878.441	22493
878.568	22276
878.696	22341
878.824	22497
878.951	22599
879.079	22653
879.206	22801
879.333	22542
879.461	22470
879.588	22584
879.715	22607
879.842	22656
879.97	22630
880.097	22337
880.224	22265
880.351	22310
880.478	22352
880.605	22082
880.732	22257
880.859	22630
880.986	22257
881.112	22344
881.239	22204
881.366	22070
881.493	21930
881.619	21903
881.746	21907
881.872	21945
881.999	21709
882.125	21846
882.252	21972
882.378	21766
882.505	22078
882.631	21660
882.757	21561
882.883	21660
883.01	21633
883.136	21469
883.262	21420
883.388	21416
883.514	21549
883.64	21656
883.766	21462
883.892	21249
884.018	21340
884.143	21583
884.269	21500
884.395	21256
884.52	21123
884.646	21161
884.772	21123
884.897	21116
885.023	21241
885.148	21367
885.274	21336
885.399	21256
885.524	21329
885.65	21283
885.775	21188
885.9	21184
886.025	21275
886.15	21275
886.275	21142
886.4	21154
886.525	21131
886.65	21150
886.775	21070
886.9	21256
887.025	21313
887.149	21199
887.274	20937
887.399	20971
887.523	20982
887.648	20899
887.773	20845
887.897	21020
888.021	21001
888.146	20971
888.27	20914
888.395	21055
888.519	21055
888.643	21043
888.767	20956
888.891	20853
889.015	20785
889.139	20815
889.263	20743
889.387	20807
889.511	20944
889.635	20952
889.759	20765
889.883	20800
890.006	20678
890.13	20830
890.254	20716
890.377	20762
890.501	20423
890.624	20499
890.748	20511
890.871	20484
890.995	20366
891.118	20362
891.241	20355
891.364	20343
891.488	20412
891.611	20366
891.734	20298
891.857	20442
891.98	20370
892.103	20423
892.226	20442
892.349	20324
892.471	20134
892.594	20225
892.717	20271
892.839	20225
892.962	20195
893.085	20408
893.207	20221
893.33	20096
893.452	20183
893.575	20317
893.697	20191
893.819	20355
893.941	20404
894.064	20412
894.186	20218
894.308	20240
894.43	20339
894.552	20431
894.674	20328
894.796	20122
894.918	20358
895.04	20210
895.161	20385
895.283	20294
895.405	20134
895.526	20145
895.648	20252
895.769	20313
895.891	20290
896.012	20176
896.134	20305
896.255	20233
896.376	20180
896.498	20263
896.619	20183
896.74	20134
896.861	20309
896.982	20541
897.103	20659
897.224	20522
897.345	20473
897.466	20393
897.587	20404
897.708	20564
897.828	20461
897.949	20317
898.07	20339
898.19	20514
898.311	20598
898.431	20381
898.552	20389
898.672	20507
898.792	20488
898.913	20594
899.033	20336
899.153	20248
899.273	20176
899.393	20191
899.513	20271
899.633	20145
899.753	20221
899.873	20065
899.993	20111
900.113	20111
900.232	20237
900.352	20229
900.472	20096
900.591	19963
900.711	20035
900.83	19898
900.95	20111
901.069	19993
901.189	19902
901.308	19670
901.427	19502
901.546	19597
901.665	19559
901.784	19605
901.904	19514
902.023	19381
902.141	19122
902.26	19137
902.379	19168
902.498	19050
902.617	18989
902.735	19080
902.854	19061
902.973	18985
903.091	18757
903.21	18719
903.328	18734
903.446	18597
903.565	18544
903.683	18547
903.801	18490
903.919	18509
904.038	18376
904.156	18262
904.274	18353
904.392	18281
904.51	18330
904.627	18243
904.745	18391
904.863	18353
904.981	18076
905.098	17996
905.216	17889
905.334	18060
905.451	18026
905.569	17984
905.686	18007
905.803	17897
905.921	17726
906.038	17942
906.155	17767
906.272	17653
906.389	17589
906.506	17596
906.623	17604
906.74	17592
906.857	17395
906.974	17520
907.091	17516
907.208	17596
907.324	17486
907.441	17501
907.557	17227
907.674	17258
907.79	17178
907.907	17174
908.023	17220
908.139	17254
908.256	17094
908.372	17006
908.488	17086
908.604	17052
908.72	17029
908.836	16927
908.952	17003
909.068	16938
909.184	17083
909.3	16900
909.415	16946
909.531	16896
909.647	16763
909.762	16634
909.878	16603
909.993	16664
910.108	16672
910.224	16527
910.339	16588
910.454	16592
910.57	16375
910.685	16382
910.8	16626
910.915	16596
911.03	16512
911.145	16211
911.259	16219
911.374	16207
911.489	16120
911.604	16101
911.718	16002
911.833	16025
911.947	15831
912.062	15793
912.176	15998
912.291	15937
912.405	16063
912.519	16207
912.633	16211
912.748	16071
912.862	15994
912.976	15804
913.09	15720
913.204	15739
913.318	15857
913.431	15964
913.545	15903
913.659	15869
913.772	15766
913.886	15663
914	15538
914.113	15690
914.226	15561
914.34	15576
914.453	15450
914.566	15713
914.68	15401
914.793	15386
914.906	15237
915.019	15188
915.132	15097
915.245	15131
915.358	15237
915.47	15233
915.583	15207
915.696	15302
915.809	15367
915.921	15302
916.034	15195
916.146	15036
916.259	15150
916.371	15188
916.483	15192
916.595	15074
916.708	15032
916.82	15024
916.932	14990
917.044	14998
917.156	14937
917.268	14921
917.38	14845
917.491	14788
917.603	14891
917.715	14895
917.826	14941
917.938	14819
918.049	14667
918.161	14758
918.272	15001
918.384	14906
918.495	14765
918.606	14632
918.717	14590
918.828	14712
918.939	14670
919.05	14492
919.161	14621
919.272	14351
919.383	14484
919.494	14644
919.604	14785
919.715	14583
919.826	14617
919.936	14549
920.047	14727
920.157	14598
920.267	14716
920.378	14598
920.488	14545
920.598	14765
920.708	14887
920.818	14621
920.928	14693
921.038	14815
921.148	14811
921.258	14503
921.368	14400
921.477	14275
921.587	14343
921.697	14031
921.806	14328
921.916	14153
922.025	14111
922.134	13970
922.244	13860
922.353	13993
922.462	13852
922.571	13784
922.68	13620
922.789	13616
922.898	13655
923.007	13601
923.116	13529
923.224	13628
923.333	13586
923.442	13445
923.55	13324
923.659	13533
923.767	13468
923.876	13331
923.984	13483
924.092	13377
924.201	13324
924.309	13365
924.417	13285
924.525	13324
924.633	13259
924.741	14096
924.849	13015
924.956	13232
925.064	13091
925.172	12935
925.279	12951
925.387	13004
925.494	12943
925.602	13156
925.709	12954
925.816	12837
925.924	13008
926.031	13110
926.138	12920
926.245	12962
926.352	12905
926.459	12954
926.566	13065
926.673	12894
926.779	12787
926.886	12734
926.993	12627
927.099	12570
927.206	12540
927.312	12551
927.419	12646
927.525	12563
927.631	12532
927.737	12544
927.843	12391
927.95	12296
928.056	12376
928.162	12460
928.267	12448
928.373	12833
928.479	12452
928.585	12258
928.69	12342
928.796	12414
928.901	12247
929.007	12110
929.112	12213
929.218	12190
929.323	12155
929.428	12136
929.533	12247
929.638	12034
929.743	12079
929.848	12163
929.953	12091
930.058	11954
930.163	11916
930.267	11843
930.372	11901
930.477	11592
930.581	11980
930.685	11764
930.79	11680
930.894	11722
930.998	11653
931.103	11847
931.207	11490
931.311	11341
931.415	11261
931.519	11071
931.623	11109
