Data from test_V78500241_1384.txt Node
Date: Fri Mar 25 15:19:29 CST 2022
User: usil
Spectrometer: V785-0024
Trigger mode: 0
Integration Time (sec): 4.000000E-1
Scans to average: 1
Nonlinearity correction enabled: false
Boxcar width: 0
Storing dark spectrum: false
XAxis mode: Wavelengths
Number of Pixels in Spectrum: 1024
>>>>>Begin Spectral Data<<<<<
801.071	28162
801.214	28200
801.356	27895
801.499	27831
801.641	27648
801.783	27679
801.926	27838
802.068	27660
802.211	27637
802.353	27648
802.496	27466
802.638	27344
802.78	27359
802.923	27306
803.065	27329
803.208	27313
803.35	27519
803.492	27488
803.635	27500
803.777	27507
803.919	27690
804.061	28090
804.204	27606
804.346	27435
804.488	27469
804.63	27568
804.773	27500
804.915	27557
805.057	27526
805.199	27629
805.341	27648
805.483	27755
805.626	27747
805.768	27629
805.91	27732
806.052	27644
806.194	27663
806.336	27873
806.478	27743
806.62	27698
806.762	27873
806.904	27994
807.046	28261
807.188	28253
807.33	28207
807.472	28265
807.614	28112
807.756	28135
807.898	28040
808.04	28013
808.182	27937
808.324	27975
808.465	28105
808.607	28291
808.749	28401
808.891	28516
809.033	28649
809.174	28557
809.316	28363
809.458	28310
809.6	28192
809.741	28527
809.883	28504
810.025	28706
810.166	28748
810.308	28820
810.45	28607
810.591	28565
810.733	28481
810.875	28306
811.016	28344
811.158	28363
811.299	28367
811.441	28523
811.582	28550
811.724	28379
811.865	28329
812.007	28363
812.148	28401
812.29	28531
812.431	28634
812.573	28687
812.714	28824
812.855	28968
812.997	28938
813.138	29181
813.279	29083
813.421	29022
813.562	28843
813.703	28828
813.845	28702
813.986	28459
814.127	28143
814.268	28112
814.41	28124
814.551	28169
814.692	28257
814.833	28059
814.974	28120
815.115	28051
815.256	27934
815.397	27991
815.539	27975
815.68	27975
815.821	27751
815.962	27895
816.103	27857
816.244	27774
816.385	27614
816.526	27686
816.666	27587
816.807	27325
816.948	27466
817.089	27469
817.23	27485
817.371	27321
817.512	27473
817.653	27431
817.793	27336
817.934	27439
818.075	27492
818.216	27412
818.356	27310
818.497	27188
818.638	27150
818.778	27222
818.919	27146
819.06	27260
819.2	27291
819.341	27454
819.481	27397
819.622	27641
819.762	27736
819.903	27663
820.043	27599
820.184	27606
820.324	27591
820.465	27500
820.605	27424
820.746	27618
820.886	27424
821.026	27443
821.167	27466
821.307	27561
821.447	27500
821.588	27481
821.728	27169
821.868	27116
822.008	26906
822.149	26796
822.289	26777
822.429	26568
822.569	26579
822.709	26640
822.849	26362
822.99	26412
823.13	26290
823.27	26161
823.41	26115
823.55	26111
823.69	26278
823.83	26191
823.97	26145
824.11	26119
824.25	26027
824.389	25993
824.529	25986
824.669	26012
824.809	26161
824.949	26039
825.089	26084
825.228	25917
825.368	25826
825.508	25833
825.648	25978
825.787	25966
825.927	25989
826.067	25883
826.206	25868
826.346	25966
826.485	26073
826.625	25902
826.765	25959
826.904	25944
827.044	25685
827.183	25677
827.323	25693
827.462	25704
827.601	25594
827.741	25666
827.88	25647
828.02	25559
828.159	25597
828.298	25670
828.437	25586
828.577	25559
828.716	25632
828.855	25529
828.994	25274
829.134	25434
829.273	25430
829.412	25244
829.551	25225
829.69	25289
829.829	25339
829.968	25430
830.107	25365
830.246	25354
830.385	25278
830.524	25247
830.663	25141
830.802	25019
830.941	24909
831.08	24882
831.219	24928
831.357	25023
831.496	25190
831.635	25012
831.774	24932
831.913	24856
832.051	24859
832.19	24814
832.329	24719
832.467	24608
832.606	24616
832.744	24551
832.883	24597
833.022	24620
833.16	24646
833.299	24688
833.437	24631
833.576	24544
833.714	24620
833.852	24711
833.991	24654
834.129	24597
834.267	24684
834.406	24589
834.544	24825
834.682	24703
834.821	24513
834.959	24764
835.097	24635
835.235	24795
835.373	24490
835.511	24433
835.65	24551
835.788	24479
835.926	24376
836.064	24235
836.202	24304
836.34	24388
836.478	24608
836.615	24369
836.753	24380
836.891	24597
837.029	24536
837.167	24357
837.305	24323
837.443	24494
837.58	24281
837.718	24437
837.856	24350
837.993	24380
838.131	24391
838.269	24072
838.406	24136
838.544	24072
838.681	24034
838.819	23809
838.956	23847
839.094	23703
839.231	23923
839.369	23912
839.506	24220
839.643	24068
839.781	23752
839.918	23866
840.055	23771
840.193	23847
840.33	23604
840.467	23714
840.604	23771
840.742	23935
840.879	23611
841.016	23665
841.153	23581
841.29	23802
841.427	23627
841.564	23638
841.701	23627
841.838	23623
841.975	23547
842.112	23531
842.249	23482
842.385	23433
842.522	23611
842.659	23455
842.796	23467
842.933	23512
843.069	23231
843.206	23410
843.343	23501
843.479	23395
843.616	23455
843.752	23189
843.889	23185
844.025	23398
844.162	23223
844.298	23318
844.435	23117
844.571	23162
844.708	23216
844.844	23391
844.98	23345
845.117	23246
845.253	23128
845.389	23044
845.525	23079
845.661	23128
845.798	22820
845.934	23041
846.07	22991
846.206	22942
846.342	22934
846.478	22820
846.614	22767
846.75	22645
846.886	22607
847.022	22786
847.158	22687
847.294	22607
847.429	22778
847.565	22660
847.701	22889
847.837	22402
847.972	22447
848.108	22455
848.244	22409
848.379	22329
848.515	22253
848.65	22257
848.786	22211
848.921	22265
849.057	22478
849.192	22413
849.328	22310
849.463	22268
849.598	22246
849.734	22181
849.869	22086
850.004	21987
850.14	22074
850.275	21934
850.41	21880
850.545	21972
850.68	22025
850.815	21979
850.95	22036
851.085	22219
851.22	22166
851.355	22021
851.49	21956
851.625	22010
851.76	21884
851.895	21892
852.03	21934
852.165	22021
852.299	22021
852.434	22006
852.569	22116
852.703	21975
852.838	22101
852.973	22204
853.107	22097
853.242	21880
853.376	21880
853.511	21884
853.645	21865
853.78	21960
853.914	21884
854.048	21804
854.183	21648
854.317	21842
854.451	22029
854.585	21838
854.72	21861
854.854	21880
854.988	21804
855.122	21850
855.256	21819
855.39	21797
855.524	21797
855.658	21804
855.792	21800
855.926	21895
856.06	21922
856.194	21899
856.327	21751
856.461	21724
856.595	21709
856.729	21800
856.862	21941
856.996	21846
857.13	21812
857.263	21983
857.397	22006
857.53	21835
857.664	21895
857.797	21956
857.931	22002
858.064	21888
858.197	21953
858.331	21827
858.464	21759
858.597	21698
858.731	21873
858.864	21831
858.997	21720
859.13	21899
859.263	21827
859.396	21934
859.529	21857
859.662	21778
859.795	21793
859.928	21808
860.061	22013
860.194	22036
860.327	21846
860.46	21930
860.592	21945
860.725	22044
860.858	21998
860.99	21785
861.123	21823
861.256	21709
861.388	21812
861.521	22246
861.653	21698
861.786	21686
861.918	21671
862.05	21835
862.183	21793
862.315	21766
862.447	21823
862.58	21679
862.712	21675
862.844	21447
862.976	21694
863.108	21466
863.24	21873
863.372	21397
863.504	21591
863.636	21568
863.768	21576
863.9	21523
864.032	21428
864.164	21485
864.296	21576
864.428	21663
864.559	21660
864.691	21496
864.823	21576
864.954	21477
865.086	21515
865.217	21511
865.349	21351
865.48	21466
865.612	21294
865.743	21583
865.875	21454
866.006	21355
866.137	21447
866.269	21443
866.4	21370
866.531	21374
866.662	21313
866.793	21405
866.924	21184
867.055	21302
867.186	21329
867.317	21283
867.448	21241
867.579	21241
867.71	21180
867.841	21332
867.972	21298
868.103	21287
868.233	21351
868.364	21310
868.495	21481
868.625	21557
868.756	21686
868.886	21485
869.017	21557
869.147	21827
869.278	21675
869.408	21599
869.539	21545
869.669	21667
869.799	21709
869.929	21660
870.06	21622
870.19	21895
870.32	21972
870.45	21838
870.58	21953
870.71	22131
870.84	22090
870.97	21949
871.1	21968
871.23	22150
871.36	22147
871.489	22112
871.619	22169
871.749	22204
871.879	22219
872.008	22261
872.138	22265
872.267	22242
872.397	22067
872.526	21956
872.656	22059
872.785	22036
872.915	22185
873.044	22261
873.173	22211
873.303	22211
873.432	22207
873.561	22223
873.69	22067
873.819	22207
873.948	22413
874.077	22154
874.206	22059
874.335	22192
874.464	22352
874.593	22337
874.722	22421
874.851	22493
874.979	22500
875.108	22523
875.237	22443
875.365	22318
875.494	22398
875.623	22478
875.751	22318
875.88	22432
876.008	22550
876.136	22500
876.265	22828
876.393	22911
876.521	22778
876.65	22748
876.778	22729
876.906	22679
877.034	22698
877.162	22710
877.29	22668
877.418	22721
877.546	22805
877.674	22683
877.802	22637
877.93	22641
878.058	22698
878.185	22698
878.313	22710
878.441	22752
878.568	22531
878.696	22664
878.824	22862
878.951	22740
879.079	22904
879.206	23075
879.333	22911
879.461	22763
879.588	22812
879.715	22729
879.842	22915
879.97	22892
880.097	22687
880.224	22417
880.351	22580
880.478	22550
880.605	22523
880.732	22607
880.859	22892
880.986	22519
881.112	22519
881.239	22432
881.366	22417
881.493	22295
881.619	22158
881.746	22204
881.872	22116
881.999	22131
882.125	22101
882.252	21968
882.378	22074
882.505	22219
882.631	21876
882.757	21816
882.883	21911
883.01	21907
883.136	21739
883.262	21717
883.388	21751
883.514	21816
883.64	21827
883.766	21778
883.892	21622
884.018	21641
884.143	21892
884.269	21743
884.395	21542
884.52	21500
884.646	21359
884.772	21462
884.897	21332
885.023	21519
885.148	21709
885.274	21526
885.399	21523
885.524	21511
885.65	21462
885.775	21500
885.9	21519
886.025	21572
886.15	21473
886.275	21435
886.4	21332
886.525	21332
886.65	21325
886.775	21370
886.9	21561
887.025	21713
887.149	21564
887.274	21222
887.399	21195
887.523	21317
887.648	21131
887.773	21195
887.897	21332
888.021	21359
888.146	21055
888.27	21233
888.395	21332
888.519	21192
888.643	21275
888.767	21226
888.891	21131
889.015	21017
889.139	21043
889.263	21043
889.387	21226
889.511	21245
889.635	21245
889.759	20952
889.883	20994
890.006	21066
890.13	21100
890.254	21001
890.377	21066
890.501	20785
890.624	20727
890.748	20838
890.871	20701
890.995	20541
891.118	20579
891.241	20724
891.364	20568
891.488	20727
891.611	20606
891.734	20609
891.857	20545
891.98	20549
892.103	20644
892.226	20617
892.349	20530
892.471	20381
892.594	20465
892.717	20587
892.839	20385
892.962	20461
893.085	20568
893.207	20617
893.33	20286
893.452	20461
893.575	20511
893.697	20609
893.819	20629
893.941	20629
894.064	20583
894.186	20423
894.308	20286
894.43	20651
894.552	20712
894.674	20621
894.796	20412
894.918	20598
895.04	20377
895.161	20606
895.283	20571
895.405	20423
895.526	20526
895.648	20408
895.769	20511
895.891	20434
896.012	20571
896.134	20385
896.255	20393
896.376	20434
896.498	20556
896.619	20473
896.74	20476
896.861	20655
896.982	20739
897.103	20902
897.224	20800
897.345	20800
897.466	20590
897.587	20701
897.708	20746
897.828	20819
897.949	20587
898.07	20473
898.19	20678
898.311	20655
898.431	20609
898.552	20716
898.672	20788
898.792	20826
898.913	20636
899.033	20552
899.153	20488
899.273	20343
899.393	20476
899.513	20298
899.633	20507
899.753	20404
899.873	20332
899.993	20393
900.113	20332
900.232	20473
900.352	20438
900.472	20298
900.591	20180
900.711	20248
900.83	20050
900.95	20301
901.069	20225
901.189	20103
901.308	19925
901.427	19727
901.546	19875
901.665	19803
901.784	19772
901.904	19635
902.023	19575
902.141	19335
902.26	19377
902.379	19350
902.498	19255
902.617	19270
902.735	19384
902.854	19320
902.973	19118
903.091	19031
903.21	18886
903.328	19012
903.446	18806
903.565	18848
903.683	18757
903.801	18654
903.919	18768
904.038	18650
904.156	18464
904.274	18616
904.392	18498
904.51	18563
904.627	18486
904.745	18502
904.863	18498
904.981	18410
905.098	18079
905.216	18144
905.334	18186
905.451	18285
905.569	18216
905.686	18334
905.803	18197
905.921	17942
906.038	18095
906.155	17980
906.272	17939
906.389	17840
906.506	17672
906.623	17783
906.74	17680
906.857	17592
906.974	17699
907.091	17771
907.208	17859
907.324	17726
907.441	17638
907.557	17528
907.674	17467
907.79	17421
907.907	17463
908.023	17440
908.139	17395
908.256	17337
908.372	17395
908.488	17410
908.604	17189
908.72	17121
908.836	17227
908.952	17098
909.068	17136
909.184	17296
909.3	17102
909.415	17090
909.531	17159
909.647	16900
909.762	16919
909.878	16854
909.993	16896
910.108	16778
910.224	16698
910.339	16866
910.454	16721
910.57	16687
910.685	16573
910.8	16793
910.915	16752
911.03	16641
911.145	16405
911.259	16348
911.374	16352
911.489	16386
911.604	16337
911.718	16246
911.833	16207
911.947	16078
912.062	16017
912.176	16181
912.291	16158
912.405	16101
912.519	16291
912.633	16348
912.748	16128
912.862	16166
912.976	15941
913.09	15865
913.204	15922
913.318	16044
913.431	16059
913.545	16010
913.659	16109
913.772	15930
913.886	15797
914	15720
914.113	15842
914.226	15918
914.34	15861
914.453	15728
914.566	15876
914.68	15660
914.793	15587
914.906	15397
915.019	15382
915.132	15332
915.245	15332
915.358	15477
915.47	15466
915.583	15363
915.696	15363
915.809	15466
915.921	15587
916.034	15348
916.146	15256
916.259	15306
916.371	15348
916.483	15317
916.595	15176
916.708	15188
916.82	15272
916.932	15127
917.044	15214
917.156	15108
917.268	15051
917.38	14975
917.491	15058
917.603	15017
917.715	15047
917.826	15085
917.938	14979
918.049	14861
918.161	14948
918.272	15146
918.384	15081
918.495	15017
918.606	14914
918.717	14697
918.828	14785
918.939	14819
919.05	14727
919.161	14830
919.272	14636
919.383	14537
919.494	14864
919.604	14899
919.715	14826
919.826	14613
919.936	14773
920.047	14769
920.157	14788
920.267	14925
920.378	14849
920.488	14678
920.598	14933
920.708	14975
920.818	14861
920.928	14899
921.038	15020
921.148	14933
921.258	14701
921.368	14533
921.477	14423
921.587	14450
921.697	14290
921.806	14423
921.916	14263
922.025	14176
922.134	14142
922.244	14050
922.353	14180
922.462	14020
922.571	13986
922.68	13769
922.789	13818
922.898	13700
923.007	13681
923.116	13757
923.224	13742
923.333	13769
923.442	13647
923.55	13578
923.659	13586
923.767	13620
923.876	13521
923.984	13632
924.092	13529
924.201	13487
924.309	13487
924.417	13453
924.525	13384
924.633	13434
924.741	14206
924.849	13160
924.956	13373
925.064	13088
925.172	13141
925.279	13156
925.387	13137
925.494	13179
925.602	13209
925.709	13179
925.816	13126
925.924	13107
926.031	13156
926.138	13034
926.245	13126
926.352	12878
926.459	13171
926.566	13183
926.673	12996
926.779	12886
926.886	12901
926.993	12700
927.099	12662
927.206	12646
927.312	12684
927.419	12684
927.525	12658
927.631	12745
927.737	12677
927.843	12506
927.95	12422
928.056	12471
928.162	12525
928.267	12589
928.373	13255
928.479	12593
928.585	12369
928.69	12418
928.796	12506
928.901	12384
929.007	12152
929.112	12429
929.218	12357
929.323	12281
929.428	12262
929.533	12353
929.638	12209
929.743	12232
929.848	12190
929.953	12205
930.058	12098
930.163	11980
930.267	11977
930.372	12057
930.477	11863
930.581	12102
930.685	12003
930.79	11893
930.894	11843
930.998	11707
931.103	11893
931.207	11539
931.311	11512
931.415	11383
931.519	11227
931.623	11235
