Data from test_V78500241_1148.txt Node
Date: Fri Mar 25 15:17:51 CST 2022
User: usil
Spectrometer: V785-0024
Trigger mode: 0
Integration Time (sec): 4.000000E-1
Scans to average: 1
Nonlinearity correction enabled: false
Boxcar width: 0
Storing dark spectrum: false
XAxis mode: Wavelengths
Number of Pixels in Spectrum: 1024
>>>>>Begin Spectral Data<<<<<
801.071	28333
801.214	28185
801.356	27793
801.499	27739
801.641	27713
801.783	27644
801.926	27861
802.068	27873
802.211	27682
802.353	27561
802.496	27450
802.638	27382
802.78	27424
802.923	27329
803.065	27348
803.208	27416
803.35	27340
803.492	27469
803.635	27519
803.777	27542
803.919	27618
804.061	27888
804.204	27755
804.346	27580
804.488	27526
804.63	27698
804.773	27443
804.915	27705
805.057	27816
805.199	27519
805.341	27690
805.483	27831
805.626	27800
805.768	27644
805.91	27770
806.052	27857
806.194	27762
806.336	27918
806.478	27846
806.62	27679
806.762	27892
806.904	27991
807.046	28329
807.188	28280
807.33	28177
807.472	28177
807.614	28166
807.756	28082
807.898	28067
808.04	28010
808.182	27949
808.324	28044
808.465	28112
808.607	28329
808.749	28306
808.891	28535
809.033	28634
809.174	28367
809.316	28390
809.458	28409
809.6	28462
809.741	28618
809.883	28557
810.025	28672
810.166	28694
810.308	28542
810.45	28679
810.591	28660
810.733	28538
810.875	28310
811.016	28299
811.158	28219
811.299	28622
811.441	28565
811.582	28672
811.724	28542
811.865	28341
812.007	28561
812.148	28554
812.29	28607
812.431	28615
812.573	28809
812.714	28957
812.855	28987
812.997	29102
813.138	29079
813.279	29006
813.421	28915
813.562	29071
813.703	28820
813.845	28801
813.986	28440
814.127	28272
814.268	28101
814.41	28211
814.551	28177
814.692	28314
814.833	28082
814.974	28109
815.115	27994
815.256	28063
815.397	27956
815.539	28029
815.68	28032
815.821	27892
815.962	28002
816.103	27816
816.244	27819
816.385	27831
816.526	27743
816.666	27625
816.807	27332
816.948	27477
817.089	27652
817.23	27637
817.371	27382
817.512	27473
817.653	27450
817.793	27344
817.934	27435
818.075	27488
818.216	27477
818.356	27549
818.497	27348
818.638	27066
818.778	27112
818.919	27275
819.06	27287
819.2	27340
819.341	27511
819.481	27393
819.622	27614
819.762	27804
819.903	27698
820.043	27724
820.184	27641
820.324	27572
820.465	27747
820.605	27618
820.746	27549
820.886	27477
821.026	27660
821.167	27485
821.307	27447
821.447	27500
821.588	27439
821.728	27367
821.868	27100
822.008	26914
822.149	26823
822.289	26823
822.429	26773
822.569	26670
822.709	26667
822.849	26518
822.99	26412
823.13	26507
823.27	26385
823.41	26252
823.55	26111
823.69	26480
823.83	26221
823.97	26259
824.11	26100
824.25	26252
824.389	26138
824.529	26233
824.669	26263
824.809	26225
824.949	26275
825.089	26145
825.228	26134
825.368	26020
825.508	26001
825.648	25936
825.787	26005
825.927	26016
826.067	25947
826.206	26016
826.346	26039
826.485	26054
826.625	25982
826.765	26069
826.904	26024
827.044	25693
827.183	25742
827.323	25761
827.462	25784
827.601	25822
827.741	25742
827.88	25643
828.02	25605
828.159	25674
828.298	25712
828.437	25769
828.577	25582
828.716	25807
828.855	25548
828.994	25419
829.134	25476
829.273	25544
829.412	25320
829.551	25343
829.69	25438
829.829	25571
829.968	25438
830.107	25430
830.246	25449
830.385	25331
830.524	25419
830.663	25228
830.802	25084
830.941	25076
831.08	25145
831.219	25099
831.357	25122
831.496	25244
831.635	25091
831.774	24985
831.913	24814
832.051	24715
832.19	24696
832.329	24859
832.467	24833
832.606	24688
832.744	24570
832.883	24608
833.022	24856
833.16	24852
833.299	24764
833.437	24783
833.576	24825
833.714	24772
833.852	24928
833.991	24825
834.129	24890
834.267	24764
834.406	24764
834.544	24939
834.682	24764
834.821	24814
834.959	24932
835.097	24738
835.235	24840
835.373	24760
835.511	24859
835.65	24608
835.788	24597
835.926	24612
836.064	24532
836.202	24563
836.34	24696
836.478	24642
836.615	24620
836.753	24749
836.891	24700
837.029	24673
837.167	24597
837.305	24467
837.443	24540
837.58	24361
837.718	24505
837.856	24559
837.993	24528
838.131	24372
838.269	24380
838.406	24308
838.544	24254
838.681	24140
838.819	24110
838.956	24083
839.094	23870
839.231	23904
839.369	24125
839.506	24346
839.643	24281
839.781	23984
839.918	23931
840.055	24038
840.193	23923
840.33	23779
840.467	23859
840.604	23920
840.742	24190
840.879	23691
841.016	23824
841.153	23627
841.29	23961
841.427	23805
841.564	23870
841.701	23767
841.838	23809
841.975	23745
842.112	23760
842.249	23642
842.385	23547
842.522	23798
842.659	23745
842.796	23630
842.933	23592
843.069	23623
843.206	23585
843.343	23710
843.479	23452
843.616	23642
843.752	23387
843.889	23387
844.025	23402
844.162	23292
844.298	23398
844.435	23414
844.571	23417
844.708	23581
844.844	23543
844.98	23501
845.117	23596
845.253	23417
845.389	23296
845.525	23292
845.661	23147
845.798	23025
845.934	23197
846.07	22972
846.206	23136
846.342	23189
846.478	22991
846.614	22968
846.75	22733
846.886	22717
847.022	22908
847.158	22847
847.294	22831
847.429	22930
847.565	22820
847.701	22995
847.837	22622
847.972	22531
848.108	22611
848.244	22561
848.379	22470
848.515	22402
848.65	22432
848.786	22375
848.921	22371
849.057	22470
849.192	22561
849.328	22466
849.463	22447
849.598	22348
849.734	22379
849.869	22417
850.004	22173
850.14	22177
850.275	22166
850.41	22059
850.545	22048
850.68	22173
850.815	22238
850.95	22207
851.085	22402
851.22	22325
851.355	22230
851.49	22124
851.625	22169
851.76	22272
851.895	22070
852.03	22124
852.165	22044
852.299	22207
852.434	22242
852.569	22185
852.703	22192
852.838	22284
852.973	22310
853.107	22375
853.242	22128
853.376	22097
853.511	21827
853.645	21918
853.78	22226
853.914	21930
854.048	21949
854.183	22006
854.317	22036
854.451	22139
854.585	22135
854.72	21972
854.854	22120
854.988	21876
855.122	22002
855.256	21869
855.39	21998
855.524	22131
855.658	22150
855.792	21991
855.926	22055
856.06	22044
856.194	21991
856.327	21991
856.461	21945
856.595	21926
856.729	21960
856.862	22139
856.996	22044
857.13	22063
857.263	22109
857.397	22135
857.53	21915
857.664	22086
857.797	22036
857.931	22044
858.064	22055
858.197	22173
858.331	22032
858.464	22070
858.597	21934
858.731	22032
858.864	21953
858.997	21838
859.13	21949
859.263	21960
859.396	22067
859.529	21934
859.662	21949
859.795	21926
859.928	21930
860.061	22150
860.194	22253
860.327	22048
860.46	21994
860.592	22181
860.725	22135
860.858	22097
860.99	22010
861.123	21975
861.256	21983
861.388	21937
861.521	22717
861.653	22025
861.786	21888
861.918	21972
862.05	21854
862.183	22013
862.315	21934
862.447	22112
862.58	22006
862.712	21732
862.844	21759
862.976	21930
863.108	21804
863.24	22226
863.372	21709
863.504	21644
863.636	21732
863.768	21736
863.9	21606
864.032	21671
864.164	21762
864.296	21918
864.428	21854
864.559	21857
864.691	21861
864.823	21743
864.954	21724
865.086	21781
865.217	21701
865.349	21504
865.48	21698
865.612	21591
865.743	21682
865.875	21629
866.006	21698
866.137	21530
866.269	21633
866.4	21652
866.531	21561
866.662	21606
866.793	21530
866.924	21629
867.055	21534
867.186	21583
867.317	21473
867.448	21416
867.579	21450
867.71	21496
867.841	21515
867.972	21568
868.103	21458
868.233	21614
868.364	21507
868.495	21538
868.625	21705
868.756	21842
868.886	21755
869.017	21857
869.147	21968
869.278	21899
869.408	21816
869.539	21816
869.669	21907
869.799	21857
869.929	21930
870.06	21850
870.19	22048
870.32	22116
870.45	22124
870.58	22284
870.71	22329
870.84	22390
870.97	22242
871.1	22177
871.23	22356
871.36	22428
871.489	22329
871.619	22371
871.749	22333
871.879	22459
872.008	22523
872.138	22322
872.267	22291
872.397	22291
872.526	22177
872.656	22265
872.785	22261
872.915	22417
873.044	22474
873.173	22375
873.303	22455
873.432	22478
873.561	22497
873.69	22436
873.819	22485
873.948	22459
874.077	22398
874.206	22287
874.335	22481
874.464	22603
874.593	22565
874.722	22557
874.851	22554
874.979	22622
875.108	22630
875.237	22546
875.365	22489
875.494	22653
875.623	22755
875.751	22542
875.88	22596
876.008	22778
876.136	22725
876.265	22953
876.393	23128
876.521	23071
876.65	23136
876.778	23075
876.906	22980
877.034	22839
877.162	22942
877.29	22858
877.418	22972
877.546	22911
877.674	22938
877.802	22889
877.93	22949
878.058	22873
878.185	22869
878.313	22790
878.441	22892
878.568	22809
878.696	22873
878.824	23079
878.951	23060
879.079	23159
879.206	23277
879.333	23048
879.461	23010
879.588	23048
879.715	23102
879.842	23181
879.97	22984
880.097	22805
880.224	22767
880.351	22736
880.478	22778
880.605	22626
880.732	22812
880.859	22911
880.986	22797
881.112	22797
881.239	22706
881.366	22474
881.493	22409
881.619	22287
881.746	22329
881.872	22211
881.999	22276
882.125	22329
882.252	22451
882.378	22234
882.505	22455
882.631	22063
882.757	22010
882.883	22158
883.01	22162
883.136	21911
883.262	21835
883.388	21857
883.514	22021
883.64	22131
883.766	21983
883.892	21911
884.018	21789
884.143	21911
884.269	21991
884.395	21789
884.52	21614
884.646	21854
884.772	21595
884.897	21690
885.023	21724
885.148	21762
885.274	21797
885.399	21717
885.524	21625
885.65	21549
885.775	21701
885.9	21580
886.025	21770
886.15	21717
886.275	21542
886.4	21625
886.525	21622
886.65	21603
886.775	21557
886.9	21827
887.025	21778
887.149	21534
887.274	21363
887.399	21348
887.523	21526
887.648	21348
887.773	21397
887.897	21614
888.021	21488
888.146	21462
888.27	21378
888.395	21580
888.519	21412
888.643	21397
888.767	21428
888.891	21252
889.015	21279
889.139	21306
889.263	21233
889.387	21294
889.511	21344
889.635	21287
889.759	21310
889.883	21317
890.006	21351
890.13	21401
890.254	21192
890.377	21173
890.501	20830
890.624	20941
890.748	20925
890.871	20864
890.995	20792
891.118	20785
891.241	20815
891.364	20792
891.488	20830
891.611	20823
891.734	20750
891.857	20899
891.98	20826
892.103	20849
892.226	20800
892.349	20788
892.471	20556
892.594	20712
892.717	20769
892.839	20655
892.962	20693
893.085	20678
893.207	20712
893.33	20609
893.452	20648
893.575	20659
893.697	20758
893.819	20902
893.941	20887
894.064	20754
894.186	20705
894.308	20640
894.43	20632
894.552	20769
894.674	20773
894.796	20583
894.918	20697
895.04	20716
895.161	20754
895.283	20777
895.405	20625
895.526	20674
895.648	20590
895.769	20750
895.891	20674
896.012	20743
896.134	20716
896.255	20708
896.376	20511
896.498	20689
896.619	20598
896.74	20678
896.861	20731
896.982	20849
897.103	21146
897.224	20807
897.345	20876
897.466	20777
897.587	20899
897.708	20967
897.828	20880
897.949	20800
898.07	20602
898.19	20807
898.311	20941
898.431	20933
898.552	20918
898.672	20918
898.792	20895
898.913	20982
899.033	20777
899.153	20781
899.273	20434
899.393	20678
899.513	20583
899.633	20518
899.753	20556
899.873	20564
899.993	20663
900.113	20419
900.232	20613
900.352	20492
900.472	20381
900.591	20351
900.711	20495
900.83	20324
900.95	20469
901.069	20370
901.189	20275
901.308	19955
901.427	19955
901.546	19932
901.665	19944
901.784	19906
901.904	19746
902.023	19708
902.141	19521
902.26	19419
902.379	19548
902.498	19415
902.617	19392
902.735	19457
902.854	19453
902.973	19392
903.091	19171
903.21	19091
903.328	19122
903.446	19012
903.565	18966
903.683	18852
903.801	18833
903.919	18867
904.038	18863
904.156	18700
904.274	18730
904.392	18642
904.51	18673
904.627	18768
904.745	18711
904.863	18726
904.981	18448
905.098	18407
905.216	18422
905.334	18346
905.451	18357
905.569	18289
905.686	18361
905.803	18426
905.921	18182
906.038	18296
906.155	18152
906.272	18167
906.389	18136
906.506	17859
906.623	17882
906.74	17908
906.857	17805
906.974	17805
907.091	18007
907.208	18011
907.324	17859
907.441	17775
907.557	17573
907.674	17600
907.79	17547
907.907	17535
908.023	17608
908.139	17596
908.256	17554
908.372	17501
908.488	17501
908.604	17379
908.72	17269
908.836	17322
908.952	17265
909.068	17334
909.184	17452
909.3	17296
909.415	17284
909.531	17254
909.647	17006
909.762	17067
909.878	16976
909.993	17014
910.108	17025
910.224	17029
910.339	16953
910.454	16892
910.57	16759
910.685	16793
910.8	17018
910.915	16942
911.03	16752
911.145	16672
911.259	16626
911.374	16649
911.489	16455
911.604	16512
911.718	16310
911.833	16363
911.947	16181
912.062	16166
912.176	16299
912.291	16303
912.405	16356
912.519	16447
912.633	16538
912.748	16382
912.862	16246
912.976	16181
913.09	15994
913.204	16128
913.318	16109
913.431	16207
913.545	16093
913.659	16356
913.772	16196
913.886	15941
914	16006
914.113	16109
914.226	16082
914.34	16021
914.453	15838
914.566	15972
914.68	15884
914.793	15812
914.906	15606
915.019	15553
915.132	15515
915.245	15542
915.358	15538
915.47	15507
915.583	15538
915.696	15523
915.809	15648
915.921	15682
916.034	15576
916.146	15435
916.259	15374
916.371	15439
916.483	15477
916.595	15397
916.708	15359
916.82	15374
916.932	15275
917.044	15340
917.156	15230
917.268	15131
917.38	15119
917.491	15169
917.603	15180
917.715	15214
917.826	15252
917.938	15127
918.049	15005
918.161	15169
918.272	15310
918.384	15302
918.495	15024
918.606	14929
918.717	14899
918.828	14975
918.939	14979
919.05	14857
919.161	14986
919.272	14754
919.383	14834
919.494	14986
919.604	15108
919.715	14967
919.826	14758
919.936	14853
920.047	14921
920.157	14830
920.267	15062
920.378	14872
920.488	14883
920.598	15017
920.708	15119
920.818	14994
920.928	15032
921.038	15176
921.148	15131
921.258	14845
921.368	14739
921.477	14587
921.587	14564
921.697	14484
921.806	14606
921.916	14495
922.025	14278
922.134	14202
922.244	14263
922.353	14237
922.462	14054
922.571	14050
922.68	13947
922.789	13894
922.898	13875
923.007	13849
923.116	13883
923.224	13906
923.333	13826
923.442	13734
923.55	13670
923.659	13734
923.767	13662
923.876	13639
923.984	13696
924.092	13567
924.201	13647
924.309	13594
924.417	13651
924.525	13499
924.633	13540
924.741	14499
924.849	13316
924.956	13419
925.064	13301
925.172	13312
925.279	13228
925.387	13316
925.494	13301
925.602	13464
925.709	13365
925.816	13221
925.924	13259
926.031	13266
926.138	13198
926.245	13339
926.352	13072
926.459	13251
926.566	13228
926.673	13133
926.779	12966
926.886	13012
926.993	12947
927.099	12757
927.206	12753
927.312	12779
927.419	12886
927.525	12802
927.631	12810
927.737	12757
927.843	12677
927.95	12563
928.056	12620
928.162	12612
928.267	12703
928.373	13247
928.479	12662
928.585	12490
928.69	12616
928.796	12627
928.901	12517
929.007	12391
929.112	12502
929.218	12525
929.323	12475
929.428	12346
929.533	12536
929.638	12350
929.743	12369
929.848	12441
929.953	12304
930.058	12224
930.163	12011
930.267	12079
930.372	12133
930.477	12060
930.581	12235
930.685	12178
930.79	11977
930.894	12011
930.998	11973
931.103	12015
931.207	11688
931.311	11646
931.415	11611
931.519	11368
931.623	11311
