Data from test_V78500241_263.txt Node
Date: Fri Mar 25 15:11:41 CST 2022
User: usil
Spectrometer: V785-0024
Trigger mode: 0
Integration Time (sec): 4.000000E-1
Scans to average: 1
Nonlinearity correction enabled: false
Boxcar width: 0
Storing dark spectrum: false
XAxis mode: Wavelengths
Number of Pixels in Spectrum: 1024
>>>>>Begin Spectral Data<<<<<
801.071	28348
801.214	28291
801.356	28067
801.499	28135
801.641	27956
801.783	27861
801.926	27899
802.068	27671
802.211	27778
802.353	27770
802.496	27629
802.638	27583
802.78	27526
802.923	27515
803.065	27443
803.208	27530
803.35	27492
803.492	27477
803.635	27797
803.777	27622
803.919	27732
804.061	27937
804.204	27766
804.346	27492
804.488	27561
804.63	27686
804.773	27549
804.915	27663
805.057	27785
805.199	27610
805.341	27701
805.483	27747
805.626	27755
805.768	27492
805.91	27766
806.052	27800
806.194	27682
806.336	27922
806.478	27663
806.62	27766
806.762	27850
806.904	28070
807.046	28341
807.188	28211
807.33	28192
807.472	28276
807.614	28238
807.756	28196
807.898	28036
808.04	27892
808.182	27903
808.324	28051
808.465	28067
808.607	28242
808.749	28344
808.891	28451
809.033	28451
809.174	28554
809.316	28333
809.458	28318
809.6	28303
809.741	28603
809.883	28504
810.025	28641
810.166	28626
810.308	28538
810.45	28504
810.591	28531
810.733	28287
810.875	28341
811.016	28265
811.158	28348
811.299	28382
811.441	28493
811.582	28348
811.724	28185
811.865	28363
812.007	28379
812.148	28325
812.29	28386
812.431	28432
812.573	28603
812.714	28733
812.855	28721
812.997	28866
813.138	29124
813.279	29124
813.421	28965
813.562	28927
813.703	28687
813.845	28455
813.986	28268
814.127	28177
814.268	27914
814.41	28082
814.551	28017
814.692	28029
814.833	28013
814.974	27941
815.115	27880
815.256	27804
815.397	27793
815.539	27953
815.68	27937
815.821	27698
815.962	27804
816.103	27739
816.244	27667
816.385	27633
816.526	27313
816.666	27336
816.807	27116
816.948	27291
817.089	27233
817.23	27325
817.371	27268
817.512	27161
817.653	27237
817.793	27108
817.934	27173
818.075	27165
818.216	27135
818.356	27062
818.497	27036
818.638	26765
818.778	26834
818.919	26937
819.06	26914
819.2	26979
819.341	27173
819.481	27116
819.622	27233
819.762	27519
819.903	27302
820.043	27317
820.184	27313
820.324	27275
820.465	27169
820.605	27222
820.746	27135
820.886	27127
821.026	27135
821.167	27081
821.307	27214
821.447	27043
821.588	27039
821.728	26933
821.868	26891
822.008	26743
822.149	26560
822.289	26549
822.429	26431
822.569	26286
822.709	26252
822.849	26024
822.99	26035
823.13	26062
823.27	25830
823.41	25879
823.55	25723
823.69	26039
823.83	25947
823.97	25837
824.11	25693
824.25	25700
824.389	25719
824.529	25837
824.669	25803
824.809	25871
824.949	25814
825.089	25772
825.228	25761
825.368	25499
825.508	25502
825.648	25651
825.787	25605
825.927	25476
826.067	25354
826.206	25510
826.346	25510
826.485	25594
826.625	25563
826.765	25635
826.904	25578
827.044	25339
827.183	25320
827.323	25198
827.462	25339
827.601	25312
827.741	25240
827.88	25327
828.02	25168
828.159	25259
828.298	25316
828.437	25141
828.577	25209
828.716	25346
828.855	25202
828.994	24928
829.134	24890
829.273	24935
829.412	25027
829.551	24798
829.69	24859
829.829	25046
829.968	25065
830.107	25046
830.246	24932
830.385	24810
830.524	24802
830.663	24715
830.802	24688
830.941	24467
831.08	24635
831.219	24631
831.357	24623
831.496	24817
831.635	24513
831.774	24452
831.913	24292
832.051	24266
832.19	24243
832.329	24285
832.467	24243
832.606	24186
832.744	24091
832.883	24174
833.022	24133
833.16	24266
833.299	24254
833.437	24144
833.576	24167
833.714	24140
833.852	24232
833.991	24190
834.129	24270
834.267	24300
834.406	24220
834.544	24239
834.682	24216
834.821	24129
834.959	24437
835.097	24190
835.235	24068
835.373	24152
835.511	24334
835.65	24106
835.788	23996
835.926	23893
836.064	23866
836.202	23870
836.34	24011
836.478	24163
836.615	24064
836.753	23980
836.891	23992
837.029	24053
837.167	23969
837.305	23984
837.443	24007
837.58	24060
837.718	23977
837.856	23939
837.993	23805
838.131	23851
838.269	23722
838.406	23737
838.544	23661
838.681	23414
838.819	23497
838.956	23254
839.094	23337
839.231	23376
839.369	23486
839.506	23687
839.643	23505
839.781	23376
839.918	23242
840.055	23307
840.193	23311
840.33	23296
840.467	23178
840.604	23197
840.742	23524
840.879	23109
841.016	23147
841.153	23090
841.29	23318
841.427	23185
841.564	23250
841.701	23239
841.838	23216
841.975	23060
842.112	22991
842.249	23029
842.385	22877
842.522	23140
842.659	23029
842.796	22965
842.933	22953
843.069	22934
843.206	22869
843.343	23071
843.479	22942
843.616	22911
843.752	22713
843.889	22698
844.025	22847
844.162	22710
844.298	22790
844.435	22790
844.571	22774
844.708	22828
844.844	22915
844.98	22664
845.117	22839
845.253	22713
845.389	22573
845.525	22691
845.661	22630
845.798	22455
845.934	22394
846.07	22523
846.206	22394
846.342	22440
846.478	22462
846.614	22284
846.75	22143
846.886	22188
847.022	22253
847.158	22276
847.294	22116
847.429	22261
847.565	22158
847.701	22375
847.837	21892
847.972	21823
848.108	22017
848.244	22029
848.379	21823
848.515	21739
848.65	21736
848.786	21720
848.921	21831
849.057	21842
849.192	21686
849.328	21797
849.463	21747
849.598	21755
849.734	21667
849.869	21450
850.004	21553
850.14	21618
850.275	21485
850.41	21424
850.545	21397
850.68	21496
850.815	21576
850.95	21553
851.085	21679
851.22	21629
851.355	21500
851.49	21500
851.625	21466
851.76	21408
851.895	21340
852.03	21351
852.165	21412
852.299	21557
852.434	21355
852.569	21583
852.703	21492
852.838	21515
852.973	21709
853.107	21694
853.242	21515
853.376	21340
853.511	21104
853.645	21374
853.78	21405
853.914	21325
854.048	21184
854.183	21188
854.317	21173
854.451	21504
854.585	21211
854.72	21294
854.854	21355
854.988	21161
855.122	21291
855.256	21192
855.39	21313
855.524	21367
855.658	21351
855.792	21294
855.926	21245
856.06	21249
856.194	21313
856.327	21283
856.461	21138
856.595	21256
856.729	21264
856.862	21397
856.996	21355
857.13	21454
857.263	21332
857.397	21389
857.53	21310
857.664	21249
857.797	21469
857.931	21298
858.064	21313
858.197	21454
858.331	21211
858.464	21313
858.597	21176
858.731	21180
858.864	21272
858.997	21245
859.13	21188
859.263	21199
859.396	21294
859.529	21256
859.662	21226
859.795	21195
859.928	21218
860.061	21447
860.194	21477
860.327	21355
860.46	21321
860.592	21321
860.725	21462
860.858	21374
860.99	21325
861.123	21127
861.256	21131
861.388	21332
861.521	21953
861.653	21154
861.786	21058
861.918	20994
862.05	21245
862.183	21237
862.315	21329
862.447	21279
862.58	21192
862.712	20994
862.844	20975
862.976	21081
863.108	21036
863.24	21469
863.372	20933
863.504	20990
863.636	20902
863.768	20899
863.9	20842
864.032	20918
864.164	20842
864.296	20925
864.428	21013
864.559	20963
864.691	20971
864.823	20906
864.954	20967
865.086	21017
865.217	20895
865.349	20929
865.48	20910
865.612	20918
865.743	20960
865.875	20952
866.006	20689
866.137	20861
866.269	20899
866.4	20918
866.531	20727
866.662	20746
866.793	20724
866.924	20895
867.055	20739
867.186	20792
867.317	20724
867.448	20587
867.579	20670
867.71	20674
867.841	20705
867.972	20792
868.103	20842
868.233	20781
868.364	20792
868.495	20899
868.625	21150
868.756	21047
868.886	20956
869.017	20990
869.147	21020
869.278	21096
869.408	21017
869.539	20960
869.669	21112
869.799	21081
869.929	21138
870.06	21017
870.19	21241
870.32	21291
870.45	21443
870.58	21389
870.71	21504
870.84	21511
870.97	21344
871.1	21382
871.23	21660
871.36	21458
871.489	21507
871.619	21675
871.749	21610
871.879	21614
872.008	21690
872.138	21648
872.267	21507
872.397	21561
872.526	21298
872.656	21439
872.785	21542
872.915	21724
873.044	21603
873.173	21610
873.303	21663
873.432	21743
873.561	21614
873.69	21709
873.819	21724
873.948	21720
874.077	21667
874.206	21553
874.335	21625
874.464	21770
874.593	21850
874.722	21774
874.851	21987
874.979	21884
875.108	21865
875.237	21781
875.365	21835
875.494	21842
875.623	22040
875.751	21880
875.88	21937
876.008	21945
876.136	21941
876.265	22204
876.393	22440
876.521	22325
876.65	22398
876.778	22177
876.906	22196
877.034	22207
877.162	22112
877.29	22169
877.418	22219
877.546	22287
877.674	22276
877.802	22135
877.93	22238
878.058	22192
878.185	22139
878.313	22135
878.441	22242
878.568	22101
878.696	22211
878.824	22090
878.951	22242
879.079	22447
879.206	22546
879.333	22443
879.461	22295
879.588	22306
879.715	22333
879.842	22523
879.97	22322
880.097	22078
880.224	21918
880.351	22074
880.478	22036
880.605	21983
880.732	21998
880.859	22284
880.986	22040
881.112	21953
881.239	21899
881.366	21838
881.493	21633
881.619	21724
881.746	21675
881.872	21599
881.999	21549
882.125	21469
882.252	21599
882.378	21614
882.505	21778
882.631	21523
882.757	21359
882.883	21443
883.01	21310
883.136	21336
883.262	21188
883.388	21165
883.514	21176
883.64	21264
883.766	21294
883.892	21085
884.018	21203
884.143	21310
884.269	21382
884.395	21013
884.52	20948
884.646	20986
884.772	20918
884.897	20845
885.023	20963
885.148	21119
885.274	21142
885.399	21096
885.524	20994
885.65	20861
885.775	21062
885.9	21005
886.025	21001
886.15	21005
886.275	20952
886.4	20796
886.525	20842
886.65	20872
886.775	20944
886.9	21009
887.025	21180
887.149	20944
887.274	20739
887.399	20731
887.523	20731
887.648	20678
887.773	20674
887.897	20868
888.021	20636
888.146	20746
888.27	20830
888.395	20731
888.519	20731
888.643	20769
888.767	20769
888.891	20697
889.015	20499
889.139	20689
889.263	20507
889.387	20583
889.511	20735
889.635	20678
889.759	20298
889.883	20541
890.006	20533
890.13	20575
890.254	20396
890.377	20419
890.501	20275
890.624	20248
890.748	20351
890.871	20142
890.995	20069
891.118	20054
891.241	20043
891.364	20115
891.488	20218
891.611	20100
891.734	20100
891.857	20122
891.98	20187
892.103	20187
892.226	20084
892.349	20031
892.471	19955
892.594	20058
892.717	20039
892.839	20012
892.962	20005
893.085	20142
893.207	19921
893.33	19917
893.452	19906
893.575	20077
893.697	19871
893.819	20210
893.941	20035
894.064	20039
894.186	20016
894.308	19860
894.43	20001
894.552	20176
894.674	20126
894.796	19909
894.918	19989
895.04	19955
895.161	20172
895.283	20043
895.405	19928
895.526	19925
895.648	19993
895.769	20142
895.891	19989
896.012	20081
896.134	19849
896.255	20024
896.376	19982
896.498	20073
896.619	19921
896.74	19974
896.861	20046
896.982	20309
897.103	20549
897.224	20370
897.345	20271
897.466	20278
897.587	20305
897.708	20393
897.828	20202
897.949	20157
898.07	19989
898.19	20103
898.311	20343
898.431	20134
898.552	20168
898.672	20199
898.792	20225
898.913	20187
899.033	20027
899.153	19951
899.273	19879
899.393	19909
899.513	19970
899.633	19906
899.753	19986
899.873	19890
899.993	19986
900.113	19757
900.232	19955
900.352	19837
900.472	19830
900.591	19670
900.711	19776
900.83	19712
900.95	19936
901.069	19925
901.189	19609
901.308	19400
901.427	19259
901.546	19377
901.665	19255
901.784	19266
901.904	19308
902.023	19065
902.141	18856
902.26	18837
902.379	18867
902.498	18795
902.617	18817
902.735	18791
902.854	18772
902.973	18749
903.091	18441
903.21	18506
903.328	18471
903.446	18418
903.565	18304
903.683	18334
903.801	18129
903.919	18292
904.038	18342
904.156	18110
904.274	18106
904.392	18064
904.51	17984
904.627	18091
904.745	18125
904.863	18155
904.981	17950
905.098	17657
905.216	17843
905.334	17752
905.451	17783
905.569	17741
905.686	17855
905.803	17611
905.921	17573
906.038	17532
906.155	17478
906.272	17478
906.389	17482
906.506	17117
906.623	17216
906.74	17269
906.857	17124
906.974	17147
907.091	17360
907.208	17410
907.324	17311
907.441	17136
907.557	16858
907.674	16972
907.79	16942
907.907	16816
908.023	16892
908.139	16877
908.256	16892
908.372	16900
908.488	16896
908.604	16721
908.72	16618
908.836	16694
908.952	16611
909.068	16675
909.184	16847
909.3	16607
909.415	16713
909.531	16668
909.647	16428
909.762	16363
909.878	16436
909.993	16344
910.108	16341
910.224	16348
910.339	16272
910.454	16211
910.57	16219
910.685	16082
910.8	16337
910.915	16291
911.03	16173
911.145	16025
911.259	15915
911.374	15968
911.489	15903
911.604	15884
911.718	15644
911.833	15701
911.947	15595
912.062	15606
912.176	15747
912.291	15625
912.405	15595
912.519	15835
912.633	15979
912.748	15720
912.862	15690
912.976	15488
913.09	15443
913.204	15382
913.318	15561
913.431	15538
913.545	15545
913.659	15671
913.772	15447
913.886	15370
914	15367
914.113	15485
914.226	15450
914.34	15378
914.453	15131
914.566	15306
914.68	15249
914.793	15051
914.906	14937
915.019	14956
915.132	14883
915.245	14921
915.358	15032
915.47	14914
915.583	14895
915.696	14944
915.809	14941
915.921	15070
916.034	14849
916.146	14834
916.259	14842
916.371	14910
916.483	14963
916.595	14804
916.708	14678
916.82	14697
916.932	14769
917.044	14701
917.156	14663
917.268	14556
917.38	14594
917.491	14644
917.603	14526
917.715	14693
917.826	14594
917.938	14469
918.049	14381
918.161	14545
918.272	14659
918.384	14678
918.495	14514
918.606	14511
918.717	14244
918.828	14324
918.939	14461
919.05	14244
919.161	14252
919.272	14092
919.383	14172
919.494	14278
919.604	14533
919.715	14305
919.826	14343
919.936	14248
920.047	14320
920.157	14294
920.267	14503
920.378	14343
920.488	14313
920.598	14389
920.708	14518
920.818	14404
920.928	14332
921.038	14648
921.148	14549
921.258	14195
921.368	14111
921.477	13997
921.587	14031
921.697	13864
921.806	14123
921.916	13875
922.025	13795
922.134	13681
922.244	13632
922.353	13708
922.462	13563
922.571	13457
922.68	13247
922.789	13358
922.898	13331
923.007	13327
923.116	13346
923.224	13263
923.333	13282
923.442	13190
923.55	13160
923.659	13069
923.767	13244
923.876	13065
923.984	13236
924.092	13084
924.201	13050
924.309	13110
924.417	13080
924.525	13019
924.633	12993
924.741	13723
924.849	12867
924.956	12993
925.064	12741
925.172	12669
925.279	12692
925.387	12848
925.494	12722
925.602	12932
925.709	12810
925.816	12601
925.924	12650
926.031	12821
926.138	12707
926.245	12749
926.352	12555
926.459	12658
926.566	12837
926.673	12601
926.779	12479
926.886	12498
926.993	12319
927.099	12330
927.206	12254
927.312	12224
927.419	12323
927.525	12323
927.631	12330
927.737	12247
927.843	12182
927.95	12038
928.056	12117
928.162	12125
928.267	12155
928.373	12745
928.479	12213
928.585	11931
928.69	12133
928.796	12087
928.901	11977
929.007	11832
929.112	12030
929.218	11980
929.323	11927
929.428	11840
929.533	11942
929.638	11836
929.743	11821
929.848	11859
929.953	11821
930.058	11729
930.163	11619
930.267	11577
930.372	11714
930.477	11589
930.581	11710
930.685	11619
930.79	11417
930.894	11554
930.998	11467
931.103	11570
931.207	11315
931.311	11201
931.415	11045
931.519	10831
931.623	10809
