Data from test_V78500241_3436.txt Node
Date: Fri Mar 25 15:33:47 CST 2022
User: usil
Spectrometer: V785-0024
Trigger mode: 0
Integration Time (sec): 4.000000E-1
Scans to average: 1
Nonlinearity correction enabled: false
Boxcar width: 0
Storing dark spectrum: false
XAxis mode: Wavelengths
Number of Pixels in Spectrum: 1024
>>>>>Begin Spectral Data<<<<<
801.071	27176
801.214	27176
801.356	27020
801.499	27116
801.641	26708
801.783	26636
801.926	26807
802.068	26811
802.211	26788
802.353	26522
802.496	26469
802.638	26419
802.78	26400
802.923	26305
803.065	26328
803.208	26389
803.35	26305
803.492	26495
803.635	26606
803.777	26495
803.919	26606
804.061	26956
804.204	26655
804.346	26469
804.488	26415
804.63	26473
804.773	26537
804.915	26583
805.057	26727
805.199	26579
805.341	26648
805.483	26598
805.626	26655
805.768	26476
805.91	26583
806.052	26667
806.194	26651
806.336	26872
806.478	26678
806.62	26712
806.762	26731
806.904	26994
807.046	27169
807.188	27119
807.33	27051
807.472	27089
807.614	27055
807.756	26982
807.898	26868
808.04	26815
808.182	26811
808.324	26849
808.465	27081
808.607	27176
808.749	27214
808.891	27344
809.033	27496
809.174	27340
809.316	27321
809.458	27298
809.6	27386
809.741	27256
809.883	27439
810.025	27576
810.166	27416
810.308	27519
810.45	27587
810.591	27618
810.733	27176
810.875	27275
811.016	27131
811.158	27173
811.299	27412
811.441	27249
811.582	27348
811.724	27123
811.865	27256
812.007	27131
812.148	27291
812.29	27443
812.431	27462
812.573	27511
812.714	27644
812.855	27762
812.997	27808
813.138	28109
813.279	27918
813.421	27812
813.562	27614
813.703	27637
813.845	27488
813.986	27233
814.127	27077
814.268	26963
814.41	26914
814.551	26952
814.692	27043
814.833	26906
814.974	27028
815.115	26895
815.256	26819
815.397	26792
815.539	26807
815.68	26781
815.821	26659
815.962	26712
816.103	26674
816.244	26750
816.385	26469
816.526	26613
816.666	26336
816.807	26202
816.948	26103
817.089	26328
817.23	26225
817.371	26107
817.512	26229
817.653	26157
817.793	26103
817.934	26244
818.075	26134
818.216	26164
818.356	26210
818.497	26054
818.638	26039
818.778	26031
818.919	25963
819.06	26069
819.2	26084
819.341	26119
819.481	26077
819.622	26396
819.762	26621
819.903	26423
820.043	26385
820.184	26290
820.324	26328
820.465	26366
820.605	26328
820.746	26259
820.886	26130
821.026	26305
821.167	26237
821.307	26259
821.447	26153
821.588	26119
821.728	25974
821.868	25833
822.008	25613
822.149	25742
822.289	25727
822.429	25460
822.569	25308
822.709	25449
822.849	25240
822.99	25133
823.13	25103
823.27	25137
823.41	24890
823.55	24878
823.69	25019
823.83	25027
823.97	24901
824.11	24669
824.25	24829
824.389	24757
824.529	24825
824.669	24829
824.809	25000
824.949	24817
825.089	24848
825.228	24837
825.368	24795
825.508	24738
825.648	24654
825.787	24715
825.927	24582
826.067	24623
826.206	24627
826.346	24715
826.485	24798
826.625	24711
826.765	24787
826.904	24719
827.044	24426
827.183	24551
827.323	24327
827.462	24521
827.601	24334
827.741	24494
827.88	24391
828.02	24384
828.159	24414
828.298	24369
828.437	24566
828.577	24327
828.716	24467
828.855	24334
828.994	24060
829.134	24091
829.273	24243
829.412	24129
829.551	24015
829.69	24076
829.829	24125
829.968	24114
830.107	24155
830.246	24228
830.385	24129
830.524	24125
830.663	23878
830.802	23912
830.941	23760
831.08	23668
831.219	23863
831.357	23764
831.496	23965
831.635	23798
831.774	23699
831.913	23581
832.051	23516
832.19	23440
832.329	23497
832.467	23444
832.606	23463
832.744	23368
832.883	23364
833.022	23421
833.16	23440
833.299	23459
833.437	23478
833.576	23501
833.714	23349
833.852	23497
833.991	23642
834.129	23600
834.267	23444
834.406	23493
834.544	23604
834.682	23429
834.821	23535
834.959	23558
835.097	23311
835.235	23490
835.373	23535
835.511	23387
835.65	23353
835.788	23288
835.926	23162
836.064	23067
836.202	23227
836.34	23250
836.478	23376
836.615	23334
836.753	23250
836.891	23372
837.029	23239
837.167	23334
837.305	23181
837.443	23124
837.58	23090
837.718	23303
837.856	23181
837.993	23128
838.131	23128
838.269	23159
838.406	23113
838.544	23056
838.681	22908
838.819	22771
838.956	22683
839.094	22615
839.231	22755
839.369	22850
839.506	23067
839.643	22839
839.781	22599
839.918	22466
840.055	22615
840.193	22626
840.33	22451
840.467	22603
840.604	22577
840.742	22862
840.879	22440
841.016	22440
841.153	22489
841.29	22588
841.427	22516
841.564	22599
841.701	22622
841.838	22436
841.975	22493
842.112	22512
842.249	22462
842.385	22230
842.522	22615
842.659	22386
842.796	22367
842.933	22386
843.069	22204
843.206	22314
843.343	22413
843.479	22280
843.616	22382
843.752	22059
843.889	22131
844.025	22360
844.162	22025
844.298	22242
844.435	22139
844.571	21983
844.708	22196
844.844	22173
844.98	22249
845.117	22181
845.253	22101
845.389	22017
845.525	21926
845.661	21991
845.798	21819
845.934	21972
846.07	21899
846.206	21926
846.342	21941
846.478	21880
846.614	21568
846.75	21488
846.886	21595
847.022	21732
847.158	21644
847.294	21511
847.429	21610
847.565	21519
847.701	21835
847.837	21382
847.972	21260
848.108	21504
848.244	21488
848.379	21184
848.515	21298
848.65	21142
848.786	21218
848.921	21180
849.057	21321
849.192	21321
849.328	21249
849.463	21112
849.598	21272
849.734	21161
849.869	21047
850.004	20857
850.14	20982
850.275	20834
850.41	20971
850.545	20944
850.68	20857
850.815	20929
850.95	20960
851.085	21058
851.22	21089
851.355	20990
851.49	20902
851.625	20899
851.76	20933
851.895	20823
852.03	20838
852.165	20975
852.299	21024
852.434	21051
852.569	20967
852.703	20929
852.838	21009
852.973	21085
853.107	20963
853.242	20834
853.376	20815
853.511	20667
853.645	20731
853.78	20918
853.914	20910
854.048	20815
854.183	20746
854.317	20906
854.451	20990
854.585	20830
854.72	20804
854.854	20933
854.988	20796
855.122	20777
855.256	20644
855.39	20804
855.524	20967
855.658	20834
855.792	20883
855.926	20769
856.06	20868
856.194	20842
856.327	20758
856.461	20746
856.595	20819
856.729	20708
856.862	20899
856.996	20758
857.13	20807
857.263	20998
857.397	20925
857.53	20727
857.664	20735
857.797	20758
857.931	20895
858.064	20735
858.197	20971
858.331	20777
858.464	20811
858.597	20606
858.731	20781
858.864	20811
858.997	20807
859.13	20796
859.263	20800
859.396	20853
859.529	20697
859.662	20815
859.795	20777
859.928	20739
860.061	20891
860.194	21077
860.327	20830
860.46	20788
860.592	20952
860.725	20876
860.858	20876
860.99	20823
861.123	20670
861.256	20708
861.388	20857
861.521	21507
861.653	20674
861.786	20514
861.918	20663
862.05	20625
862.183	20781
862.315	20697
862.447	20902
862.58	20640
862.712	20469
862.844	20484
862.976	20670
863.108	20530
863.24	21001
863.372	20495
863.504	20507
863.636	20492
863.768	20530
863.9	20480
864.032	20389
864.164	20488
864.296	20522
864.428	20594
864.559	20499
864.691	20606
864.823	20629
864.954	20469
865.086	20583
865.217	20450
865.349	20389
865.48	20454
865.612	20484
865.743	20450
865.875	20400
866.006	20332
866.137	20461
866.269	20450
866.4	20423
866.531	20339
866.662	20320
866.793	20434
866.924	20259
867.055	20385
867.186	20374
867.317	20286
867.448	20252
867.579	20339
867.71	20317
867.841	20221
867.972	20362
868.103	20313
868.233	20434
868.364	20301
868.495	20465
868.625	20541
868.756	20762
868.886	20545
869.017	20507
869.147	20754
869.278	20754
869.408	20659
869.539	20594
869.669	20617
869.799	20686
869.929	20644
870.06	20590
870.19	20807
870.32	20807
870.45	20910
870.58	20925
870.71	21089
870.84	21043
870.97	20975
871.1	20979
871.23	21218
871.36	21116
871.489	21154
871.619	21195
871.749	21096
871.879	21283
872.008	21245
872.138	21180
872.267	21150
872.397	20971
872.526	20956
872.656	20994
872.785	21005
872.915	21199
873.044	21275
873.173	21279
873.303	21283
873.432	21222
873.561	21306
873.69	21275
873.819	21169
873.948	21272
874.077	21344
874.206	21287
874.335	21199
874.464	21252
874.593	21530
874.722	21310
874.851	21420
874.979	21591
875.108	21542
875.237	21431
875.365	21241
875.494	21450
875.623	21519
875.751	21485
875.88	21511
876.008	21545
876.136	21614
876.265	21823
876.393	21907
876.521	22006
876.65	21857
876.778	21804
876.906	21732
877.034	21812
877.162	21705
877.29	21892
877.418	21698
877.546	21880
877.674	21789
877.802	21827
877.93	21892
878.058	21793
878.185	21717
878.313	21770
878.441	21819
878.568	21739
878.696	21804
878.824	21732
878.951	21819
879.079	22002
879.206	22097
879.333	21964
879.461	21842
879.588	21991
879.715	21937
879.842	21968
879.97	21884
880.097	21679
880.224	21698
880.351	21637
880.478	21679
880.605	21580
880.732	21580
880.859	21888
880.986	21553
881.112	21534
881.239	21428
881.366	21386
881.493	21268
881.619	21230
881.746	21260
881.872	21195
881.999	21131
882.125	21157
882.252	21199
882.378	21313
882.505	21192
882.631	21131
882.757	20929
882.883	21017
883.01	20952
883.136	20868
883.262	20777
883.388	20716
883.514	20887
883.64	21013
883.766	20880
883.892	20701
884.018	20895
884.143	20994
884.269	20982
884.395	20560
884.52	20575
884.646	20617
884.772	20560
884.897	20473
885.023	20655
885.148	20621
885.274	20750
885.399	20754
885.524	20632
885.65	20552
885.775	20564
885.9	20549
886.025	20564
886.15	20682
886.275	20617
886.4	20305
886.525	20522
886.65	20393
886.775	20465
886.9	20716
887.025	20864
887.149	20511
887.274	20374
887.399	20419
887.523	20408
887.648	20278
887.773	20237
887.897	20385
888.021	20446
888.146	20282
888.27	20530
888.395	20336
888.519	20317
888.643	20305
888.767	20396
888.891	20229
889.015	20191
889.139	20103
889.263	20088
889.387	20229
889.511	20301
889.635	20210
889.759	20016
889.883	20062
890.006	20069
890.13	20202
890.254	20119
890.377	20069
890.501	20012
890.624	19860
890.748	19959
890.871	19868
890.995	19727
891.118	19571
891.241	19727
891.364	19651
891.488	19864
891.611	19765
891.734	19643
891.857	19799
891.98	19799
892.103	19791
892.226	19769
892.349	19651
892.471	19533
892.594	19548
892.717	19772
892.839	19609
892.962	19624
893.085	19738
893.207	19578
893.33	19495
893.452	19586
893.575	19616
893.697	19696
893.819	19677
893.941	19837
894.064	19814
894.186	19605
894.308	19620
894.43	19723
894.552	19765
894.674	19731
894.796	19582
894.918	19734
895.04	19605
895.161	19674
895.283	19715
895.405	19506
895.526	19681
895.648	19696
895.769	19635
895.891	19643
896.012	19784
896.134	19677
896.255	19544
896.376	19578
896.498	19662
896.619	19655
896.74	19556
896.861	19681
896.982	19902
897.103	20081
897.224	19967
897.345	19932
897.466	19860
897.587	19894
897.708	20005
897.828	19871
897.949	19944
898.07	19712
898.19	19845
898.311	19963
898.431	19803
898.552	19818
898.672	19982
898.792	19864
898.913	19864
899.033	19708
899.153	19712
899.273	19578
899.393	19677
899.513	19559
899.633	19666
899.753	19647
899.873	19529
899.993	19670
900.113	19575
900.232	19445
900.352	19563
900.472	19533
900.591	19483
900.711	19445
900.83	19327
900.95	19441
901.069	19483
901.189	19339
901.308	19061
901.427	18878
901.546	18966
901.665	19053
901.784	18897
901.904	18897
902.023	18776
902.141	18604
902.26	18467
902.379	18589
902.498	18498
902.617	18525
902.735	18612
902.854	18479
902.973	18369
903.091	18224
903.21	18190
903.328	18277
903.446	18045
903.565	17977
903.683	18045
903.801	17733
903.919	17901
904.038	17965
904.156	17775
904.274	17904
904.392	17813
904.51	17756
904.627	17786
904.745	17771
904.863	17802
904.981	17554
905.098	17497
905.216	17402
905.334	17509
905.451	17448
905.569	17414
905.686	17402
905.803	17440
905.921	17178
906.038	17212
906.155	17330
906.272	17102
906.389	17143
906.506	17003
906.623	16980
906.74	16873
906.857	16831
906.974	16942
907.091	17010
907.208	17067
907.324	17014
907.441	16862
907.557	16816
907.674	16793
907.79	16713
907.907	16725
908.023	16672
908.139	16710
908.256	16679
908.372	16599
908.488	16493
908.604	16592
908.72	16440
908.836	16424
908.952	16360
909.068	16493
909.184	16569
909.3	16402
909.415	16440
909.531	16432
909.647	16223
909.762	16131
909.878	16051
909.993	16188
910.108	16131
910.224	16017
910.339	16101
910.454	15960
910.57	15949
910.685	15926
910.8	16207
910.915	16139
911.03	15907
911.145	15838
911.259	15770
911.374	15709
911.489	15781
911.604	15629
911.718	15584
911.833	15553
911.947	15431
912.062	15367
912.176	15481
912.291	15545
912.405	15462
912.519	15686
912.633	15599
912.748	15610
912.862	15519
912.976	15306
913.09	15279
913.204	15252
913.318	15367
913.431	15374
913.545	15435
913.659	15386
913.772	15131
913.886	15131
914	15173
914.113	15222
914.226	15260
914.34	15165
914.453	15077
914.566	15176
914.68	15009
914.793	15039
914.906	14880
915.019	14777
915.132	14773
915.245	14762
915.358	14807
915.47	14769
915.583	14689
915.696	14857
915.809	14781
915.921	14891
916.034	14788
916.146	14556
916.259	14686
916.371	14796
916.483	14663
916.595	14560
916.708	14564
916.82	14606
916.932	14568
917.044	14537
917.156	14552
917.268	14396
917.38	14431
917.491	14537
917.603	14431
917.715	14530
917.826	14526
917.938	14434
918.049	14237
918.161	14343
918.272	14568
918.384	14530
918.495	14377
918.606	14168
918.717	14290
918.828	14271
918.939	14210
919.05	14073
919.161	14046
919.272	14031
919.383	14142
919.494	14221
919.604	14370
919.715	14092
919.826	14119
919.936	14069
920.047	14240
920.157	14130
920.267	14301
920.378	14145
920.488	14103
920.598	14320
920.708	14358
920.818	14324
920.928	14305
921.038	14396
921.148	14396
921.258	14096
921.368	13928
921.477	13875
921.587	13883
921.697	13731
921.806	13841
921.916	13708
922.025	13655
922.134	13563
922.244	13548
922.353	13540
922.462	13369
922.571	13320
922.68	13209
922.789	13350
922.898	13236
923.007	13076
923.116	13301
923.224	13202
923.333	13149
923.442	13042
923.55	13038
923.659	13053
923.767	13072
923.876	13000
923.984	13107
924.092	12935
924.201	12981
924.309	12993
924.417	12977
924.525	12878
924.633	12916
924.741	13784
924.849	12627
924.956	12749
925.064	12547
925.172	12540
925.279	12540
925.387	12639
925.494	12544
925.602	12722
925.709	12639
925.816	12490
925.924	12536
926.031	12681
926.138	12582
926.245	12631
926.352	12483
926.459	12673
926.566	12616
926.673	12486
926.779	12372
926.886	12448
926.993	12266
927.099	12163
927.206	12197
927.312	12186
927.419	12315
927.525	12175
927.631	12315
927.737	12110
927.843	12114
927.95	11878
928.056	12011
928.162	12038
928.267	12041
928.373	12521
928.479	11999
928.585	11828
928.69	12038
928.796	12030
928.901	11904
929.007	11771
929.112	11840
929.218	11817
929.323	11794
929.428	11710
929.533	11908
929.638	11741
929.743	11699
929.848	11794
929.953	11718
930.058	11649
930.163	11455
930.267	11478
930.372	11634
930.477	11341
930.581	11653
930.685	11608
930.79	11318
930.894	11326
930.998	11360
931.103	11467
931.207	11121
931.311	11014
931.415	11006
931.519	10672
931.623	10752
