Data from test_V78500241_1221.txt Node
Date: Fri Mar 25 15:18:21 CST 2022
User: usil
Spectrometer: V785-0024
Trigger mode: 0
Integration Time (sec): 4.000000E-1
Scans to average: 1
Nonlinearity correction enabled: false
Boxcar width: 0
Storing dark spectrum: false
XAxis mode: Wavelengths
Number of Pixels in Spectrum: 1024
>>>>>Begin Spectral Data<<<<<
801.071	28223
801.214	28032
801.356	27918
801.499	27888
801.641	27812
801.783	27717
801.926	27854
802.068	27838
802.211	27770
802.353	27709
802.496	27393
802.638	27344
802.78	27363
802.923	27462
803.065	27363
803.208	27351
803.35	27542
803.492	27660
803.635	27561
803.777	27561
803.919	27603
804.061	28101
804.204	27625
804.346	27652
804.488	27564
804.63	27526
804.773	27610
804.915	27679
805.057	27686
805.199	27679
805.341	27823
805.483	27876
805.626	27705
805.768	27785
805.91	27743
806.052	27759
806.194	27709
806.336	27953
806.478	27755
806.62	27869
806.762	27975
806.904	28181
807.046	28215
807.188	28192
807.33	28329
807.472	28200
807.614	28150
807.756	28169
807.898	28105
808.04	28078
808.182	28002
808.324	28109
808.465	28082
808.607	28303
808.749	28512
808.891	28603
809.033	28702
809.174	28546
809.316	28375
809.458	28459
809.6	28234
809.741	28546
809.883	28550
810.025	28752
810.166	28721
810.308	28694
810.45	28443
810.591	28641
810.733	28447
810.875	28451
811.016	28489
811.158	28238
811.299	28436
811.441	28542
811.582	28569
811.724	28318
811.865	28466
812.007	28489
812.148	28443
812.29	28421
812.431	28645
812.573	28767
812.714	28881
812.855	29018
812.997	29075
813.138	29124
813.279	29094
813.421	28984
813.562	29025
813.703	28812
813.845	28809
813.986	28516
814.127	28329
814.268	28169
814.41	28200
814.551	28040
814.692	28303
814.833	28109
814.974	28147
815.115	28124
815.256	27911
815.397	28048
815.539	28158
815.68	28002
815.821	27975
815.962	28090
816.103	27922
816.244	27895
816.385	27880
816.526	27941
816.666	27671
816.807	27408
816.948	27557
817.089	27507
817.23	27450
817.371	27477
817.512	27450
817.653	27526
817.793	27454
817.934	27572
818.075	27526
818.216	27504
818.356	27401
818.497	27336
818.638	27222
818.778	27146
818.919	27313
819.06	27287
819.2	27439
819.341	27511
819.481	27439
819.622	27648
819.762	27831
819.903	27770
820.043	27625
820.184	27603
820.324	27511
820.465	27614
820.605	27580
820.746	27572
820.886	27492
821.026	27644
821.167	27629
821.307	27720
821.447	27447
821.588	27325
821.728	27287
821.868	27180
822.008	26982
822.149	26975
822.289	26937
822.429	26697
822.569	26670
822.709	26545
822.849	26560
822.99	26579
823.13	26495
823.27	26385
823.41	26317
823.55	26081
823.69	26286
823.83	26328
823.97	26195
824.11	26202
824.25	26119
824.389	26172
824.529	26244
824.669	26168
824.809	26374
824.949	26199
825.089	26096
825.228	26134
825.368	26065
825.508	25986
825.648	26031
825.787	26145
825.927	26115
826.067	26027
826.206	25982
826.346	26100
826.485	26005
826.625	25974
826.765	26050
826.904	25982
827.044	25776
827.183	25795
827.323	25647
827.462	25677
827.601	25765
827.741	25746
827.88	25826
828.02	25658
828.159	25727
828.298	25708
828.437	25837
828.577	25715
828.716	25898
828.855	25590
828.994	25411
829.134	25438
829.273	25411
829.412	25270
829.551	25403
829.69	25460
829.829	25381
829.968	25434
830.107	25537
830.246	25415
830.385	25411
830.524	25327
830.663	25209
830.802	25263
830.941	25012
831.08	25000
831.219	25099
831.357	25107
831.496	25187
831.635	24992
831.774	24992
831.913	24962
832.051	24848
832.19	24802
832.329	24920
832.467	24734
832.606	24711
832.744	24696
832.883	24612
833.022	24604
833.16	24684
833.299	24753
833.437	24779
833.576	24871
833.714	24768
833.852	24882
833.991	24924
834.129	24867
834.267	24798
834.406	24749
834.544	24814
834.682	24894
834.821	24817
834.959	24909
835.097	24654
835.235	24802
835.373	24772
835.511	24791
835.65	24639
835.788	24642
835.926	24555
836.064	24456
836.202	24475
836.34	24631
836.478	24749
836.615	24620
836.753	24650
836.891	24661
837.029	24608
837.167	24593
837.305	24608
837.443	24551
837.58	24525
837.718	24471
837.856	24475
837.993	24445
838.131	24483
838.269	24486
838.406	24395
838.544	24205
838.681	24136
838.819	24106
838.956	23927
839.094	23893
839.231	23980
839.369	24095
839.506	24281
839.643	24178
839.781	24003
839.918	23935
840.055	23893
840.193	23893
840.33	23889
840.467	23809
840.604	23916
840.742	24155
840.879	23817
841.016	23866
841.153	23764
841.29	23840
841.427	23882
841.564	23878
841.701	23779
841.838	23737
841.975	23653
842.112	23710
842.249	23566
842.385	23638
842.522	23767
842.659	23680
842.796	23611
842.933	23539
843.069	23638
843.206	23497
843.343	23531
843.479	23611
843.616	23551
843.752	23315
843.889	23417
844.025	23463
844.162	23372
844.298	23509
844.435	23315
844.571	23254
844.708	23330
844.844	23539
844.98	23608
845.117	23410
845.253	23261
845.389	23136
845.525	23280
845.661	23273
845.798	23022
845.934	23159
846.07	23018
846.206	23132
846.342	23246
846.478	23090
846.614	22911
846.75	22831
846.886	22767
847.022	22915
847.158	22885
847.294	22911
847.429	22828
847.565	22904
847.701	23079
847.837	22580
847.972	22580
848.108	22569
848.244	22611
848.379	22523
848.515	22322
848.65	22348
848.786	22333
848.921	22329
849.057	22634
849.192	22596
849.328	22443
849.463	22440
849.598	22455
849.734	22360
849.869	22303
850.004	22162
850.14	22177
850.275	22188
850.41	22059
850.545	22143
850.68	22154
850.815	22268
850.95	22150
851.085	22314
851.22	22409
851.355	22177
851.49	22158
851.625	22139
851.76	22150
851.895	22143
852.03	22181
852.165	22226
852.299	22268
852.434	22261
852.569	22211
852.703	22295
852.838	22192
852.973	22322
853.107	22299
853.242	22055
853.376	22044
853.511	21888
853.645	21846
853.78	22211
853.914	22059
854.048	21956
854.183	21880
854.317	22017
854.451	22169
854.585	21975
854.72	22013
854.854	22112
854.988	21903
855.122	21922
855.256	21873
855.39	22036
855.524	22090
855.658	21926
855.792	22059
855.926	22177
856.06	22116
856.194	22090
856.327	22010
856.461	21915
856.595	21964
856.729	22055
856.862	22093
856.996	21949
857.13	22150
857.263	22109
857.397	22097
857.53	22105
857.664	22051
857.797	22040
857.931	22166
858.064	22086
858.197	22162
858.331	21979
858.464	21892
858.597	21930
858.731	21964
858.864	21975
858.997	21991
859.13	22067
859.263	21975
859.396	22196
859.529	21956
859.662	21926
859.795	21991
859.928	21953
860.061	22013
860.194	22284
860.327	22044
860.46	21968
860.592	22207
860.725	22238
860.858	22166
860.99	21949
861.123	21888
861.256	21975
861.388	21956
861.521	22877
861.653	21831
861.786	21812
861.918	21816
862.05	21888
862.183	21804
862.315	21865
862.447	22025
862.58	21816
862.712	21823
862.844	21743
862.976	21800
863.108	21660
863.24	22017
863.372	21625
863.504	21622
863.636	21614
863.768	21644
863.9	21648
864.032	21698
864.164	21705
864.296	21876
864.428	21800
864.559	21823
864.691	21720
864.823	21705
864.954	21648
865.086	21595
865.217	21591
865.349	21485
865.48	21675
865.612	21564
865.743	21652
865.875	21545
866.006	21530
866.137	21507
866.269	21568
866.4	21667
866.531	21477
866.662	21504
866.793	21462
866.924	21466
867.055	21492
867.186	21424
867.317	21492
867.448	21469
867.579	21481
867.71	21370
867.841	21405
867.972	21477
868.103	21329
868.233	21496
868.364	21530
868.495	21583
868.625	21701
868.756	21804
868.886	21679
869.017	21610
869.147	21941
869.278	21911
869.408	21873
869.539	21755
869.669	21709
869.799	21701
869.929	21785
870.06	21888
870.19	21972
870.32	22025
870.45	22086
870.58	22131
870.71	22284
870.84	22246
870.97	22086
871.1	22200
871.23	22341
871.36	22390
871.489	22101
871.619	22394
871.749	22325
871.879	22409
872.008	22462
872.138	22242
872.267	22287
872.397	22154
872.526	22143
872.656	22147
872.785	22162
872.915	22440
873.044	22322
873.173	22329
873.303	22379
873.432	22424
873.561	22542
873.69	22421
873.819	22306
873.948	22493
874.077	22322
874.206	22314
874.335	22421
874.464	22379
874.593	22615
874.722	22561
874.851	22649
874.979	22504
875.108	22584
875.237	22527
875.365	22371
875.494	22519
875.623	22569
875.751	22550
875.88	22557
876.008	22694
876.136	22790
876.265	23018
876.393	23079
876.521	23018
876.65	23037
876.778	23003
876.906	22877
877.034	22850
877.162	23048
877.29	22896
877.418	22923
877.546	22885
877.674	22968
877.802	22938
877.93	23003
878.058	22923
878.185	22809
878.313	22911
878.441	22828
878.568	22752
878.696	22778
878.824	22961
878.951	23048
879.079	23136
879.206	23216
879.333	23044
879.461	23079
879.588	22896
879.715	23140
879.842	23208
879.97	23006
880.097	22763
880.224	22691
880.351	22706
880.478	22675
880.605	22618
880.732	22828
880.859	22968
880.986	22721
881.112	22736
881.239	22561
881.366	22489
881.493	22341
881.619	22265
881.746	22310
881.872	22242
881.999	22306
882.125	22272
882.252	22337
882.378	22314
882.505	22299
882.631	22135
882.757	22063
882.883	22162
883.01	22040
883.136	22055
883.262	21846
883.388	21861
883.514	21964
883.64	22040
883.766	21994
883.892	21846
884.018	21827
884.143	21945
884.269	22070
884.395	21705
884.52	21694
884.646	21652
884.772	21557
884.897	21538
885.023	21504
885.148	21698
885.274	21690
885.399	21755
885.524	21724
885.65	21705
885.775	21633
885.9	21679
886.025	21736
886.15	21667
886.275	21637
886.4	21603
886.525	21564
886.65	21534
886.775	21424
886.9	21713
887.025	21789
887.149	21606
887.274	21507
887.399	21420
887.523	21405
887.648	21252
887.773	21252
887.897	21420
888.021	21367
888.146	21370
888.27	21526
888.395	21443
888.519	21462
888.643	21435
888.767	21393
888.891	21325
889.015	21332
889.139	21321
889.263	21184
889.387	21348
889.511	21367
889.635	21389
889.759	21211
889.883	21222
890.006	21188
890.13	21211
890.254	21203
890.377	21032
890.501	20967
890.624	20902
890.748	20933
890.871	20716
890.995	20769
891.118	20781
891.241	20785
891.364	20693
891.488	20838
891.611	20727
891.734	20819
891.857	20849
891.98	20773
892.103	20746
892.226	20708
892.349	20583
892.471	20552
892.594	20640
892.717	20697
892.839	20518
892.962	20659
893.085	20731
893.207	20651
893.33	20629
893.452	20556
893.575	20785
893.697	20720
893.819	20754
893.941	20819
894.064	20689
894.186	20617
894.308	20526
894.43	20823
894.552	20845
894.674	20651
894.796	20446
894.918	20598
895.04	20533
895.161	20674
895.283	20636
895.405	20583
895.526	20667
895.648	20602
895.769	20693
895.891	20674
896.012	20648
896.134	20689
896.255	20575
896.376	20659
896.498	20602
896.619	20609
896.74	20659
896.861	20762
896.982	20910
897.103	21100
897.224	20838
897.345	20845
897.466	20739
897.587	20834
897.708	20864
897.828	20807
897.949	20731
898.07	20526
898.19	20785
898.311	20906
898.431	20743
898.552	20891
898.672	20807
898.792	20845
898.913	20758
899.033	20842
899.153	20602
899.273	20488
899.393	20613
899.513	20663
899.633	20537
899.753	20587
899.873	20560
899.993	20655
900.113	20564
900.232	20560
900.352	20457
900.472	20332
900.591	20377
900.711	20286
900.83	20339
900.95	20358
901.069	20374
901.189	20320
901.308	20031
901.427	19955
901.546	19841
901.665	19932
901.784	19970
901.904	19738
902.023	19662
902.141	19495
902.26	19480
902.379	19438
902.498	19411
902.617	19434
902.735	19403
902.854	19468
902.973	19358
903.091	19080
903.21	19168
903.328	19012
903.446	19053
903.565	18924
903.683	18852
903.801	18722
903.919	18886
904.038	18871
904.156	18703
904.274	18688
904.392	18547
904.51	18608
904.627	18597
904.745	18696
904.863	18642
904.981	18467
905.098	18361
905.216	18384
905.334	18391
905.451	18437
905.569	18350
905.686	18304
905.803	18228
905.921	18098
906.038	18167
906.155	18098
906.272	18041
906.389	17996
906.506	17939
906.623	17942
906.74	17828
906.857	17737
906.974	17752
907.091	17866
907.208	17942
907.324	17885
907.441	17821
907.557	17684
907.674	17611
907.79	17657
907.907	17452
908.023	17562
908.139	17657
908.256	17543
908.372	17406
908.488	17486
908.604	17353
908.72	17083
908.836	17322
908.952	17246
909.068	17231
909.184	17372
909.3	17254
909.415	17334
909.531	17311
909.647	17025
909.762	16991
909.878	17018
909.993	16934
910.108	16980
910.224	16938
910.339	16915
910.454	16900
910.57	16744
910.685	16755
910.8	16927
910.915	16942
911.03	16889
911.145	16584
911.259	16584
911.374	16565
911.489	16561
911.604	16531
911.718	16230
911.833	16299
911.947	16272
912.062	16105
912.176	16280
912.291	16230
912.405	16207
912.519	16470
912.633	16546
912.748	16382
912.862	16249
912.976	16185
913.09	16044
913.204	16112
913.318	16086
913.431	16238
913.545	16147
913.659	16265
913.772	15953
913.886	15949
914	15991
914.113	16029
914.226	15991
914.34	16082
914.453	15895
914.566	16055
914.68	15804
914.793	15728
914.906	15584
915.019	15572
915.132	15504
915.245	15443
915.358	15504
915.47	15576
915.583	15542
915.696	15466
915.809	15648
915.921	15675
916.034	15477
916.146	15408
916.259	15389
916.371	15515
916.483	15397
916.595	15294
916.708	15226
916.82	15405
916.932	15294
917.044	15272
917.156	15256
917.268	15195
917.38	15188
917.491	15195
917.603	15112
917.715	15252
917.826	15214
917.938	15093
918.049	15013
918.161	15180
918.272	15138
918.384	15268
918.495	15146
918.606	14960
918.717	14918
918.828	14956
918.939	14918
919.05	14785
919.161	14853
919.272	14644
919.383	14735
919.494	14864
919.604	15146
919.715	14937
919.826	14800
919.936	14929
920.047	14941
920.157	14834
920.267	15077
920.378	14864
920.488	14804
920.598	15028
920.708	15104
920.818	15009
920.928	15005
921.038	15100
921.148	15055
921.258	14781
921.368	14743
921.477	14606
921.587	14632
921.697	14518
921.806	14583
921.916	14358
922.025	14271
922.134	14263
922.244	14164
922.353	14278
922.462	14020
922.571	14024
922.68	13890
922.789	13906
922.898	13849
923.007	13791
923.116	13803
923.224	13826
923.333	13864
923.442	13765
923.55	13689
923.659	13719
923.767	13791
923.876	13609
923.984	13689
924.092	13559
924.201	13521
924.309	13643
924.417	13643
924.525	13544
924.633	13559
924.741	14263
924.849	13381
924.956	13396
925.064	13346
925.172	13194
925.279	13289
925.387	13225
925.494	13228
925.602	13365
925.709	13316
925.816	13213
925.924	13251
926.031	13384
926.138	13171
926.245	13236
926.352	13050
926.459	13217
926.566	13270
926.673	13122
926.779	13012
926.886	12970
926.993	12722
927.099	12787
927.206	12795
927.312	12738
927.419	12859
927.525	12814
927.631	12810
927.737	12688
927.843	12612
927.95	12585
928.056	12551
928.162	12646
928.267	12665
928.373	13297
928.479	12741
928.585	12517
928.69	12547
928.796	12639
928.901	12414
929.007	12300
929.112	12486
929.218	12437
929.323	12304
929.428	12281
929.533	12475
929.638	12277
929.743	12292
929.848	12262
929.953	12296
930.058	12163
930.163	12064
930.267	12083
930.372	12155
930.477	11984
930.581	12194
930.685	12038
930.79	11851
930.894	11973
930.998	11878
931.103	12034
931.207	11676
931.311	11570
931.415	11505
931.519	11288
931.623	11296
