Data from test_V78500241_1195.txt Node
Date: Fri Mar 25 15:18:10 CST 2022
User: usil
Spectrometer: V785-0024
Trigger mode: 0
Integration Time (sec): 4.000000E-1
Scans to average: 1
Nonlinearity correction enabled: false
Boxcar width: 0
Storing dark spectrum: false
XAxis mode: Wavelengths
Number of Pixels in Spectrum: 1024
>>>>>Begin Spectral Data<<<<<
801.071	28306
801.214	28059
801.356	27701
801.499	27637
801.641	27587
801.783	27591
801.926	27713
802.068	27625
802.211	27545
802.353	27599
802.496	27435
802.638	27313
802.78	27226
802.923	27199
803.065	27142
803.208	27214
803.35	27321
803.492	27458
803.635	27599
803.777	27310
803.919	27557
804.061	27838
804.204	27485
804.346	27313
804.488	27279
804.63	27477
804.773	27351
804.915	27469
805.057	27557
805.199	27416
805.341	27564
805.483	27629
805.626	27545
805.768	27427
805.91	27568
806.052	27595
806.194	27648
806.336	27781
806.478	27724
806.62	27667
806.762	27774
806.904	27895
807.046	28128
807.188	28124
807.33	28090
807.472	28215
807.614	27937
807.756	27991
807.898	27994
808.04	27949
808.182	27808
808.324	27884
808.465	27972
808.607	28128
808.749	28363
808.891	28451
809.033	28386
809.174	28466
809.316	28284
809.458	28169
809.6	28348
809.741	28390
809.883	28500
810.025	28504
810.166	28481
810.308	28523
810.45	28478
810.591	28436
810.733	28398
810.875	28405
811.016	28139
811.158	28196
811.299	28371
811.441	28459
811.582	28462
811.724	28166
811.865	28211
812.007	28219
812.148	28421
812.29	28344
812.431	28546
812.573	28672
812.714	28702
812.855	28767
812.997	28885
813.138	28934
813.279	28881
813.421	28782
813.562	28782
813.703	28656
813.845	28500
813.986	28299
814.127	28109
814.268	27998
814.41	28040
814.551	27926
814.692	27956
814.833	27831
814.974	27941
815.115	28002
815.256	27831
815.397	27972
815.539	27838
815.68	27644
815.821	27652
815.962	27831
816.103	27884
816.244	27789
816.385	27728
816.526	27458
816.666	27412
816.807	27218
816.948	27367
817.089	27450
817.23	27382
817.371	27325
817.512	27161
817.653	27329
817.793	27184
817.934	27207
818.075	27408
818.216	27272
818.356	27313
818.497	27070
818.638	27017
818.778	26975
818.919	27058
819.06	27173
819.2	27173
819.341	27370
819.481	27272
819.622	27260
819.762	27587
819.903	27496
820.043	27466
820.184	27370
820.324	27355
820.465	27473
820.605	27359
820.746	27222
820.886	27268
821.026	27321
821.167	27359
821.307	27488
821.447	27344
821.588	27272
821.728	27104
821.868	26807
822.008	26739
822.149	26834
822.289	26640
822.429	26427
822.569	26385
822.709	26355
822.849	26248
822.99	26328
823.13	26332
823.27	26142
823.41	26077
823.55	26020
823.69	26062
823.83	26161
823.97	26065
824.11	25898
824.25	25921
824.389	25989
824.529	25986
824.669	25898
824.809	26122
824.949	25974
825.089	26062
825.228	25974
825.368	25883
825.508	25791
825.648	25791
825.787	25864
825.927	25833
826.067	25757
826.206	25818
826.346	25860
826.485	25750
826.625	25780
826.765	25921
826.904	25947
827.044	25567
827.183	25620
827.323	25415
827.462	25567
827.601	25559
827.741	25434
827.88	25594
828.02	25384
828.159	25651
828.298	25727
828.437	25499
828.577	25491
828.716	25540
828.855	25479
828.994	25152
829.134	25293
829.273	25266
829.412	25168
829.551	25171
829.69	25266
829.829	25297
829.968	25365
830.107	25244
830.246	25236
830.385	25179
830.524	25129
830.663	25072
830.802	24943
830.941	24825
831.08	24947
831.219	24909
831.357	24973
831.496	25050
831.635	24966
831.774	24684
831.913	24829
832.051	24700
832.19	24665
832.329	24848
832.467	24589
832.606	24441
832.744	24441
832.883	24490
833.022	24418
833.16	24521
833.299	24505
833.437	24528
833.576	24547
833.714	24589
833.852	24700
833.991	24753
834.129	24612
834.267	24677
834.406	24593
834.544	24623
834.682	24570
834.821	24627
834.959	24734
835.097	24505
835.235	24715
835.373	24559
835.511	24570
835.65	24452
835.788	24414
835.926	24380
836.064	24224
836.202	24350
836.34	24486
836.478	24494
836.615	24334
836.753	24456
836.891	24486
837.029	24414
837.167	24357
837.305	24456
837.443	24251
837.58	24235
837.718	24403
837.856	24270
837.993	24247
838.131	24201
838.269	24171
838.406	24224
838.544	24041
838.681	23893
838.819	23889
838.956	23714
839.094	23771
839.231	23916
839.369	23954
839.506	24197
839.643	23965
839.781	23729
839.918	23596
840.055	23699
840.193	23813
840.33	23539
840.467	23729
840.604	23611
840.742	23889
840.879	23429
841.016	23668
841.153	23444
841.29	23783
841.427	23577
841.564	23714
841.701	23657
841.838	23630
841.975	23459
842.112	23482
842.249	23478
842.385	23383
842.522	23638
842.659	23539
842.796	23341
842.933	23391
843.069	23455
843.206	23414
843.343	23433
843.479	23379
843.616	23433
843.752	23109
843.889	23185
844.025	23429
844.162	23223
844.298	23277
844.435	23200
844.571	23208
844.708	23299
844.844	23417
844.98	23326
845.117	23200
845.253	22991
845.389	23079
845.525	23136
845.661	22972
845.798	22850
845.934	22946
846.07	22957
846.206	22915
846.342	23006
846.478	22835
846.614	22790
846.75	22584
846.886	22653
847.022	22645
847.158	22664
847.294	22706
847.429	22755
847.565	22546
847.701	22805
847.837	22398
847.972	22447
848.108	22550
848.244	22455
848.379	22291
848.515	22166
848.65	22284
848.786	22253
848.921	22291
849.057	22337
849.192	22333
849.328	22215
849.463	22166
849.598	22276
849.734	22101
849.869	22093
850.004	22013
850.14	22116
850.275	22116
850.41	21854
850.545	21975
850.68	21994
850.815	22135
850.95	22101
851.085	22158
851.22	22147
851.355	22124
851.49	21972
851.625	22032
851.76	21998
851.895	21983
852.03	21907
852.165	21987
852.299	22051
852.434	22105
852.569	22097
852.703	21968
852.838	22040
852.973	22280
853.107	22051
853.242	21979
853.376	21960
853.511	21766
853.645	21869
853.78	21941
853.914	21934
854.048	21903
854.183	21827
854.317	21876
854.451	22078
854.585	21838
854.72	21903
854.854	22002
854.988	21739
855.122	21865
855.256	21675
855.39	21880
855.524	21930
855.658	21918
855.792	21895
855.926	21964
856.06	21785
856.194	21941
856.327	21812
856.461	21671
856.595	21766
856.729	21800
856.862	22124
856.996	21979
857.13	21949
857.263	21899
857.397	22017
857.53	21762
857.664	21899
857.797	21907
857.931	21888
858.064	21895
858.197	21956
858.331	21793
858.464	21816
858.597	21865
858.731	21781
858.864	21835
858.997	21827
859.13	21842
859.263	21873
859.396	21915
859.529	21720
859.662	21831
859.795	21785
859.928	21850
860.061	22002
860.194	22109
860.327	21911
860.46	21937
860.592	21911
860.725	21991
860.858	22082
860.99	21781
861.123	21808
861.256	21816
861.388	21831
861.521	22706
861.653	21557
861.786	21682
861.918	21717
862.05	21663
862.183	21808
862.315	21876
862.447	21724
862.58	21785
862.712	21511
862.844	21633
862.976	21610
863.108	21648
863.24	21915
863.372	21515
863.504	21568
863.636	21618
863.768	21618
863.9	21519
864.032	21504
864.164	21515
864.296	21633
864.428	21781
864.559	21583
864.691	21606
864.823	21545
864.954	21408
865.086	21572
865.217	21450
865.349	21359
865.48	21408
865.612	21370
865.743	21709
865.875	21439
866.006	21355
866.137	21412
866.269	21302
866.4	21447
866.531	21348
866.662	21233
866.793	21325
866.924	21272
867.055	21344
867.186	21245
867.317	21458
867.448	21237
867.579	21374
867.71	21268
867.841	21222
867.972	21367
868.103	21428
868.233	21389
868.364	21279
868.495	21462
868.625	21485
868.756	21603
868.886	21443
869.017	21519
869.147	21766
869.278	21797
869.408	21705
869.539	21553
869.669	21739
869.799	21682
869.929	21816
870.06	21720
870.19	21915
870.32	21934
870.45	22036
870.58	21983
870.71	21991
870.84	21983
870.97	22116
871.1	22010
871.23	22131
871.36	22169
871.489	22109
871.619	22158
871.749	22166
871.879	22074
872.008	22242
872.138	22192
872.267	22207
872.397	22048
872.526	22040
872.656	22101
872.785	22002
872.915	22230
873.044	22375
873.173	22211
873.303	22147
873.432	22299
873.561	22303
873.69	22253
873.819	22329
873.948	22325
874.077	22284
874.206	22204
874.335	22147
874.464	22318
874.593	22493
874.722	22299
874.851	22542
874.979	22527
875.108	22618
875.237	22310
875.365	22459
875.494	22428
875.623	22497
875.751	22474
875.88	22516
876.008	22626
876.136	22675
876.265	22778
876.393	23075
876.521	22786
876.65	22850
876.778	22915
876.906	22668
877.034	22740
877.162	22778
877.29	22767
877.418	22782
877.546	22774
877.674	22820
877.802	22847
877.93	22858
878.058	22698
878.185	22713
878.313	22736
878.441	22710
878.568	22577
878.696	22607
878.824	22904
878.951	22862
879.079	22995
879.206	23006
879.333	22938
879.461	22812
879.588	22919
879.715	22984
879.842	22980
879.97	22786
880.097	22554
880.224	22577
880.351	22561
880.478	22618
880.605	22512
880.732	22554
880.859	22812
880.986	22542
881.112	22607
881.239	22390
881.366	22272
881.493	22352
881.619	22196
881.746	22196
881.872	22177
881.999	22196
882.125	22192
882.252	22215
882.378	22200
882.505	22234
882.631	21926
882.757	21873
882.883	22025
883.01	21854
883.136	21850
883.262	21724
883.388	21656
883.514	21838
883.64	21899
883.766	21698
883.892	21595
884.018	21667
884.143	21793
884.269	21861
884.395	21679
884.52	21545
884.646	21549
884.772	21519
884.897	21363
885.023	21481
885.148	21595
885.274	21606
885.399	21523
885.524	21405
885.65	21447
885.775	21389
885.9	21526
886.025	21701
886.15	21637
886.275	21439
886.4	21466
886.525	21332
886.65	21447
886.775	21389
886.9	21618
887.025	21671
887.149	21405
887.274	21291
887.399	21260
887.523	21222
887.648	21241
887.773	21230
887.897	21325
888.021	21256
888.146	21188
888.27	21317
888.395	21329
888.519	21268
888.643	21294
888.767	21241
888.891	21237
889.015	21070
889.139	21074
889.263	21005
889.387	21062
889.511	21230
889.635	21135
889.759	21047
889.883	21009
890.006	21066
890.13	21093
890.254	20975
890.377	20971
890.501	20807
890.624	20834
890.748	20819
890.871	20750
890.995	20678
891.118	20731
891.241	20636
891.364	20590
891.488	20678
891.611	20632
891.734	20754
891.857	20712
891.98	20571
892.103	20644
892.226	20621
892.349	20655
892.471	20415
892.594	20400
892.717	20541
892.839	20480
892.962	20484
893.085	20560
893.207	20530
893.33	20469
893.452	20343
893.575	20575
893.697	20507
893.819	20701
893.941	20804
894.064	20587
894.186	20423
894.308	20465
894.43	20526
894.552	20640
894.674	20629
894.796	20366
894.918	20511
895.04	20427
895.161	20629
895.283	20507
895.405	20469
895.526	20446
895.648	20484
895.769	20560
895.891	20476
896.012	20613
896.134	20552
896.255	20571
896.376	20396
896.498	20480
896.619	20476
896.74	20522
896.861	20499
896.982	20716
897.103	20941
897.224	20758
897.345	20712
897.466	20648
897.587	20724
897.708	20853
897.828	20579
897.949	20609
898.07	20644
898.19	20735
898.311	20720
898.431	20693
898.552	20579
898.672	20739
898.792	20785
898.913	20758
899.033	20575
899.153	20473
899.273	20415
899.393	20400
899.513	20667
899.633	20389
899.753	20415
899.873	20317
899.993	20309
900.113	20355
900.232	20480
900.352	20381
900.472	20290
900.591	20161
900.711	20271
900.83	20081
900.95	20298
901.069	20286
901.189	20077
901.308	19898
901.427	19746
901.546	19799
901.665	19803
901.784	19772
901.904	19655
902.023	19491
902.141	19438
902.26	19388
902.379	19381
902.498	19373
902.617	19198
902.735	19346
902.854	19365
902.973	19240
903.091	19069
903.21	18996
903.328	18993
903.446	18920
903.565	18776
903.683	18825
903.801	18661
903.919	18635
904.038	18726
904.156	18544
904.274	18517
904.392	18445
904.51	18536
904.627	18528
904.745	18551
904.863	18513
904.981	18311
905.098	18148
905.216	18228
905.334	18167
905.451	18144
905.569	18220
905.686	18247
905.803	18254
905.921	17954
906.038	18110
906.155	18034
906.272	17912
906.389	17958
906.506	17737
906.623	17760
906.74	17684
906.857	17577
906.974	17687
907.091	17767
907.208	18038
907.324	17729
907.441	17646
907.557	17395
907.674	17398
907.79	17417
907.907	17425
908.023	17414
908.139	17467
908.256	17410
908.372	17299
908.488	17265
908.604	17284
908.72	17178
908.836	17185
908.952	17041
909.068	17212
909.184	17208
909.3	17189
909.415	17143
909.531	17212
909.647	16949
909.762	16892
909.878	16904
909.993	16885
910.108	17006
910.224	16774
910.339	16869
910.454	16729
910.57	16687
910.685	16603
910.8	16908
910.915	16805
911.03	16649
911.145	16561
911.259	16424
911.374	16405
911.489	16432
911.604	16265
911.718	16196
911.833	16207
911.947	16044
912.062	16074
912.176	16257
912.291	16211
912.405	16188
912.519	16417
912.633	16276
912.748	16211
912.862	16299
912.976	16051
913.09	15850
913.204	15994
913.318	16006
913.431	16120
913.545	16109
913.659	16200
913.772	15968
913.886	15937
914	15789
914.113	15869
914.226	16010
914.34	15797
914.453	15663
914.566	15804
914.68	15686
914.793	15656
914.906	15454
915.019	15458
915.132	15329
915.245	15359
915.358	15386
915.47	15393
915.583	15370
915.696	15370
915.809	15519
915.921	15564
916.034	15359
916.146	15363
916.259	15393
916.371	15367
916.483	15378
916.595	15287
916.708	15207
916.82	15245
916.932	15138
917.044	15176
917.156	15116
917.268	15161
917.38	15097
917.491	15005
917.603	15089
917.715	15157
917.826	15169
917.938	14929
918.049	14963
918.161	14990
918.272	15089
918.384	15150
918.495	15108
918.606	14853
918.717	14735
918.828	14834
918.939	14887
919.05	14636
919.161	14826
919.272	14621
919.383	14701
919.494	14853
919.604	14982
919.715	14746
919.826	14716
919.936	14781
920.047	14826
920.157	14670
920.267	14967
920.378	14800
920.488	14689
920.598	14975
920.708	15077
920.818	14842
920.928	14842
921.038	14975
921.148	15020
921.258	14678
921.368	14659
921.477	14469
921.587	14442
921.697	14385
921.806	14511
921.916	14278
922.025	14142
922.134	14157
922.244	14084
922.353	14210
922.462	14016
922.571	13913
922.68	13822
922.789	13723
922.898	13856
923.007	13681
923.116	13788
923.224	13826
923.333	13750
923.442	13670
923.55	13575
923.659	13559
923.767	13757
923.876	13518
923.984	13628
924.092	13487
924.201	13628
924.309	13499
924.417	13464
924.525	13453
924.633	13502
924.741	14180
924.849	13187
924.956	13373
925.064	13282
925.172	13103
925.279	13187
925.387	13179
925.494	13027
925.602	13308
925.709	13236
925.816	13088
925.924	13069
926.031	13232
926.138	13069
926.245	13198
926.352	13057
926.459	13110
926.566	13171
926.673	13031
926.779	12958
926.886	12890
926.993	12730
927.099	12688
927.206	12696
927.312	12662
927.419	12814
927.525	12749
927.631	12741
927.737	12627
927.843	12608
927.95	12475
928.056	12593
928.162	12570
928.267	12547
928.373	13107
928.479	12620
928.585	12350
928.69	12486
928.796	12490
928.901	12365
929.007	12224
929.112	12418
929.218	12422
929.323	12308
929.428	12224
929.533	12361
929.638	12213
929.743	12205
929.848	12327
929.953	12201
930.058	12171
930.163	11901
930.267	12053
930.372	11996
930.477	11984
930.581	12220
930.685	12034
930.79	11859
930.894	11870
930.998	11783
931.103	12038
931.207	11585
931.311	11512
931.415	11421
931.519	11185
931.623	11151
