Data from test_V78500241_773.txt Node
Date: Fri Mar 25 15:15:14 CST 2022
User: usil
Spectrometer: V785-0024
Trigger mode: 0
Integration Time (sec): 4.000000E-1
Scans to average: 1
Nonlinearity correction enabled: false
Boxcar width: 0
Storing dark spectrum: false
XAxis mode: Wavelengths
Number of Pixels in Spectrum: 1024
>>>>>Begin Spectral Data<<<<<
801.071	28223
801.214	28147
801.356	27888
801.499	28051
801.641	27743
801.783	27869
801.926	27739
802.068	27724
802.211	27641
802.353	27545
802.496	27386
802.638	27443
802.78	27553
802.923	27405
803.065	27325
803.208	27355
803.35	27435
803.492	27427
803.635	27576
803.777	27473
803.919	27500
804.061	27831
804.204	27686
804.346	27492
804.488	27424
804.63	27603
804.773	27583
804.915	27488
805.057	27671
805.199	27545
805.341	27736
805.483	27766
805.626	27701
805.768	27663
805.91	27523
806.052	27808
806.194	27671
806.336	27953
806.478	27842
806.62	27781
806.762	27903
806.904	27934
807.046	28192
807.188	28147
807.33	28158
807.472	28150
807.614	28158
807.756	28097
807.898	27926
808.04	28021
808.182	28029
808.324	28051
808.465	27968
808.607	28230
808.749	28485
808.891	28413
809.033	28554
809.174	28603
809.316	28352
809.458	28546
809.6	28299
809.741	28645
809.883	28622
810.025	28672
810.166	28782
810.308	28668
810.45	28687
810.591	28615
810.733	28344
810.875	28375
811.016	28322
811.158	28413
811.299	28394
811.441	28649
811.582	28523
811.724	28360
811.865	28394
812.007	28375
812.148	28322
812.29	28569
812.431	28656
812.573	28706
812.714	28774
812.855	29025
812.997	29128
813.138	29292
813.279	29117
813.421	29128
813.562	28987
813.703	28649
813.845	28710
813.986	28363
814.127	28265
814.268	28234
814.41	28253
814.551	28139
814.692	28188
814.833	28093
814.974	27949
815.115	28124
815.256	28116
815.397	28029
815.539	28074
815.68	28051
815.821	27968
815.962	27934
816.103	27930
816.244	27770
816.385	27709
816.526	27724
816.666	27625
816.807	27348
816.948	27485
817.089	27599
817.23	27473
817.371	27435
817.512	27298
817.653	27310
817.793	27504
817.934	27378
818.075	27462
818.216	27382
818.356	27321
818.497	27272
818.638	27169
818.778	27264
818.919	27180
819.06	27226
819.2	27412
819.341	27420
819.481	27447
819.622	27690
819.762	27682
819.903	27652
820.043	27606
820.184	27462
820.324	27534
820.465	27625
820.605	27507
820.746	27572
820.886	27439
821.026	27610
821.167	27568
821.307	27576
821.447	27447
821.588	27401
821.728	27188
821.868	27104
822.008	26994
822.149	26990
822.289	26853
822.429	26667
822.569	26659
822.709	26579
822.849	26495
822.99	26370
823.13	26385
823.27	26419
823.41	26187
823.55	26050
823.69	26259
823.83	26263
823.97	26176
824.11	26138
824.25	26016
824.389	25955
824.529	26130
824.669	26210
824.809	26240
824.949	26210
825.089	26073
825.228	26096
825.368	26020
825.508	26043
825.648	25970
825.787	25974
825.927	26050
826.067	25982
826.206	25875
826.346	25986
826.485	25986
826.625	25830
826.765	26100
826.904	25982
827.044	25700
827.183	25696
827.323	25590
827.462	25563
827.601	25552
827.741	25559
827.88	25632
828.02	25567
828.159	25639
828.298	25674
828.437	25734
828.577	25674
828.716	25723
828.855	25594
828.994	25514
829.134	25415
829.273	25453
829.412	25419
829.551	25240
829.69	25362
829.829	25339
829.968	25400
830.107	25419
830.246	25381
830.385	25350
830.524	25228
830.663	25034
830.802	25145
830.941	24867
831.08	24943
831.219	25103
831.357	25057
831.496	25297
831.635	25000
831.774	24859
831.913	24806
832.051	24688
832.19	24711
832.329	24719
832.467	24688
832.606	24616
832.744	24620
832.883	24627
833.022	24665
833.16	24525
833.299	24677
833.437	24692
833.576	24833
833.714	24669
833.852	24901
833.991	24878
834.129	24798
834.267	24760
834.406	24673
834.544	24646
834.682	24779
834.821	24654
834.959	24913
835.097	24574
835.235	24776
835.373	24639
835.511	24642
835.65	24509
835.788	24486
835.926	24490
836.064	24410
836.202	24460
836.34	24604
836.478	24749
836.615	24551
836.753	24593
836.891	24525
837.029	24547
837.167	24452
837.305	24471
837.443	24410
837.58	24384
837.718	24509
837.856	24445
837.993	24403
838.131	24216
838.269	24152
838.406	24228
838.544	24095
838.681	24057
838.819	24007
838.956	23927
839.094	23790
839.231	23901
839.369	24045
839.506	24216
839.643	24079
839.781	23840
839.918	23779
840.055	23821
840.193	23809
840.33	23703
840.467	23733
840.604	23821
840.742	23878
840.879	23554
841.016	23551
841.153	23543
841.29	23821
841.427	23714
841.564	23748
841.701	23718
841.838	23608
841.975	23547
842.112	23604
842.249	23482
842.385	23554
842.522	23707
842.659	23471
842.796	23509
842.933	23486
843.069	23356
843.206	23459
843.343	23573
843.479	23627
843.616	23471
843.752	23197
843.889	23204
844.025	23482
844.162	23261
844.298	23364
844.435	23231
844.571	23071
844.708	23307
844.844	23425
844.98	23330
845.117	23379
845.253	23269
845.389	23174
845.525	22999
845.661	23147
845.798	23037
845.934	23083
846.07	22984
846.206	23029
846.342	23075
846.478	22900
846.614	22915
846.75	22694
846.886	22721
847.022	22850
847.158	22771
847.294	22858
847.429	22797
847.565	22634
847.701	22991
847.837	22634
847.972	22436
848.108	22451
848.244	22573
848.379	22424
848.515	22249
848.65	22443
848.786	22417
848.921	22398
849.057	22367
849.192	22508
849.328	22371
849.463	22310
849.598	22287
849.734	22295
849.869	22147
850.004	22070
850.14	22158
850.275	22154
850.41	21873
850.545	22082
850.68	22017
850.815	22169
850.95	22055
851.085	22173
851.22	22147
851.355	21964
851.49	22070
851.625	21949
851.76	21956
851.895	22029
852.03	22051
852.165	22032
852.299	22147
852.434	22112
852.569	22078
852.703	22040
852.838	22093
852.973	22234
853.107	22082
853.242	22090
853.376	21884
853.511	21911
853.645	21835
853.78	21998
853.914	21953
854.048	21915
854.183	21907
854.317	22002
854.451	22162
854.585	22051
854.72	21876
854.854	21892
854.988	21869
855.122	21937
855.256	21686
855.39	21789
855.524	21876
855.658	21983
855.792	21876
855.926	21854
856.06	21930
856.194	21964
856.327	22006
856.461	21800
856.595	21797
856.729	21838
856.862	22010
856.996	22017
857.13	21994
857.263	22017
857.397	21884
857.53	22013
857.664	21915
857.797	22063
857.931	22078
858.064	21861
858.197	21991
858.331	21789
858.464	21808
858.597	21793
858.731	21880
858.864	21838
858.997	21781
859.13	21857
859.263	21835
859.396	21987
859.529	21865
859.662	21930
859.795	21880
859.928	21949
860.061	22063
860.194	22048
860.327	21972
860.46	21937
860.592	21922
860.725	22086
860.858	22093
860.99	22044
861.123	21724
861.256	21797
861.388	21975
861.521	22542
861.653	21762
861.786	21713
861.918	21823
862.05	21732
862.183	21831
862.315	21865
862.447	21953
862.58	21895
862.712	21606
862.844	21477
862.976	21587
863.108	21660
863.24	22086
863.372	21580
863.504	21625
863.636	21599
863.768	21610
863.9	21568
864.032	21439
864.164	21458
864.296	21553
864.428	21648
864.559	21671
864.691	21816
864.823	21606
864.954	21583
865.086	21587
865.217	21466
865.349	21401
865.48	21469
865.612	21496
865.743	21538
865.875	21485
866.006	21462
866.137	21572
866.269	21405
866.4	21454
866.531	21534
866.662	21488
866.793	21424
866.924	21492
867.055	21492
867.186	21382
867.317	21401
867.448	21351
867.579	21340
867.71	21359
867.841	21264
867.972	21386
868.103	21389
868.233	21431
868.364	21454
868.495	21538
868.625	21595
868.756	21724
868.886	21507
869.017	21568
869.147	21789
869.278	21736
869.408	21614
869.539	21701
869.669	21728
869.799	21717
869.929	21819
870.06	21774
870.19	21907
870.32	21949
870.45	22063
870.58	22112
870.71	22032
870.84	22162
870.97	21991
871.1	22051
871.23	22329
871.36	22109
871.489	22154
871.619	22226
871.749	22135
871.879	22192
872.008	22390
872.138	22329
872.267	22295
872.397	22120
872.526	22040
872.656	22101
872.785	22036
872.915	22356
873.044	22394
873.173	22238
873.303	22306
873.432	22242
873.561	22459
873.69	22329
873.819	22234
873.948	22337
874.077	22276
874.206	22154
874.335	22314
874.464	22367
874.593	22421
874.722	22402
874.851	22531
874.979	22436
875.108	22508
875.237	22402
875.365	22379
875.494	22455
875.623	22497
875.751	22462
875.88	22493
876.008	22569
876.136	22630
876.265	22774
876.393	22923
876.521	23022
876.65	23041
876.778	22755
876.906	22843
877.034	22854
877.162	22793
877.29	22755
877.418	22748
877.546	22927
877.674	22744
877.802	22755
877.93	22755
878.058	22763
878.185	22729
878.313	22809
878.441	22854
878.568	22694
878.696	22691
878.824	22733
878.951	22885
879.079	22965
879.206	23162
879.333	22968
879.461	22839
879.588	22927
879.715	22915
879.842	23018
879.97	22733
880.097	22721
880.224	22710
880.351	22691
880.478	22660
880.605	22622
880.732	22668
880.859	22877
880.986	22573
881.112	22683
881.239	22474
881.366	22249
881.493	22322
881.619	22242
881.746	22188
881.872	22291
881.999	22284
882.125	22192
882.252	22204
882.378	22116
882.505	22295
882.631	22070
882.757	21922
882.883	21930
883.01	21926
883.136	21808
883.262	21846
883.388	21583
883.514	21892
883.64	21922
883.766	21907
883.892	21637
884.018	21686
884.143	21812
884.269	21888
884.395	21583
884.52	21561
884.646	21519
884.772	21412
884.897	21637
885.023	21515
885.148	21618
885.274	21728
885.399	21682
885.524	21519
885.65	21583
885.775	21561
885.9	21473
886.025	21622
886.15	21553
886.275	21481
886.4	21359
886.525	21534
886.65	21443
886.775	21473
886.9	21603
887.025	21778
887.149	21530
887.274	21332
887.399	21370
887.523	21329
887.648	21241
887.773	21165
887.897	21340
888.021	21291
888.146	21184
888.27	21340
888.395	21386
888.519	21306
888.643	21287
888.767	21264
888.891	21203
889.015	21119
889.139	21081
889.263	21017
889.387	21161
889.511	21188
889.635	21184
889.759	21138
889.883	20986
890.006	21100
890.13	21230
890.254	21036
890.377	21024
890.501	20845
890.624	20682
890.748	20838
890.871	20727
890.995	20606
891.118	20651
891.241	20667
891.364	20625
891.488	20762
891.611	20693
891.734	20651
891.857	20712
891.98	20667
892.103	20590
892.226	20731
892.349	20522
892.471	20412
892.594	20533
892.717	20655
892.839	20541
892.962	20560
893.085	20617
893.207	20545
893.33	20438
893.452	20404
893.575	20632
893.697	20549
893.819	20594
893.941	20754
894.064	20712
894.186	20579
894.308	20507
894.43	20659
894.552	20686
894.674	20644
894.796	20396
894.918	20514
895.04	20457
895.161	20556
895.283	20568
895.405	20396
895.526	20609
895.648	20480
895.769	20552
895.891	20648
896.012	20571
896.134	20579
896.255	20617
896.376	20518
896.498	20552
896.619	20602
896.74	20598
896.861	20678
896.982	20941
897.103	20982
897.224	20750
897.345	20868
897.466	20720
897.587	20667
897.708	20830
897.828	20708
897.949	20689
898.07	20594
898.19	20659
898.311	20716
898.431	20632
898.552	20830
898.672	20720
898.792	20724
898.913	20872
899.033	20575
899.153	20537
899.273	20396
899.393	20503
899.513	20473
899.633	20476
899.753	20492
899.873	20507
899.993	20526
900.113	20377
900.232	20343
900.352	20381
900.472	20347
900.591	20225
900.711	20377
900.83	20218
900.95	20366
901.069	20278
901.189	20290
901.308	19963
901.427	19799
901.546	19833
901.665	19852
901.784	19845
901.904	19715
902.023	19613
902.141	19403
902.26	19365
902.379	19434
902.498	19324
902.617	19297
902.735	19449
902.854	19324
902.973	19202
903.091	18973
903.21	19072
903.328	19076
903.446	18951
903.565	18802
903.683	18840
903.801	18783
903.919	18863
904.038	18715
904.156	18582
904.274	18681
904.392	18574
904.51	18589
904.627	18547
904.745	18612
904.863	18639
904.981	18426
905.098	18228
905.216	18186
905.334	18216
905.451	18194
905.569	18163
905.686	18273
905.803	18163
905.921	17999
906.038	18125
906.155	18064
906.272	17958
906.389	17980
906.506	17809
906.623	17817
906.74	17676
906.857	17737
906.974	17676
907.091	17786
907.208	17885
907.324	17809
907.441	17707
907.557	17539
907.674	17440
907.79	17383
907.907	17497
908.023	17543
908.139	17448
908.256	17395
908.372	17364
908.488	17353
908.604	17288
908.72	17113
908.836	17235
908.952	17075
909.068	17162
909.184	17284
909.3	17178
909.415	17208
909.531	17220
909.647	16915
909.762	16968
909.878	16900
909.993	16862
910.108	16919
910.224	16805
910.339	16892
910.454	16759
910.57	16592
910.685	16580
910.8	16892
910.915	16862
911.03	16637
911.145	16561
911.259	16398
911.374	16481
911.489	16417
911.604	16371
911.718	16299
911.833	16253
911.947	16139
912.062	16109
912.176	16215
912.291	16242
912.405	16246
912.519	16390
912.633	16493
912.748	16314
912.862	16223
912.976	15968
913.09	16040
913.204	16105
913.318	16055
913.431	16181
913.545	16109
913.659	16135
913.772	16097
913.886	15895
914	15819
914.113	15842
914.226	16025
914.34	15838
914.453	15751
914.566	15854
914.68	15732
914.793	15641
914.906	15443
915.019	15473
915.132	15329
915.245	15397
915.358	15519
915.47	15439
915.583	15481
915.696	15447
915.809	15561
915.921	15591
916.034	15401
916.146	15310
916.259	15294
916.371	15329
916.483	15268
916.595	15351
916.708	15389
916.82	15252
916.932	15138
917.044	15218
917.156	15207
917.268	15123
917.38	15043
917.491	15100
917.603	15123
917.715	15127
917.826	15317
917.938	14982
918.049	14937
918.161	15039
918.272	15146
918.384	15058
918.495	14967
918.606	15005
918.717	14876
918.828	14883
918.939	14823
919.05	14746
919.161	14819
919.272	14629
919.383	14640
919.494	14838
919.604	14941
919.715	14895
919.826	14655
919.936	14727
920.047	14914
920.157	14895
920.267	14986
920.378	14838
920.488	14823
920.598	14937
920.708	15176
920.818	14918
920.928	14937
921.038	15081
921.148	15066
921.258	14758
921.368	14610
921.477	14507
921.587	14461
921.697	14408
921.806	14579
921.916	14415
922.025	14267
922.134	14202
922.244	14183
922.353	14153
922.462	14096
922.571	13963
922.68	13826
922.789	13742
922.898	13803
923.007	13704
923.116	13776
923.224	13803
923.333	13799
923.442	13628
923.55	13586
923.659	13563
923.767	13696
923.876	13655
923.984	13651
924.092	13544
924.201	13518
924.309	13525
924.417	13582
924.525	13407
924.633	13514
924.741	14145
924.849	13335
924.956	13434
925.064	13209
925.172	13209
925.279	13206
925.387	13213
925.494	13072
925.602	13362
925.709	13266
925.816	13145
925.924	13164
926.031	13129
926.138	13187
926.245	13206
926.352	13042
926.459	13282
926.566	13202
926.673	13110
926.779	13019
926.886	12935
926.993	12787
927.099	12802
927.206	12673
927.312	12696
927.419	12833
927.525	12642
927.631	12768
927.737	12547
927.843	12673
927.95	12490
928.056	12627
928.162	12616
928.267	12566
928.373	13149
928.479	12620
928.585	12433
928.69	12536
928.796	12570
928.901	12441
929.007	12292
929.112	12498
929.218	12372
929.323	12251
929.428	12247
929.533	12464
929.638	12163
929.743	12232
929.848	12311
929.953	12178
930.058	12182
930.163	12022
930.267	12057
930.372	12110
930.477	11973
930.581	12102
930.685	12038
930.79	11843
930.894	11916
930.998	11897
931.103	11977
931.207	11627
931.311	11543
931.415	11490
931.519	11170
931.623	11330
