Data from test_V78500241_351.txt Node
Date: Fri Mar 25 15:12:18 CST 2022
User: usil
Spectrometer: V785-0024
Trigger mode: 0
Integration Time (sec): 4.000000E-1
Scans to average: 1
Nonlinearity correction enabled: false
Boxcar width: 0
Storing dark spectrum: false
XAxis mode: Wavelengths
Number of Pixels in Spectrum: 1024
>>>>>Begin Spectral Data<<<<<
801.071	27085
801.214	26944
801.356	26876
801.499	26792
801.641	26663
801.783	26636
801.926	26689
802.068	26541
802.211	26465
802.353	26636
802.496	26396
802.638	26282
802.78	26126
802.923	26180
803.065	26240
803.208	26138
803.35	26259
803.492	26301
803.635	26408
803.777	26256
803.919	26400
804.061	26708
804.204	26400
804.346	26347
804.488	26374
804.63	26275
804.773	26298
804.915	26313
805.057	26541
805.199	26374
805.341	26427
805.483	26469
805.626	26252
805.768	26370
805.91	26533
806.052	26556
806.194	26488
806.336	26651
806.478	26442
806.62	26457
806.762	26537
806.904	26731
807.046	26921
807.188	26868
807.33	26826
807.472	26944
807.614	26876
807.756	26792
807.898	26625
808.04	26644
808.182	26716
808.324	26575
808.465	26754
808.607	26891
808.749	27009
808.891	27112
809.033	27302
809.174	27077
809.316	27154
809.458	27058
809.6	27074
809.741	27173
809.883	27188
810.025	27332
810.166	27382
810.308	27321
810.45	27260
810.591	27268
810.733	27017
810.875	27093
811.016	26918
811.158	26842
811.299	27089
811.441	27192
811.582	27119
811.724	26963
811.865	27055
812.007	27047
812.148	27074
812.29	27131
812.431	27142
812.573	27378
812.714	27485
812.855	27561
812.997	27564
813.138	27679
813.279	27698
813.421	27606
813.562	27427
813.703	27435
813.845	27351
813.986	27005
814.127	26895
814.268	26746
814.41	26769
814.551	26697
814.692	26861
814.833	26644
814.974	26674
815.115	26549
815.256	26621
815.397	26549
815.539	26609
815.68	26339
815.821	26389
815.962	26533
816.103	26568
816.244	26453
816.385	26237
816.526	26286
816.666	25993
816.807	26012
816.948	26054
817.089	26126
817.23	26050
817.371	26027
817.512	26065
817.653	25959
817.793	25845
817.934	25947
818.075	25963
818.216	26020
818.356	25963
818.497	25879
818.638	25578
818.778	25727
818.919	25761
819.06	25765
819.2	25799
819.341	25887
819.481	25822
819.622	25959
819.762	26172
819.903	26191
820.043	26187
820.184	26145
820.324	26119
820.465	26107
820.605	26111
820.746	26103
820.886	25944
821.026	26027
821.167	26073
821.307	26111
821.447	26027
821.588	25955
821.728	25814
821.868	25563
822.008	25453
822.149	25365
822.289	25358
822.429	25057
822.569	25137
822.709	25156
822.849	25076
822.99	24871
823.13	25019
823.27	24924
823.41	24814
823.55	24597
823.69	24719
823.83	24844
823.97	24692
824.11	24593
824.25	24566
824.389	24612
824.529	24639
824.669	24566
824.809	24753
824.949	24555
825.089	24620
825.228	24703
825.368	24502
825.508	24372
825.648	24319
825.787	24544
825.927	24563
826.067	24452
826.206	24448
826.346	24490
826.485	24582
826.625	24350
826.765	24536
826.904	24490
827.044	24346
827.183	24178
827.323	24106
827.462	24068
827.601	24213
827.741	24133
827.88	24110
828.02	24011
828.159	24053
828.298	24152
828.437	24228
828.577	24053
828.716	24289
828.855	24098
828.994	23874
829.134	23767
829.273	23942
829.412	23745
829.551	23760
829.69	23931
829.829	23920
829.968	23912
830.107	23893
830.246	23802
830.385	23866
830.524	23748
830.663	23665
830.802	23619
830.941	23516
831.08	23410
831.219	23543
831.357	23570
831.496	23573
831.635	23551
831.774	23589
831.913	23417
832.051	23258
832.19	23284
832.329	23280
832.467	23094
832.606	23212
832.744	23102
832.883	23193
833.022	23140
833.16	23181
833.299	23364
833.437	23181
833.576	23277
833.714	23349
833.852	23265
833.991	23258
834.129	23280
834.267	23349
834.406	23254
834.544	23402
834.682	23223
834.821	23113
834.959	23269
835.097	23318
835.235	23273
835.373	23185
835.511	23246
835.65	23136
835.788	23067
835.926	22938
836.064	22869
836.202	22984
836.34	23102
836.478	23231
836.615	22961
836.753	23124
836.891	23208
837.029	23079
837.167	23056
837.305	22991
837.443	22896
837.58	23025
837.718	22987
837.856	23006
837.993	22911
838.131	22965
838.269	22847
838.406	22927
838.544	22805
838.681	22706
838.819	22538
838.956	22466
839.094	22379
839.231	22557
839.369	22641
839.506	22839
839.643	22634
839.781	22417
839.918	22322
840.055	22424
840.193	22356
840.33	22402
840.467	22261
840.604	22356
840.742	22527
840.879	22265
841.016	22226
841.153	22238
841.29	22398
841.427	22447
841.564	22440
841.701	22337
841.838	22470
841.975	22333
842.112	22177
842.249	22120
842.385	22200
842.522	22268
842.659	22128
842.796	22166
842.933	22261
843.069	22002
843.206	22048
843.343	22154
843.479	22139
843.616	22101
843.752	21895
843.889	21903
844.025	21983
844.162	21903
844.298	22006
844.435	21956
844.571	21869
844.708	22002
844.844	22070
844.98	22112
845.117	21941
845.253	21873
845.389	21842
845.525	21770
845.661	21816
845.798	21641
845.934	21774
846.07	21564
846.206	21679
846.342	21713
846.478	21701
846.614	21428
846.75	21412
846.886	21389
847.022	21507
847.158	21397
847.294	21397
847.429	21500
847.565	21325
847.701	21545
847.837	21032
847.972	21039
848.108	21199
848.244	21161
848.379	20948
848.515	20921
848.65	20887
848.786	20899
848.921	21051
849.057	21047
849.192	21085
849.328	21055
849.463	20967
849.598	20899
849.734	20963
849.869	20746
850.004	20587
850.14	20701
850.275	20758
850.41	20629
850.545	20648
850.68	20663
850.815	20830
850.95	20765
851.085	20895
851.22	20880
851.355	20769
851.49	20705
851.625	20758
851.76	20674
851.895	20640
852.03	20678
852.165	20697
852.299	20739
852.434	20712
852.569	20663
852.703	20663
852.838	20682
852.973	20876
853.107	20788
853.242	20716
853.376	20587
853.511	20454
853.645	20670
853.78	20640
853.914	20495
854.048	20530
854.183	20617
854.317	20598
854.451	20625
854.585	20541
854.72	20571
854.854	20621
854.988	20507
855.122	20511
855.256	20503
855.39	20602
855.524	20655
855.658	20708
855.792	20609
855.926	20617
856.06	20556
856.194	20609
856.327	20609
856.461	20499
856.595	20480
856.729	20537
856.862	20724
856.996	20579
857.13	20545
857.263	20686
857.397	20697
857.53	20587
857.664	20503
857.797	20556
857.931	20640
858.064	20598
858.197	20754
858.331	20674
858.464	20396
858.597	20476
858.731	20480
858.864	20454
858.997	20545
859.13	20606
859.263	20571
859.396	20454
859.529	20530
859.662	20434
859.795	20568
859.928	20530
860.061	20815
860.194	20746
860.327	20678
860.46	20473
860.592	20765
860.725	20785
860.858	20648
860.99	20476
861.123	20503
861.256	20461
861.388	20507
861.521	21142
861.653	20347
861.786	20317
861.918	20434
862.05	20431
862.183	20473
862.315	20495
862.447	20511
862.58	20408
862.712	20244
862.844	20290
862.976	20385
863.108	20427
863.24	20788
863.372	20259
863.504	20282
863.636	20275
863.768	20385
863.9	20362
864.032	20229
864.164	20225
864.296	20339
864.428	20385
864.559	20339
864.691	20465
864.823	20351
864.954	20351
865.086	20248
865.217	20202
865.349	20069
865.48	20134
865.612	20286
865.743	20214
865.875	20332
866.006	20149
866.137	20313
866.269	20191
866.4	20149
866.531	20176
866.662	20069
866.793	20069
866.924	20145
867.055	20286
867.186	20119
867.317	20088
867.448	19986
867.579	20062
867.71	20142
867.841	20058
867.972	20168
868.103	20145
868.233	20107
868.364	20107
868.495	20225
868.625	20355
868.756	20404
868.886	20332
869.017	20362
869.147	20571
869.278	20465
869.408	20423
869.539	20343
869.669	20415
869.799	20396
869.929	20602
870.06	20469
870.19	20701
870.32	20670
870.45	20758
870.58	20796
870.71	20853
870.84	20963
870.97	20815
871.1	20743
871.23	20910
871.36	20937
871.489	20895
871.619	20887
871.749	21013
871.879	21032
872.008	21085
872.138	20998
872.267	20918
872.397	20849
872.526	20781
872.656	20804
872.785	20708
872.915	20845
873.044	21089
873.173	21055
873.303	21009
873.432	21070
873.561	21032
873.69	21058
873.819	21093
873.948	21077
874.077	20982
874.206	20956
874.335	20902
874.464	21146
874.593	21283
874.722	21332
874.851	21321
874.979	21199
875.108	21313
875.237	21264
875.365	21123
875.494	21226
875.623	21252
875.751	21184
875.88	21279
876.008	21473
876.136	21507
876.265	21675
876.393	21766
876.521	21667
876.65	21679
876.778	21587
876.906	21644
877.034	21603
877.162	21576
877.29	21507
877.418	21637
877.546	21587
877.674	21519
877.802	21492
877.93	21633
878.058	21572
878.185	21435
878.313	21667
878.441	21515
878.568	21458
878.696	21496
878.824	21492
878.951	21629
879.079	21770
879.206	21827
879.333	21743
879.461	21496
879.588	21667
879.715	21804
879.842	21835
879.97	21709
880.097	21359
880.224	21408
880.351	21431
880.478	21496
880.605	21367
880.732	21367
880.859	21724
880.986	21370
881.112	21367
881.239	21272
881.366	21100
881.493	21024
881.619	21020
881.746	21051
881.872	21013
881.999	21013
882.125	21009
882.252	20990
882.378	21135
882.505	21154
882.631	20720
882.757	20689
882.883	20781
883.01	20777
883.136	20689
883.262	20590
883.388	20621
883.514	20712
883.64	20834
883.766	20621
883.892	20503
884.018	20549
884.143	20735
884.269	20701
884.395	20454
884.52	20374
884.646	20450
884.772	20343
884.897	20244
885.023	20343
885.148	20438
885.274	20389
885.399	20423
885.524	20324
885.65	20282
885.775	20389
885.9	20404
886.025	20396
886.15	20366
886.275	20305
886.4	20278
886.525	20313
886.65	20214
886.775	20324
886.9	20503
887.025	20541
887.149	20366
887.274	20199
887.399	20145
887.523	20161
887.648	20153
887.773	20043
887.897	20149
888.021	20256
888.146	20050
888.27	20267
888.395	20259
888.519	20210
888.643	20164
888.767	20176
888.891	20134
889.015	19932
889.139	19906
889.263	19936
889.387	20043
889.511	20252
889.635	20012
889.759	19769
889.883	19944
890.006	19978
890.13	20024
890.254	19890
890.377	19807
890.501	19689
890.624	19772
890.748	19757
890.871	19666
890.995	19620
891.118	19335
891.241	19525
891.364	19525
891.488	19681
891.611	19582
891.734	19563
891.857	19597
891.98	19384
892.103	19559
892.226	19480
892.349	19563
892.471	19320
892.594	19480
892.717	19422
892.839	19346
892.962	19480
893.085	19510
893.207	19350
893.33	19320
893.452	19282
893.575	19571
893.697	19388
893.819	19620
893.941	19540
894.064	19533
894.186	19384
894.308	19457
894.43	19559
894.552	19624
894.674	19548
894.796	19362
894.918	19392
895.04	19563
895.161	19502
895.283	19422
895.405	19381
895.526	19400
895.648	19377
895.769	19502
895.891	19453
896.012	19506
896.134	19582
896.255	19556
896.376	19449
896.498	19369
896.619	19518
896.74	19472
896.861	19537
896.982	19788
897.103	19928
897.224	19712
897.345	19693
897.466	19674
897.587	19616
897.708	19780
897.828	19780
897.949	19567
898.07	19643
898.19	19552
898.311	19769
898.431	19613
898.552	19582
898.672	19765
898.792	19875
898.913	19666
899.033	19552
899.153	19563
899.273	19358
899.393	19407
899.513	19438
899.633	19396
899.753	19464
899.873	19396
899.993	19514
900.113	19327
900.232	19445
900.352	19324
900.472	19244
900.591	19228
900.711	19198
900.83	19160
900.95	19263
901.069	19247
901.189	19175
901.308	18920
901.427	18856
901.546	18760
901.665	18779
901.784	18852
901.904	18745
902.023	18623
902.141	18486
902.26	18323
902.379	18410
902.498	18292
902.617	18232
902.735	18224
902.854	18205
902.973	18285
903.091	18159
903.21	17897
903.328	17950
903.446	17961
903.565	17783
903.683	17790
903.801	17741
903.919	17767
904.038	17710
904.156	17672
904.274	17615
904.392	17490
904.51	17562
904.627	17474
904.745	17619
904.863	17668
904.981	17444
905.098	17216
905.216	17303
905.334	17414
905.451	17402
905.569	17288
905.686	17212
905.803	17360
905.921	17048
906.038	17212
906.155	17124
906.272	16938
906.389	16999
906.506	16763
906.623	16793
906.74	16831
906.857	16645
906.974	16805
907.091	16877
907.208	16930
907.324	16858
907.441	16736
907.557	16626
907.674	16428
907.79	16459
907.907	16512
908.023	16573
908.139	16546
908.256	16558
908.372	16478
908.488	16402
908.604	16261
908.72	16158
908.836	16280
908.952	16207
909.068	16284
909.184	16443
909.3	16196
909.415	16303
909.531	16249
909.647	16044
909.762	15994
909.878	15922
909.993	15956
910.108	15869
910.224	15934
910.339	15884
910.454	15778
910.57	15838
910.685	15705
910.8	16010
910.915	15850
911.03	15762
911.145	15576
911.259	15584
911.374	15622
911.489	15534
911.604	15412
911.718	15382
911.833	15435
911.947	15180
912.062	15184
912.176	15370
912.291	15241
912.405	15329
912.519	15408
912.633	15492
912.748	15291
912.862	15325
912.976	15127
913.09	14990
913.204	15093
913.318	15108
913.431	15169
913.545	15264
913.659	15268
913.772	15039
913.886	14948
914	14933
914.113	15051
914.226	15154
914.34	15058
914.453	14918
914.566	14967
914.68	14796
914.793	14815
914.906	14701
915.019	14545
915.132	14522
915.245	14583
915.358	14434
915.47	14526
915.583	14602
915.696	14678
915.809	14621
915.921	14777
916.034	14480
916.146	14461
916.259	14514
916.371	14530
916.483	14461
916.595	14381
916.708	14446
916.82	14366
916.932	14339
917.044	14355
917.156	14385
917.268	14286
917.38	14259
917.491	14267
917.603	14187
917.715	14244
917.826	14343
917.938	14157
918.049	14062
918.161	14119
918.272	14362
918.384	14355
918.495	14164
918.606	14031
918.717	13986
918.828	14115
918.939	14043
919.05	13894
919.161	14024
919.272	13799
919.383	13898
919.494	14039
919.604	14210
919.715	13986
919.826	13902
919.936	13940
920.047	13986
920.157	13963
920.267	14096
920.378	14081
920.488	13982
920.598	14202
920.708	14301
920.818	14103
920.928	14088
921.038	14282
921.148	14225
921.258	13868
921.368	13799
921.477	13674
921.587	13753
921.697	13662
921.806	13772
921.916	13525
922.025	13381
922.134	13415
922.244	13400
922.353	13430
922.462	13285
922.571	13244
922.68	13095
922.789	12951
922.898	13042
923.007	13046
923.116	13034
923.224	12996
923.333	13061
923.442	12909
923.55	12939
923.659	12905
923.767	12856
923.876	12890
923.984	12894
924.092	12806
924.201	12837
924.309	12776
924.417	12764
924.525	12772
924.633	12654
924.741	13377
924.849	12551
924.956	12681
925.064	12582
925.172	12456
925.279	12486
925.387	12525
925.494	12547
925.602	12620
925.709	12490
925.816	12410
925.924	12384
926.031	12502
926.138	12464
926.245	12464
926.352	12285
926.459	12460
926.566	12570
926.673	12380
926.779	12171
926.886	12197
926.993	12133
927.099	12060
927.206	12019
927.312	11992
927.419	12022
927.525	12083
927.631	12038
927.737	11935
927.843	11912
927.95	11821
928.056	11954
928.162	11927
928.267	11931
928.373	12547
928.479	11969
928.585	11813
928.69	11935
928.796	11958
928.901	11874
929.007	11608
929.112	11802
929.218	11771
929.323	11661
929.428	11642
929.533	11809
929.638	11532
929.743	11627
929.848	11657
929.953	11627
930.058	11383
930.163	11318
930.267	11345
930.372	11520
930.477	11376
930.581	11474
930.685	11379
930.79	11307
930.894	11239
930.998	11166
931.103	11307
931.207	10972
931.311	10984
931.415	10896
931.519	10637
931.623	10645
