Data from test_V78500241_2555.txt Node
Date: Fri Mar 25 15:27:39 CST 2022
User: usil
Spectrometer: V785-0024
Trigger mode: 0
Integration Time (sec): 4.000000E-1
Scans to average: 1
Nonlinearity correction enabled: false
Boxcar width: 0
Storing dark spectrum: false
XAxis mode: Wavelengths
Number of Pixels in Spectrum: 1024
>>>>>Begin Spectral Data<<<<<
801.071	27291
801.214	27207
801.356	27138
801.499	26960
801.641	26815
801.783	26826
801.926	26735
802.068	26910
802.211	26826
802.353	26659
802.496	26457
802.638	26385
802.78	26511
802.923	26427
803.065	26351
803.208	26415
803.35	26431
803.492	26609
803.635	26659
803.777	26522
803.919	26480
804.061	26952
804.204	26556
804.346	26602
804.488	26484
804.63	26701
804.773	26602
804.915	26583
805.057	26739
805.199	26606
805.341	26727
805.483	26739
805.626	26659
805.768	26625
805.91	26746
806.052	26800
806.194	26663
806.336	26739
806.478	26750
806.62	26617
806.762	26933
806.904	27051
807.046	27291
807.188	27146
807.33	27378
807.472	27180
807.614	26998
807.756	27237
807.898	27047
808.04	26895
808.182	27077
808.324	27104
808.465	27146
808.607	27306
808.749	27226
808.891	27279
809.033	27431
809.174	27469
809.316	27199
809.458	27313
809.6	27211
809.741	27431
809.883	27321
810.025	27553
810.166	27618
810.308	27637
810.45	27515
810.591	27519
810.733	27519
810.875	27325
811.016	27180
811.158	27119
811.299	27431
811.441	27568
811.582	27538
811.724	27336
811.865	27344
812.007	27119
812.148	27256
812.29	27348
812.431	27420
812.573	27587
812.714	27690
812.855	27808
812.997	27892
813.138	28044
813.279	27979
813.421	27793
813.562	27728
813.703	27625
813.845	27542
813.986	27203
814.127	27150
814.268	27093
814.41	27077
814.551	26986
814.692	27173
814.833	27017
814.974	26933
815.115	27074
815.256	26925
815.397	27070
815.539	26918
815.68	26960
815.821	26716
815.962	26792
816.103	26735
816.244	26621
816.385	26579
816.526	26522
816.666	26461
816.807	26122
816.948	26320
817.089	26438
817.23	26381
817.371	26317
817.512	26278
817.653	26199
817.793	26126
817.934	26309
818.075	26263
818.216	26256
818.356	26214
818.497	25963
818.638	25997
818.778	26103
818.919	26122
819.06	26157
819.2	26130
819.341	26240
819.481	26134
819.622	26385
819.762	26431
819.903	26629
820.043	26400
820.184	26415
820.324	26495
820.465	26431
820.605	26374
820.746	26381
820.886	26259
821.026	26374
821.167	26366
821.307	26427
821.447	26161
821.588	26103
821.728	25993
821.868	25944
822.008	25662
822.149	25700
822.289	25769
822.429	25438
822.569	25403
822.709	25407
822.849	25282
822.99	25114
823.13	25293
823.27	25209
823.41	25160
823.55	24989
823.69	25015
823.83	24973
823.97	25008
824.11	24916
824.25	24837
824.389	24958
824.529	24939
824.669	24764
824.809	25061
824.949	24947
825.089	24905
825.228	24996
825.368	24814
825.508	24764
825.648	24635
825.787	24798
825.927	24806
826.067	24601
826.206	24502
826.346	24749
826.485	24779
826.625	24817
826.765	24772
826.904	24852
827.044	24604
827.183	24582
827.323	24410
827.462	24585
827.601	24513
827.741	24494
827.88	24467
828.02	24308
828.159	24388
828.298	24555
828.437	24532
828.577	24422
828.716	24536
828.855	24372
828.994	24110
829.134	24205
829.273	24178
829.412	24140
829.551	24072
829.69	24144
829.829	24015
829.968	24144
830.107	24174
830.246	24144
830.385	23999
830.524	24163
830.663	23931
830.802	24007
830.941	23824
831.08	23657
831.219	23813
831.357	23882
831.496	23954
831.635	23764
831.774	23566
831.913	23634
832.051	23615
832.19	23714
832.329	23573
832.467	23562
832.606	23402
832.744	23497
832.883	23429
833.022	23478
833.16	23395
833.299	23459
833.437	23577
833.576	23490
833.714	23455
833.852	23562
833.991	23623
834.129	23642
834.267	23554
834.406	23539
834.544	23528
834.682	23524
834.821	23478
834.959	23809
835.097	23493
835.235	23471
835.373	23531
835.511	23417
835.65	23421
835.788	23368
835.926	23254
836.064	23235
836.202	23292
836.34	23455
836.478	23528
836.615	23353
836.753	23395
836.891	23524
837.029	23341
837.167	23387
837.305	23185
837.443	23360
837.58	23174
837.718	23303
837.856	23273
837.993	23151
838.131	23166
838.269	23060
838.406	23181
838.544	23010
838.681	22972
838.819	22942
838.956	22740
839.094	22717
839.231	22847
839.369	22828
839.506	22987
839.643	23056
839.781	22630
839.918	22664
840.055	22615
840.193	22618
840.33	22664
840.467	22759
840.604	22641
840.742	22919
840.879	22386
841.016	22557
841.153	22500
841.29	22809
841.427	22577
841.564	22550
841.701	22516
841.838	22561
841.975	22607
842.112	22478
842.249	22554
842.385	22424
842.522	22877
842.659	22615
842.796	22500
842.933	22413
843.069	22436
843.206	22451
843.343	22432
843.479	22466
843.616	22382
843.752	22192
843.889	22196
844.025	22318
844.162	22173
844.298	22249
844.435	22128
844.571	22150
844.708	22196
844.844	22344
844.98	22291
845.117	22291
845.253	22067
845.389	21983
845.525	22051
845.661	22025
845.798	21823
845.934	22013
846.07	21949
846.206	22059
846.342	21964
846.478	21861
846.614	21644
846.75	21504
846.886	21580
847.022	21747
847.158	21720
847.294	21466
847.429	21720
847.565	21526
847.701	21793
847.837	21359
847.972	21249
848.108	21511
848.244	21412
848.379	21351
848.515	21226
848.65	21226
848.786	21348
848.921	21336
849.057	21344
849.192	21389
849.328	21359
849.463	21173
849.598	21150
849.734	21245
849.869	21161
850.004	20998
850.14	21089
850.275	21081
850.41	20975
850.545	20788
850.68	20910
850.815	21135
850.95	21066
851.085	21203
851.22	21112
851.355	21009
851.49	21104
851.625	20994
851.76	20960
851.895	21062
852.03	20933
852.165	21020
852.299	21169
852.434	21013
852.569	21020
852.703	21005
852.838	21043
852.973	21230
853.107	21039
853.242	20914
853.376	20819
853.511	20788
853.645	20708
853.78	21009
853.914	20807
854.048	20815
854.183	20731
854.317	20815
854.451	21036
854.585	20880
854.72	20758
854.854	20979
854.988	20796
855.122	20781
855.256	20682
855.39	20857
855.524	20883
855.658	20857
855.792	20819
855.926	20792
856.06	20956
856.194	20948
856.327	20830
856.461	20785
856.595	20781
856.729	20895
856.862	20906
856.996	20941
857.13	20994
857.263	20902
857.397	20891
857.53	20842
857.664	20834
857.797	20864
857.931	21009
858.064	20834
858.197	20925
858.331	20777
858.464	20659
858.597	20769
858.731	20807
858.864	20830
858.997	20914
859.13	20857
859.263	20864
859.396	20914
859.529	20823
859.662	20762
859.795	20819
859.928	20800
860.061	20975
860.194	21020
860.327	20899
860.46	20800
860.592	20925
860.725	21081
860.858	21028
860.99	20849
861.123	20762
861.256	20796
861.388	20807
861.521	21530
861.653	20724
861.786	20621
861.918	20674
862.05	20659
862.183	20857
862.315	20785
862.447	20697
862.58	20731
862.712	20465
862.844	20408
862.976	20625
863.108	20663
863.24	21070
863.372	20454
863.504	20545
863.636	20545
863.768	20651
863.9	20571
864.032	20667
864.164	20552
864.296	20632
864.428	20689
864.559	20552
864.691	20609
864.823	20537
864.954	20488
865.086	20575
865.217	20324
865.349	20267
865.48	20393
865.612	20514
865.743	20530
865.875	20473
866.006	20492
866.137	20408
866.269	20469
866.4	20434
866.531	20476
866.662	20385
866.793	20427
866.924	20522
867.055	20492
867.186	20362
867.317	20282
867.448	20313
867.579	20385
867.71	20237
867.841	20358
867.972	20419
868.103	20446
868.233	20339
868.364	20294
868.495	20492
868.625	20632
868.756	20720
868.886	20560
869.017	20533
869.147	20712
869.278	20765
869.408	20579
869.539	20560
869.669	20746
869.799	20750
869.929	20769
870.06	20781
870.19	20952
870.32	20967
870.45	20906
870.58	20998
870.71	21157
870.84	21218
870.97	21013
871.1	21093
871.23	21074
871.36	21211
871.489	21123
871.619	21325
871.749	21218
871.879	21146
872.008	21359
872.138	21279
872.267	21264
872.397	21138
872.526	21047
872.656	20967
872.785	21123
872.915	21294
873.044	21283
873.173	21344
873.303	21321
873.432	21279
873.561	21332
873.69	21260
873.819	21211
873.948	21306
874.077	21230
874.206	21279
874.335	21157
874.464	21325
874.593	21504
874.722	21545
874.851	21515
874.979	21519
875.108	21428
875.237	21439
875.365	21298
875.494	21408
875.623	21553
875.751	21389
875.88	21599
876.008	21816
876.136	21690
876.265	21960
876.393	22040
876.521	21987
876.65	22048
876.778	21983
876.906	21842
877.034	21876
877.162	21865
877.29	21861
877.418	21819
877.546	21892
877.674	21892
877.802	21816
877.93	21953
878.058	21835
878.185	21785
878.313	21835
878.441	21884
878.568	21701
878.696	21755
878.824	21846
878.951	21899
879.079	22051
879.206	22128
879.333	21972
879.461	21895
879.588	21964
879.715	21956
879.842	22093
879.97	21884
880.097	21698
880.224	21663
880.351	21724
880.478	21755
880.605	21606
880.732	21709
880.859	21880
880.986	21781
881.112	21743
881.239	21564
881.366	21405
881.493	21344
881.619	21332
881.746	21310
881.872	21298
881.999	21245
882.125	21226
882.252	21348
882.378	21157
882.505	21386
882.631	21093
882.757	21104
882.883	21066
883.01	21009
883.136	20819
883.262	20891
883.388	20853
883.514	21074
883.64	20925
883.766	20830
883.892	20674
884.018	20674
884.143	20910
884.269	20986
884.395	20731
884.52	20583
884.646	20533
884.772	20606
884.897	20461
885.023	20724
885.148	20720
885.274	20636
885.399	20659
885.524	20484
885.65	20602
885.775	20613
885.9	20583
886.025	20636
886.15	20617
886.275	20476
886.4	20473
886.525	20549
886.65	20568
886.775	20499
886.9	20701
887.025	20944
887.149	20537
887.274	20381
887.399	20412
887.523	20313
887.648	20431
887.773	20396
887.897	20507
888.021	20309
888.146	20339
888.27	20480
888.395	20434
888.519	20469
888.643	20374
888.767	20438
888.891	20225
889.015	20317
889.139	20237
889.263	20168
889.387	20290
889.511	20431
889.635	20332
889.759	20210
889.883	20073
890.006	20206
890.13	20183
890.254	20130
890.377	20149
890.501	19856
890.624	19925
890.748	19963
890.871	19852
890.995	19788
891.118	19666
891.241	19822
891.364	19712
891.488	19845
891.611	19917
891.734	19795
891.857	19772
891.98	19723
892.103	19734
892.226	19890
892.349	19719
892.471	19590
892.594	19704
892.717	19605
892.839	19628
892.962	19685
893.085	19761
893.207	19685
893.33	19548
893.452	19662
893.575	19685
893.697	19776
893.819	19814
893.941	19887
894.064	19898
894.186	19674
894.308	19613
894.43	19852
894.552	19765
894.674	19833
894.796	19601
894.918	19632
895.04	19605
895.161	19727
895.283	19849
895.405	19620
895.526	19704
895.648	19616
895.769	19685
895.891	19731
896.012	19761
896.134	19670
896.255	19715
896.376	19559
896.498	19635
896.619	19715
896.74	19723
896.861	19712
896.982	19989
897.103	20180
897.224	19978
897.345	19883
897.466	19875
897.587	20024
897.708	20062
897.828	19841
897.949	19921
898.07	19719
898.19	19875
898.311	19955
898.431	19814
898.552	19951
898.672	19875
898.792	20024
898.913	19940
899.033	19894
899.153	19651
899.273	19605
899.393	19643
899.513	19769
899.633	19685
899.753	19628
899.873	19578
899.993	19662
900.113	19567
900.232	19662
900.352	19529
900.472	19632
900.591	19476
900.711	19396
900.83	19392
900.95	19582
901.069	19476
901.189	19312
901.308	19076
901.427	18947
901.546	19031
901.665	18970
901.784	19008
901.904	18928
902.023	18738
902.141	18707
902.26	18563
902.379	18635
902.498	18532
902.617	18448
902.735	18536
902.854	18578
902.973	18395
903.091	18285
903.21	18311
903.328	18285
903.446	18049
903.565	17980
903.683	18136
903.801	18060
903.919	17984
904.038	17992
904.156	17840
904.274	17794
904.392	17859
904.51	17775
904.627	17805
904.745	17912
904.863	17748
904.981	17649
905.098	17425
905.216	17528
905.334	17528
905.451	17532
905.569	17341
905.686	17581
905.803	17577
905.921	17181
906.038	17356
906.155	17353
906.272	17242
906.389	17216
906.506	16965
906.623	17056
906.74	16961
906.857	16949
906.974	16984
907.091	17086
907.208	17174
907.324	17136
907.441	16889
907.557	16755
907.674	16778
907.79	16687
907.907	16641
908.023	16702
908.139	16797
908.256	16694
908.372	16599
908.488	16668
908.604	16599
908.72	16432
908.836	16558
908.952	16478
909.068	16519
909.184	16577
909.3	16375
909.415	16565
909.531	16455
909.647	16265
909.762	16211
909.878	16188
909.993	16109
910.108	16128
910.224	16181
910.339	16162
910.454	16044
910.57	16071
910.685	15911
910.8	16139
910.915	16154
911.03	15964
911.145	15789
911.259	15736
911.374	15808
911.489	15720
911.604	15618
911.718	15557
911.833	15610
911.947	15454
912.062	15477
912.176	15633
912.291	15656
912.405	15660
912.519	15789
912.633	15675
912.748	15534
912.862	15469
912.976	15351
913.09	15252
913.204	15340
913.318	15321
913.431	15435
913.545	15336
913.659	15458
913.772	15329
913.886	15233
914	15173
914.113	15230
914.226	15294
914.34	15256
914.453	15032
914.566	15192
914.68	15058
914.793	15013
914.906	14815
915.019	14697
915.132	14705
915.245	14811
915.358	14716
915.47	14849
915.583	14708
915.696	14880
915.809	14842
915.921	14868
916.034	14689
916.146	14689
916.259	14625
916.371	14708
916.483	14667
916.595	14613
916.708	14602
916.82	14560
916.932	14469
917.044	14629
917.156	14488
917.268	14465
917.38	14393
917.491	14408
917.603	14473
917.715	14484
917.826	14457
917.938	14393
918.049	14214
918.161	14412
918.272	14575
918.384	14541
918.495	14252
918.606	14256
918.717	14145
918.828	14256
918.939	14381
919.05	14153
919.161	14180
919.272	13951
919.383	14081
919.494	14271
919.604	14298
919.715	14256
919.826	14126
919.936	14225
920.047	14210
920.157	14100
920.267	14408
920.378	14134
920.488	14172
920.598	14374
920.708	14393
920.818	14305
920.928	14305
921.038	14457
921.148	14351
921.258	14149
921.368	14123
921.477	13970
921.587	13841
921.697	13784
921.806	13955
921.916	13761
922.025	13582
922.134	13639
922.244	13502
922.353	13586
922.462	13483
922.571	13438
922.68	13240
922.789	13232
922.898	13152
923.007	13095
923.116	13274
923.224	13266
923.333	13206
923.442	13076
923.55	13095
923.659	13160
923.767	13137
923.876	12928
923.984	13133
924.092	13000
924.201	12977
924.309	12966
924.417	12962
924.525	12856
924.633	12989
924.741	13822
924.849	12692
924.956	12833
925.064	12662
925.172	12544
925.279	12563
925.387	12700
925.494	12654
925.602	12783
925.709	12684
925.816	12635
925.924	12608
926.031	12719
926.138	12620
926.245	12601
926.352	12540
926.459	12703
926.566	12696
926.673	12509
926.779	12521
926.886	12384
926.993	12270
927.099	12254
927.206	12224
927.312	12205
927.419	12224
927.525	12182
927.631	12235
927.737	12117
927.843	12091
927.95	11961
928.056	12064
928.162	12041
928.267	12011
928.373	12681
928.479	12136
928.585	11882
928.69	11999
928.796	12091
928.901	11939
929.007	11775
929.112	11866
929.218	11912
929.323	11821
929.428	11805
929.533	11927
929.638	11714
929.743	11729
929.848	11752
929.953	11703
930.058	11676
930.163	11501
930.267	11478
930.372	11680
930.477	11398
930.581	11585
930.685	11551
930.79	11436
930.894	11311
930.998	11318
931.103	11440
931.207	11193
931.311	11105
931.415	10972
931.519	10729
931.623	10714
