Data from test_V78500241_990.txt Node
Date: Fri Mar 25 15:16:45 CST 2022
User: usil
Spectrometer: V785-0024
Trigger mode: 0
Integration Time (sec): 4.000000E-1
Scans to average: 1
Nonlinearity correction enabled: false
Boxcar width: 0
Storing dark spectrum: false
XAxis mode: Wavelengths
Number of Pixels in Spectrum: 1024
>>>>>Begin Spectral Data<<<<<
801.071	28390
801.214	28287
801.356	27945
801.499	28120
801.641	27720
801.783	27937
801.926	27987
802.068	27903
802.211	27949
802.353	27720
802.496	27511
802.638	27469
802.78	27595
802.923	27530
803.065	27561
803.208	27515
803.35	27618
803.492	27614
803.635	27804
803.777	27622
803.919	27728
804.061	28082
804.204	27850
804.346	27838
804.488	27614
804.63	27797
804.773	27652
804.915	27720
805.057	27926
805.199	27705
805.341	27842
805.483	27835
805.626	27808
805.768	27842
805.91	27960
806.052	27934
806.194	27838
806.336	28204
806.478	27793
806.62	27873
806.762	28029
806.904	28131
807.046	28474
807.188	28322
807.33	28310
807.472	28318
807.614	28230
807.756	28230
807.898	28318
808.04	28128
808.182	28143
808.324	28078
808.465	28185
808.607	28417
808.749	28668
808.891	28573
809.033	28828
809.174	28687
809.316	28516
809.458	28557
809.6	28561
809.741	28672
809.883	28733
810.025	28759
810.166	28858
810.308	28774
810.45	28599
810.591	28740
810.733	28561
810.875	28592
811.016	28519
811.158	28462
811.299	28557
811.441	28744
811.582	28713
811.724	28637
811.865	28607
812.007	28611
812.148	28649
812.29	28584
812.431	28820
812.573	29029
812.714	29003
812.855	29178
812.997	29227
813.138	29242
813.279	29132
813.421	29075
813.562	29155
813.703	28995
813.845	28824
813.986	28668
814.127	28466
814.268	28306
814.41	28413
814.551	28204
814.692	28333
814.833	28234
814.974	28249
815.115	28204
815.256	28139
815.397	28158
815.539	28238
815.68	28154
815.821	28067
815.962	28234
816.103	28101
816.244	28017
816.385	27953
816.526	27880
816.666	27728
816.807	27675
816.948	27724
817.089	27854
817.23	27644
817.371	27709
817.512	27660
817.653	27595
817.793	27519
817.934	27561
818.075	27679
818.216	27641
818.356	27606
818.497	27591
818.638	27370
818.778	27298
818.919	27317
819.06	27462
819.2	27523
819.341	27739
819.481	27507
819.622	27793
819.762	27960
819.903	27869
820.043	27930
820.184	27785
820.324	27736
820.465	27690
820.605	27781
820.746	27671
820.886	27652
821.026	27835
821.167	27660
821.307	27724
821.447	27724
821.588	27431
821.728	27443
821.868	27252
822.008	27169
822.149	27070
822.289	27043
822.429	26834
822.569	26693
822.709	26785
822.849	26739
822.99	26541
823.13	26651
823.27	26514
823.41	26389
823.55	26404
823.69	26423
823.83	26476
823.97	26396
824.11	26161
824.25	26244
824.389	26370
824.529	26309
824.669	26191
824.809	26248
824.949	26347
825.089	26347
825.228	26339
825.368	26103
825.508	26195
825.648	26286
825.787	26176
825.927	26153
826.067	26111
826.206	26103
826.346	26126
826.485	26161
826.625	26039
826.765	26191
826.904	26180
827.044	25966
827.183	25951
827.323	25826
827.462	25902
827.601	25883
827.741	25845
827.88	25750
828.02	25769
828.159	25681
828.298	25940
828.437	25970
828.577	25731
828.716	25955
828.855	25738
828.994	25757
829.134	25609
829.273	25563
829.412	25620
829.551	25479
829.69	25483
829.829	25632
829.968	25731
830.107	25441
830.246	25559
830.385	25510
830.524	25499
830.663	25468
830.802	25324
830.941	25187
831.08	25137
831.219	25236
831.357	25343
831.496	25441
831.635	25171
831.774	25019
831.913	25187
832.051	24932
832.19	25091
832.329	25000
832.467	24943
832.606	24882
832.744	24863
832.883	24954
833.022	24783
833.16	25012
833.299	24962
833.437	24928
833.576	24894
833.714	25023
833.852	24837
833.991	24966
834.129	25088
834.267	24970
834.406	24928
834.544	24992
834.682	24954
834.821	24985
834.959	25099
835.097	24916
835.235	24882
835.373	24913
835.511	24954
835.65	24916
835.788	24821
835.926	24650
836.064	24620
836.202	24646
836.34	24776
836.478	24768
836.615	24722
836.753	24734
836.891	24951
837.029	24798
837.167	24791
837.305	24688
837.443	24563
837.58	24639
837.718	24726
837.856	24658
837.993	24627
838.131	24665
838.269	24570
838.406	24509
838.544	24410
838.681	24300
838.819	24254
838.956	24235
839.094	24102
839.231	24136
839.369	24338
839.506	24342
839.643	24296
839.781	24095
839.918	24140
840.055	24186
840.193	24114
840.33	24026
840.467	24018
840.604	23999
840.742	24220
840.879	23878
841.016	23908
841.153	23828
841.29	24106
841.427	23965
841.564	24018
841.701	24144
841.838	23988
841.975	23821
842.112	23805
842.249	23779
842.385	23661
842.522	23961
842.659	23794
842.796	23733
842.933	23775
843.069	23714
843.206	23623
843.343	23752
843.479	23741
843.616	23813
843.752	23699
843.889	23619
844.025	23615
844.162	23486
844.298	23596
844.435	23570
844.571	23452
844.708	23509
844.844	23863
844.98	23760
845.117	23710
845.253	23455
845.389	23376
845.525	23345
845.661	23387
845.798	23212
845.934	23178
846.07	23239
846.206	23189
846.342	23311
846.478	23162
846.614	23067
846.75	22934
846.886	22889
847.022	23048
847.158	23006
847.294	23060
847.429	23102
847.565	22892
847.701	23254
847.837	22618
847.972	22752
848.108	22721
848.244	22759
848.379	22607
848.515	22516
848.65	22481
848.786	22637
848.921	22474
849.057	22611
849.192	22573
849.328	22592
849.463	22611
849.598	22554
849.734	22436
849.869	22443
850.004	22371
850.14	22322
850.275	22344
850.41	22314
850.545	22188
850.68	22329
850.815	22329
850.95	22344
851.085	22615
851.22	22527
851.355	22424
851.49	22417
851.625	22291
851.76	22211
851.895	22318
852.03	22185
852.165	22405
852.299	22318
852.434	22523
852.569	22303
852.703	22379
852.838	22363
852.973	22523
853.107	22481
853.242	22181
853.376	22086
853.511	22044
853.645	22055
853.78	22265
853.914	22177
854.048	22143
854.183	22158
854.317	22314
854.451	22223
854.585	22219
854.72	21998
854.854	22219
854.988	22177
855.122	22173
855.256	22055
855.39	22234
855.524	22253
855.658	22101
855.792	22211
855.926	22143
856.06	22207
856.194	22200
856.327	22097
856.461	22131
856.595	21941
856.729	22097
856.862	22246
856.996	22219
857.13	22219
857.263	22306
857.397	22280
857.53	22143
857.664	22226
857.797	22162
857.931	22219
858.064	22169
858.197	22284
858.331	22169
858.464	22074
858.597	22078
858.731	21994
858.864	22105
858.997	22093
859.13	22173
859.263	22219
859.396	22226
859.529	22112
859.662	22105
859.795	22116
859.928	22135
860.061	22181
860.194	22322
860.327	22238
860.46	22109
860.592	22276
860.725	22173
860.858	22211
860.99	22162
861.123	22074
861.256	22086
861.388	22249
861.521	22740
861.653	21918
861.786	21983
861.918	22002
862.05	22105
862.183	22036
862.315	22131
862.447	22093
862.58	22025
862.712	21827
862.844	21854
862.976	21968
863.108	21953
863.24	22226
863.372	21793
863.504	21895
863.636	21873
863.768	21857
863.9	21842
864.032	21854
864.164	21751
864.296	21838
864.428	21991
864.559	21922
864.691	21808
864.823	21934
864.954	21987
865.086	21926
865.217	21762
865.349	21717
865.48	21755
865.612	21766
865.743	21903
865.875	21732
866.006	21759
866.137	21732
866.269	21728
866.4	21770
866.531	21667
866.662	21652
866.793	21743
866.924	21526
867.055	21644
867.186	21713
867.317	21728
867.448	21572
867.579	21652
867.71	21507
867.841	21637
867.972	21755
868.103	21644
868.233	21675
868.364	21591
868.495	21747
868.625	21789
868.756	21991
868.886	21835
869.017	21922
869.147	21842
869.278	21934
869.408	21804
869.539	21922
869.669	21964
869.799	21808
869.929	21953
870.06	21911
870.19	22135
870.32	22093
870.45	22196
870.58	22177
870.71	22382
870.84	22462
870.97	22447
871.1	22379
871.23	22360
871.36	22432
871.489	22390
871.619	22242
871.749	22626
871.879	22538
872.008	22656
872.138	22611
872.267	22348
872.397	22310
872.526	22333
872.656	22371
872.785	22265
872.915	22451
873.044	22550
873.173	22626
873.303	22592
873.432	22405
873.561	22577
873.69	22523
873.819	22485
873.948	22664
874.077	22531
874.206	22478
874.335	22462
874.464	22645
874.593	22820
874.722	22755
874.851	22767
874.979	22812
875.108	22664
875.237	22744
875.365	22531
875.494	22588
875.623	22866
875.751	22691
875.88	22744
876.008	22748
876.136	22919
876.265	23075
876.393	23181
876.521	23064
876.65	22938
876.778	23094
876.906	22991
877.034	23022
877.162	23117
877.29	23003
877.418	22896
877.546	22873
877.674	23022
877.802	23075
877.93	23018
878.058	23037
878.185	22873
878.313	22980
878.441	23022
878.568	22980
878.696	22980
878.824	23044
878.951	23132
879.079	23204
879.206	23326
879.333	23288
879.461	23117
879.588	23086
879.715	23216
879.842	23341
879.97	23071
880.097	22877
880.224	22820
880.351	22858
880.478	22965
880.605	22923
880.732	22816
880.859	23166
880.986	22972
881.112	22984
881.239	22767
881.366	22641
881.493	22550
881.619	22508
881.746	22478
881.872	22489
881.999	22485
882.125	22390
882.252	22398
882.378	22462
882.505	22500
882.631	22253
882.757	22158
882.883	22272
883.01	22131
883.136	22246
883.262	22082
883.388	21949
883.514	22192
883.64	22055
883.766	22162
883.892	22010
884.018	21835
884.143	22048
884.269	22090
884.395	21937
884.52	21713
884.646	21892
884.772	21705
884.897	21751
885.023	21823
885.148	21808
885.274	21911
885.399	21937
885.524	21934
885.65	21755
885.775	21747
885.9	21751
886.025	21903
886.15	21865
886.275	21816
886.4	21838
886.525	21854
886.65	21778
886.775	21781
886.9	21953
887.025	21972
887.149	21743
887.274	21667
887.399	21530
887.523	21580
887.648	21557
887.773	21557
887.897	21755
888.021	21618
888.146	21454
888.27	21644
888.395	21667
888.519	21610
888.643	21618
888.767	21671
888.891	21496
889.015	21287
889.139	21458
889.263	21397
889.387	21450
889.511	21534
889.635	21485
889.759	21332
889.883	21226
890.006	21408
890.13	21435
890.254	21272
890.377	21275
890.501	21131
890.624	21100
890.748	21116
890.871	21001
890.995	21013
891.118	21077
891.241	20883
891.364	20952
891.488	21051
891.611	20975
891.734	20910
891.857	20982
891.98	20918
892.103	20891
892.226	20895
892.349	20853
892.471	20720
892.594	20891
892.717	20857
892.839	20815
892.962	20735
893.085	20864
893.207	20701
893.33	20670
893.452	20648
893.575	20845
893.697	20857
893.819	20933
893.941	21032
894.064	20937
894.186	20781
894.308	20636
894.43	20788
894.552	20952
894.674	20815
894.796	20602
894.918	20693
895.04	20769
895.161	20720
895.283	20731
895.405	20682
895.526	20674
895.648	20842
895.769	20758
895.891	20811
896.012	20891
896.134	20720
896.255	20758
896.376	20724
896.498	20765
896.619	20765
896.74	20701
896.861	20773
896.982	21093
897.103	21195
897.224	20975
897.345	20914
897.466	20815
897.587	21051
897.708	21051
897.828	20998
897.949	20895
898.07	20727
898.19	20963
898.311	20956
898.431	21013
898.552	20895
898.672	20948
898.792	21077
898.913	20899
899.033	20785
899.153	20777
899.273	20735
899.393	20701
899.513	20629
899.633	20663
899.753	20705
899.873	20590
899.993	20682
900.113	20655
900.232	20629
900.352	20670
900.472	20465
900.591	20442
900.711	20602
900.83	20393
900.95	20514
901.069	20556
901.189	20393
901.308	20138
901.427	20081
901.546	20107
901.665	20142
901.784	20077
901.904	19936
902.023	19974
902.141	19655
902.26	19620
902.379	19597
902.498	19658
902.617	19518
902.735	19510
902.854	19578
902.973	19495
903.091	19297
903.21	19217
903.328	19050
903.446	19088
903.565	19118
903.683	18962
903.801	18951
903.919	19034
904.038	18920
904.156	18764
904.274	18901
904.392	18681
904.51	18798
904.627	18856
904.745	18749
904.863	18802
904.981	18559
905.098	18456
905.216	18509
905.334	18399
905.451	18570
905.569	18486
905.686	18410
905.803	18426
905.921	18232
906.038	18418
906.155	18308
906.272	18232
906.389	18197
906.506	18117
906.623	18034
906.74	18026
906.857	17912
906.974	17942
907.091	18022
907.208	18076
907.324	17939
907.441	17847
907.557	17699
907.674	17729
907.79	17585
907.907	17646
908.023	17752
908.139	17870
908.256	17707
908.372	17566
908.488	17642
908.604	17444
908.72	17471
908.836	17417
908.952	17391
909.068	17535
909.184	17486
909.3	17364
909.415	17482
909.531	17383
909.647	17136
909.762	17170
909.878	17113
909.993	17117
910.108	17151
910.224	17025
910.339	17060
910.454	16957
910.57	16850
910.685	16934
910.8	17075
910.915	17071
911.03	16900
911.145	16801
911.259	16729
911.374	16660
911.489	16478
911.604	16622
911.718	16481
911.833	16531
911.947	16276
912.062	16306
912.176	16443
912.291	16382
912.405	16478
912.519	16550
912.633	16523
912.748	16523
912.862	16291
912.976	16261
913.09	16204
913.204	16280
913.318	16375
913.431	16284
913.545	16352
913.659	16390
913.772	16246
913.886	16139
914	16071
914.113	16109
914.226	16150
914.34	16021
914.453	15945
914.566	16128
914.68	15945
914.793	15823
914.906	15781
915.019	15682
915.132	15679
915.245	15587
915.358	15633
915.47	15701
915.583	15625
915.696	15701
915.809	15728
915.921	15774
916.034	15629
916.146	15519
916.259	15466
916.371	15633
916.483	15644
916.595	15488
916.708	15424
916.82	15424
916.932	15431
917.044	15405
917.156	15370
917.268	15192
917.38	15310
917.491	15207
917.603	15294
917.715	15317
917.826	15287
917.938	15211
918.049	15013
918.161	15268
918.272	15272
918.384	15260
918.495	15260
918.606	14994
918.717	15017
918.828	14998
918.939	15108
919.05	14944
919.161	15055
919.272	14705
919.383	14823
919.494	15058
919.604	15222
919.715	14967
919.826	14918
919.936	14925
920.047	14990
920.157	15028
920.267	15199
920.378	14979
920.488	14914
920.598	15165
920.708	15173
920.818	15077
920.928	15154
921.038	15199
921.148	15252
921.258	14929
921.368	14853
921.477	14762
921.587	14739
921.697	14476
921.806	14636
921.916	14629
922.025	14415
922.134	14259
922.244	14214
922.353	14298
922.462	14153
922.571	14138
922.68	14001
922.789	13879
922.898	13947
923.007	13913
923.116	14027
923.224	13898
923.333	13909
923.442	13784
923.55	13822
923.659	13811
923.767	13894
923.876	13753
923.984	13909
924.092	13772
924.201	13753
924.309	13765
924.417	13811
924.525	13693
924.633	13620
924.741	14488
924.849	13495
924.956	13491
925.064	13434
925.172	13316
925.279	13441
925.387	13358
925.494	13320
925.602	13544
925.709	13335
925.816	13244
925.924	13308
926.031	13331
926.138	13194
926.245	13346
926.352	13198
926.459	13343
926.566	13407
926.673	13335
926.779	13099
926.886	13050
926.993	13004
927.099	12909
927.206	12829
927.312	12821
927.419	12867
927.525	12844
927.631	12954
927.737	12837
927.843	12768
927.95	12662
928.056	12654
928.162	12753
928.267	12711
928.373	13183
928.479	12764
928.585	12528
928.69	12593
928.796	12719
928.901	12616
929.007	12479
929.112	12616
929.218	12525
929.323	12475
929.428	12494
929.533	12509
929.638	12323
929.743	12403
929.848	12395
929.953	12372
930.058	12338
930.163	12064
930.267	12159
930.372	12220
930.477	12022
930.581	12292
930.685	12129
930.79	12060
930.894	12083
930.998	12038
931.103	11980
931.207	11779
931.311	11699
931.415	11627
931.519	11433
931.623	11376
