Data from test_V78500241_2888.txt Node
Date: Fri Mar 25 15:29:58 CST 2022
User: usil
Spectrometer: V785-0024
Trigger mode: 0
Integration Time (sec): 4.000000E-1
Scans to average: 1
Nonlinearity correction enabled: false
Boxcar width: 0
Storing dark spectrum: false
XAxis mode: Wavelengths
Number of Pixels in Spectrum: 1024
>>>>>Begin Spectral Data<<<<<
801.071	27199
801.214	27100
801.356	26918
801.499	26845
801.641	26800
801.783	26781
801.926	26853
802.068	26758
802.211	26686
802.353	26549
802.496	26453
802.638	26434
802.78	26389
802.923	26180
803.065	26298
803.208	26332
803.35	26351
803.492	26522
803.635	26518
803.777	26545
803.919	26659
804.061	26758
804.204	26590
804.346	26549
804.488	26408
804.63	26495
804.773	26629
804.915	26541
805.057	26708
805.199	26469
805.341	26522
805.483	26773
805.626	26716
805.768	26625
805.91	26697
806.052	26765
806.194	26651
806.336	26883
806.478	26712
806.62	26659
806.762	26674
806.904	26956
807.046	27070
807.188	27077
807.33	27161
807.472	27089
807.614	26963
807.756	26933
807.898	26876
808.04	26937
808.182	26952
808.324	26933
808.465	26975
808.607	27195
808.749	27211
808.891	27218
809.033	27485
809.174	27275
809.316	27283
809.458	27279
809.6	27123
809.741	27469
809.883	27488
810.025	27447
810.166	27511
810.308	27603
810.45	27519
810.591	27568
810.733	27279
810.875	27127
811.016	27211
811.158	27214
811.299	27386
811.441	27359
811.582	27454
811.724	27192
811.865	27055
812.007	27252
812.148	27142
812.29	27367
812.431	27458
812.573	27625
812.714	27679
812.855	27720
812.997	27797
813.138	27873
813.279	27800
813.421	27865
813.562	27633
813.703	27587
813.845	27561
813.986	27199
814.127	27032
814.268	27017
814.41	26937
814.551	26883
814.692	26944
814.833	26864
814.974	26838
815.115	26921
815.256	26800
815.397	26940
815.539	26743
815.68	26651
815.821	26488
815.962	26636
816.103	26678
816.244	26590
816.385	26358
816.526	26431
816.666	26263
816.807	26191
816.948	26221
817.089	26400
817.23	26309
817.371	26218
817.512	26191
817.653	26046
817.793	26005
817.934	26221
818.075	26263
818.216	26202
818.356	26103
818.497	26001
818.638	25947
818.778	25955
818.919	25966
819.06	26027
819.2	26092
819.341	26153
819.481	26172
819.622	26385
819.762	26484
819.903	26431
820.043	26313
820.184	26229
820.324	26168
820.465	26427
820.605	26210
820.746	26275
820.886	26119
821.026	26111
821.167	26164
821.307	26180
821.447	26183
821.588	26035
821.728	25852
821.868	25670
822.008	25696
822.149	25613
822.289	25624
822.429	25384
822.569	25457
822.709	25308
822.849	25156
822.99	25084
823.13	25190
823.27	25118
823.41	24985
823.55	24764
823.69	25080
823.83	24882
823.97	24863
824.11	24810
824.25	24722
824.389	24837
824.529	24719
824.669	24764
824.809	24916
824.949	24798
825.089	24798
825.228	24829
825.368	24593
825.508	24486
825.648	24726
825.787	24681
825.927	24738
826.067	24650
826.206	24715
826.346	24787
826.485	24604
826.625	24601
826.765	24715
826.904	24608
827.044	24429
827.183	24414
827.323	24266
827.462	24384
827.601	24247
827.741	24311
827.88	24410
828.02	24426
828.159	24285
828.298	24426
828.437	24315
828.577	24281
828.716	24342
828.855	24213
828.994	24022
829.134	23992
829.273	24003
829.412	23942
829.551	23996
829.69	24022
829.829	24083
829.968	24030
830.107	24205
830.246	23870
830.385	23893
830.524	23958
830.663	23760
830.802	23832
830.941	23695
831.08	23657
831.219	23729
831.357	23703
831.496	23897
831.635	23623
831.774	23589
831.913	23463
832.051	23315
832.19	23417
832.329	23482
832.467	23254
832.606	23231
832.744	23360
832.883	23326
833.022	23277
833.16	23261
833.299	23315
833.437	23235
833.576	23372
833.714	23303
833.852	23311
833.991	23353
834.129	23376
834.267	23368
834.406	23299
834.544	23330
834.682	23463
834.821	23368
834.959	23497
835.097	23273
835.235	23551
835.373	23265
835.511	23360
835.65	23185
835.788	23254
835.926	23124
836.064	22968
836.202	22946
836.34	23273
836.478	23235
836.615	23178
836.753	23242
836.891	23337
837.029	23140
837.167	23105
837.305	23079
837.443	23086
837.58	23128
837.718	23025
837.856	22942
837.993	23033
838.131	22961
838.269	22805
838.406	22987
838.544	22904
838.681	22645
838.819	22672
838.956	22485
839.094	22538
839.231	22592
839.369	22641
839.506	22946
839.643	22828
839.781	22409
839.918	22459
840.055	22531
840.193	22443
840.33	22424
840.467	22489
840.604	22535
840.742	22805
840.879	22318
841.016	22432
841.153	22238
841.29	22443
841.427	22405
841.564	22489
841.701	22417
841.838	22443
841.975	22337
842.112	22371
842.249	22379
842.385	22284
842.522	22382
842.659	22234
842.796	22120
842.933	22265
843.069	22154
843.206	22109
843.343	22261
843.479	22280
843.616	22192
843.752	22082
843.889	21953
844.025	21991
844.162	21987
844.298	22067
844.435	21987
844.571	21899
844.708	21895
844.844	22048
844.98	22067
845.117	22090
845.253	21907
845.389	21778
845.525	21911
845.661	21743
845.798	21660
845.934	21911
846.07	21694
846.206	21701
846.342	21857
846.478	21675
846.614	21530
846.75	21393
846.886	21298
847.022	21447
847.158	21496
847.294	21473
847.429	21519
847.565	21443
847.701	21572
847.837	21241
847.972	21112
848.108	21302
848.244	21252
848.379	21077
848.515	21146
848.65	20956
848.786	21081
848.921	21169
849.057	21173
849.192	21119
849.328	21066
849.463	21154
849.598	21047
849.734	20864
849.869	20849
850.004	20929
850.14	20868
850.275	20785
850.41	20667
850.545	20750
850.68	20777
850.815	20823
850.95	20800
851.085	20956
851.22	20762
851.355	20815
851.49	20769
851.625	20785
851.76	20823
851.895	20739
852.03	20807
852.165	20807
852.299	20895
852.434	20895
852.569	20796
852.703	20815
852.838	20861
852.973	20849
853.107	20895
853.242	20777
853.376	20594
853.511	20431
853.645	20583
853.78	20727
853.914	20632
854.048	20678
854.183	20621
854.317	20609
854.451	20800
854.585	20636
854.72	20667
854.854	20765
854.988	20514
855.122	20636
855.256	20587
855.39	20583
855.524	20617
855.658	20724
855.792	20667
855.926	20674
856.06	20598
856.194	20739
856.327	20674
856.461	20670
856.595	20545
856.729	20526
856.862	20804
856.996	20632
857.13	20651
857.263	20716
857.397	20663
857.53	20587
857.664	20674
857.797	20625
857.931	20689
858.064	20629
858.197	20617
858.331	20655
858.464	20556
858.597	20488
858.731	20621
858.864	20526
858.997	20571
859.13	20613
859.263	20686
859.396	20640
859.529	20575
859.662	20594
859.795	20571
859.928	20651
860.061	20792
860.194	20796
860.327	20621
860.46	20545
860.592	20739
860.725	20800
860.858	20765
860.99	20640
861.123	20552
861.256	20556
861.388	20598
861.521	21302
861.653	20446
861.786	20339
861.918	20465
862.05	20571
862.183	20457
862.315	20606
862.447	20549
862.58	20571
862.712	20263
862.844	20305
862.976	20393
863.108	20339
863.24	20735
863.372	20180
863.504	20393
863.636	20339
863.768	20480
863.9	20336
864.032	20221
864.164	20339
864.296	20343
864.428	20396
864.559	20301
864.691	20438
864.823	20324
864.954	20252
865.086	20374
865.217	20145
865.349	20252
865.48	20202
865.612	20263
865.743	20271
865.875	20252
866.006	20362
866.137	20286
866.269	20259
866.4	20214
866.531	20282
866.662	20111
866.793	20271
866.924	20149
867.055	20214
867.186	20164
867.317	20122
867.448	20020
867.579	20130
867.71	20088
867.841	20161
867.972	20130
868.103	20183
868.233	20088
868.364	20153
868.495	20244
868.625	20385
868.756	20594
868.886	20377
869.017	20412
869.147	20503
869.278	20526
869.408	20518
869.539	20404
869.669	20381
869.799	20438
869.929	20598
870.06	20446
870.19	20667
870.32	20705
870.45	20777
870.58	20727
870.71	20960
870.84	20895
870.97	20792
871.1	20712
871.23	21066
871.36	20967
871.489	20910
871.619	20857
871.749	20914
871.879	21081
872.008	21176
872.138	21055
872.267	21085
872.397	21017
872.526	20826
872.656	20937
872.785	20746
872.915	21032
873.044	20937
873.173	20937
873.303	21005
873.432	21165
873.561	21256
873.69	20963
873.819	21093
873.948	21157
874.077	21074
874.206	20994
874.335	21039
874.464	21214
874.593	21252
874.722	21245
874.851	21374
874.979	21336
875.108	21313
875.237	21252
875.365	21116
875.494	21195
875.623	21340
875.751	21241
875.88	21233
876.008	21344
876.136	21447
876.265	21789
876.393	21789
876.521	21743
876.65	21800
876.778	21724
876.906	21652
877.034	21736
877.162	21679
877.29	21709
877.418	21709
877.546	21648
877.674	21701
877.802	21622
877.93	21656
878.058	21637
878.185	21431
878.313	21667
878.441	21644
878.568	21564
878.696	21534
878.824	21564
878.951	21751
879.079	21713
879.206	21930
879.333	21808
879.461	21762
879.588	21819
879.715	21842
879.842	21888
879.97	21762
880.097	21492
880.224	21462
880.351	21557
880.478	21450
880.605	21439
880.732	21431
880.859	21774
880.986	21462
881.112	21340
881.239	21340
881.366	21116
881.493	21108
881.619	21146
881.746	20975
881.872	21108
881.999	21123
882.125	21020
882.252	21066
882.378	20941
882.505	21157
882.631	20982
882.757	20655
882.883	20868
883.01	20853
883.136	20663
883.262	20636
883.388	20552
883.514	20701
883.64	20868
883.766	20670
883.892	20476
884.018	20556
884.143	20735
884.269	20792
884.395	20461
884.52	20393
884.646	20389
884.772	20385
884.897	20339
885.023	20518
885.148	20469
885.274	20571
885.399	20484
885.524	20396
885.65	20389
885.775	20381
885.9	20362
886.025	20476
886.15	20499
886.275	20267
886.4	20343
886.525	20374
886.65	20347
886.775	20294
886.9	20450
887.025	20667
887.149	20351
887.274	20225
887.399	20191
887.523	20157
887.648	20142
887.773	19997
887.897	20271
888.021	20218
888.146	20016
888.27	20176
888.395	20339
888.519	20206
888.643	20286
888.767	20347
888.891	20001
889.015	19913
889.139	20005
889.263	19936
889.387	20153
889.511	20218
889.635	20157
889.759	20077
889.883	19970
890.006	19940
890.13	20005
890.254	19970
890.377	19986
890.501	19734
890.624	19696
890.748	19868
890.871	19670
890.995	19578
891.118	19502
891.241	19559
891.364	19563
891.488	19685
891.611	19643
891.734	19632
891.857	19647
891.98	19556
892.103	19674
892.226	19624
892.349	19499
892.471	19411
892.594	19468
892.717	19548
892.839	19445
892.962	19460
893.085	19586
893.207	19426
893.33	19396
893.452	19491
893.575	19563
893.697	19419
893.819	19704
893.941	19666
894.064	19510
894.186	19438
894.308	19422
894.43	19548
894.552	19594
894.674	19544
894.796	19521
894.918	19403
895.04	19480
895.161	19552
895.283	19582
895.405	19411
895.526	19499
895.648	19510
895.769	19502
895.891	19430
896.012	19620
896.134	19533
896.255	19460
896.376	19434
896.498	19445
896.619	19499
896.74	19537
896.861	19403
896.982	19837
897.103	19936
897.224	19738
897.345	19719
897.466	19704
897.587	19689
897.708	19852
897.828	19734
897.949	19670
898.07	19643
898.19	19582
898.311	19704
898.431	19605
898.552	19700
898.672	19833
898.792	19963
898.913	19712
899.033	19575
899.153	19529
899.273	19438
899.393	19476
899.513	19518
899.633	19533
899.753	19578
899.873	19556
899.993	19594
900.113	19438
900.232	19499
900.352	19487
900.472	19445
900.591	19301
900.711	19327
900.83	19346
900.95	19285
901.069	19381
901.189	19148
901.308	19008
901.427	18833
901.546	18886
901.665	18859
901.784	18973
901.904	18707
902.023	18601
902.141	18464
902.26	18464
902.379	18418
902.498	18441
902.617	18376
902.735	18475
902.854	18365
902.973	18308
903.091	18015
903.21	18136
903.328	18053
903.446	17885
903.565	17923
903.683	17901
903.801	17790
903.919	17882
904.038	17771
904.156	17684
904.274	17748
904.392	17562
904.51	17630
904.627	17589
904.745	17627
904.863	17642
904.981	17539
905.098	17364
905.216	17341
905.334	17414
905.451	17265
905.569	17273
905.686	17372
905.803	17261
905.921	17124
906.038	17200
906.155	17128
906.272	16961
906.389	17052
906.506	16904
906.623	16957
906.74	16820
906.857	16729
906.974	16782
907.091	16942
907.208	16999
907.324	16885
907.441	16748
907.557	16611
907.674	16500
907.79	16546
907.907	16527
908.023	16656
908.139	16493
908.256	16565
908.372	16523
908.488	16402
908.604	16318
908.72	16405
908.836	16329
908.952	16284
909.068	16242
909.184	16371
909.3	16306
909.415	16139
909.531	16287
909.647	16097
909.762	15975
909.878	16051
909.993	16021
910.108	16002
910.224	15888
910.339	16010
910.454	15861
910.57	15800
910.685	15762
910.8	16048
910.915	15979
911.03	15857
911.145	15652
911.259	15652
911.374	15644
911.489	15591
911.604	15526
911.718	15359
911.833	15275
911.947	15389
912.062	15211
912.176	15488
912.291	15397
912.405	15435
912.519	15572
912.633	15633
912.748	15496
912.862	15405
912.976	15222
913.09	15161
913.204	15199
913.318	15165
913.431	15408
913.545	15233
913.659	15275
913.772	15104
913.886	14967
914	15036
914.113	15146
914.226	15142
914.34	15112
914.453	14925
914.566	14982
914.68	14849
914.793	14883
914.906	14617
915.019	14556
915.132	14594
915.245	14663
915.358	14575
915.47	14674
915.583	14648
915.696	14674
915.809	14754
915.921	14674
916.034	14526
916.146	14492
916.259	14415
916.371	14644
916.483	14537
916.595	14423
916.708	14488
916.82	14488
916.932	14434
917.044	14419
917.156	14446
917.268	14301
917.38	14290
917.491	14298
917.603	14412
917.715	14324
917.826	14408
917.938	14191
918.049	14153
918.161	14202
918.272	14408
918.384	14328
918.495	14347
918.606	14138
918.717	14031
918.828	14100
918.939	14065
919.05	13947
919.161	14107
919.272	13822
919.383	13906
919.494	14092
919.604	14164
919.715	14035
919.826	13955
919.936	14069
920.047	14073
920.157	14046
920.267	14240
920.378	14054
920.488	14077
920.598	14225
920.708	14408
920.818	14081
920.928	14153
921.038	14412
921.148	14301
921.258	13963
921.368	13970
921.477	13871
921.587	13822
921.697	13674
921.806	13727
921.916	13780
922.025	13476
922.134	13464
922.244	13419
922.353	13510
922.462	13320
922.571	13198
922.68	13110
922.789	13099
922.898	13088
923.007	13034
923.116	13206
923.224	13114
923.333	13019
923.442	12947
923.55	12943
923.659	12943
923.767	13042
923.876	12886
923.984	12958
924.092	12791
924.201	12878
924.309	12795
924.417	12966
924.525	12810
924.633	12688
924.741	13616
924.849	12620
924.956	12745
925.064	12532
925.172	12452
925.279	12525
925.387	12509
925.494	12547
925.602	12597
925.709	12570
925.816	12456
925.924	12544
926.031	12608
926.138	12460
926.245	12483
926.352	12395
926.459	12525
926.566	12585
926.673	12429
926.779	12315
926.886	12262
926.993	12197
927.099	12140
927.206	12098
927.312	12053
927.419	12102
927.525	12140
927.631	12079
927.737	12015
927.843	12003
927.95	11889
928.056	11980
928.162	11916
928.267	12041
928.373	12593
928.479	12068
928.585	11779
928.69	11908
928.796	11866
928.901	11790
929.007	11627
929.112	11824
929.218	11760
929.323	11775
929.428	11707
929.533	11790
929.638	11615
929.743	11611
929.848	11691
929.953	11630
930.058	11539
930.163	11391
930.267	11376
930.372	11478
930.477	11322
930.581	11547
930.685	11345
930.79	11227
930.894	11227
930.998	11273
931.103	11383
931.207	10991
931.311	10927
931.415	10866
931.519	10729
931.623	10588
