Data from test_V78500241_2227.txt Node
Date: Fri Mar 25 15:25:21 CST 2022
User: usil
Spectrometer: V785-0024
Trigger mode: 0
Integration Time (sec): 4.000000E-1
Scans to average: 1
Nonlinearity correction enabled: false
Boxcar width: 0
Storing dark spectrum: false
XAxis mode: Wavelengths
Number of Pixels in Spectrum: 1024
>>>>>Begin Spectral Data<<<<<
801.071	27682
801.214	27599
801.356	27488
801.499	27450
801.641	27150
801.783	27222
801.926	27226
802.068	27154
802.211	27157
802.353	27127
802.496	26929
802.638	26918
802.78	26781
802.923	26804
803.065	26701
803.208	26739
803.35	26857
803.492	26887
803.635	27051
803.777	26849
803.919	26952
804.061	27298
804.204	27127
804.346	26967
804.488	26967
804.63	27032
804.773	26948
804.915	26986
805.057	27047
805.199	27127
805.341	27051
805.483	27173
805.626	27157
805.768	26967
805.91	27169
806.052	27096
806.194	26891
806.336	27131
806.478	27066
806.62	27218
806.762	27226
806.904	27230
807.046	27580
807.188	27610
807.33	27667
807.472	27466
807.614	27374
807.756	27431
807.898	27329
808.04	27291
808.182	27389
808.324	27431
808.465	27538
808.607	27762
808.749	27690
808.891	27800
809.033	27888
809.174	27698
809.316	27667
809.458	27743
809.6	27694
809.741	27827
809.883	27823
810.025	28006
810.166	27903
810.308	27945
810.45	27953
810.591	27827
810.733	27743
810.875	27816
811.016	27690
811.158	27785
811.299	27819
811.441	27831
811.582	27895
811.724	27625
811.865	27667
812.007	27618
812.148	27679
812.29	27812
812.431	27770
812.573	28017
812.714	28162
812.855	28147
812.997	28303
813.138	28500
813.279	28493
813.421	28185
813.562	28139
813.703	28128
813.845	27991
813.986	27751
814.127	27561
814.268	27511
814.41	27511
814.551	27336
814.692	27298
814.833	27272
814.974	27416
815.115	27469
815.256	27275
815.397	27340
815.539	27287
815.68	27203
815.821	27169
815.962	27161
816.103	27294
816.244	27013
816.385	26910
816.526	26914
816.666	26838
816.807	26724
816.948	26868
817.089	26845
817.23	26834
817.371	26606
817.512	26781
817.653	26731
817.793	26674
817.934	26659
818.075	26735
818.216	26686
818.356	26663
818.497	26613
818.638	26389
818.778	26450
818.919	26461
819.06	26400
819.2	26469
819.341	26693
819.481	26537
819.622	26815
819.762	27036
819.903	27039
820.043	26823
820.184	26777
820.324	26788
820.465	26925
820.605	26674
820.746	26777
820.886	26632
821.026	26739
821.167	26785
821.307	26781
821.447	26629
821.588	26621
821.728	26518
821.868	26278
822.008	26149
822.149	26161
822.289	26263
822.429	25936
822.569	25765
822.709	25807
822.849	25605
822.99	25727
823.13	25605
823.27	25582
823.41	25670
823.55	25301
823.69	25499
823.83	25388
823.97	25400
824.11	25259
824.25	25236
824.389	25301
824.529	25362
824.669	25297
824.809	25346
824.949	25369
825.089	25259
825.228	25240
825.368	25247
825.508	25072
825.648	25175
825.787	25206
825.927	25152
826.067	25091
826.206	25129
826.346	25088
826.485	25152
826.625	25042
826.765	25190
826.904	25129
827.044	24932
827.183	24947
827.323	24901
827.462	24932
827.601	24924
827.741	24852
827.88	24981
828.02	24753
828.159	24970
828.298	24798
828.437	24867
828.577	24760
828.716	24897
828.855	24715
828.994	24536
829.134	24509
829.273	24604
829.412	24509
829.551	24578
829.69	24582
829.829	24642
829.968	24635
830.107	24616
830.246	24559
830.385	24437
830.524	24414
830.663	24247
830.802	24308
830.941	24148
831.08	24038
831.219	24277
831.357	24155
831.496	24475
831.635	24091
831.774	24114
831.913	24083
832.051	23893
832.19	23912
832.329	23992
832.467	23942
832.606	23798
832.744	23851
832.883	23901
833.022	23748
833.16	23722
833.299	23726
833.437	23904
833.576	23878
833.714	23916
833.852	23855
833.991	23805
834.129	24038
834.267	23889
834.406	23950
834.544	23828
834.682	23912
834.821	23794
834.959	23992
835.097	23775
835.235	23984
835.373	23756
835.511	23939
835.65	23672
835.788	23771
835.926	23611
836.064	23520
836.202	23562
836.34	23703
836.478	23783
836.615	23642
836.753	23608
836.891	23783
837.029	23710
837.167	23779
837.305	23596
837.443	23539
837.58	23558
837.718	23554
837.856	23630
837.993	23505
838.131	23543
838.269	23353
838.406	23471
838.544	23410
838.681	23239
838.819	23174
838.956	22961
839.094	23067
839.231	23124
839.369	23216
839.506	23345
839.643	23220
839.781	22953
839.918	22961
840.055	23029
840.193	22999
840.33	22949
840.467	22957
840.604	22896
840.742	23098
840.879	22755
841.016	22824
841.153	22850
841.29	22927
841.427	22892
841.564	22915
841.701	22911
841.838	22869
841.975	22752
842.112	22843
842.249	22729
842.385	22694
842.522	22854
842.659	22641
842.796	22706
842.933	22592
843.069	22592
843.206	22660
843.343	22630
843.479	22634
843.616	22630
843.752	22443
843.889	22455
844.025	22626
844.162	22436
844.298	22535
844.435	22565
844.571	22375
844.708	22493
844.844	22599
844.98	22573
845.117	22500
845.253	22352
845.389	22367
845.525	22432
845.661	22268
845.798	22249
845.934	22238
846.07	22268
846.206	22207
846.342	22169
846.478	22207
846.614	22006
846.75	21850
846.886	21903
847.022	22086
847.158	21823
847.294	21899
847.429	21922
847.565	21926
847.701	22139
847.837	21618
847.972	21660
848.108	21766
848.244	21770
848.379	21690
848.515	21545
848.65	21542
848.786	21378
848.921	21439
849.057	21591
849.192	21542
849.328	21515
849.463	21507
849.598	21382
849.734	21294
849.869	21458
850.004	21340
850.14	21382
850.275	21150
850.41	21207
850.545	21359
850.68	21249
850.815	21207
850.95	21264
851.085	21473
851.22	21317
851.355	21329
851.49	21207
851.625	21279
851.76	21294
851.895	21154
852.03	21268
852.165	21279
852.299	21279
852.434	21439
852.569	21207
852.703	21188
852.838	21359
852.973	21378
853.107	21313
853.242	21256
853.376	21058
853.511	21039
853.645	21032
853.78	21291
853.914	21135
854.048	21119
854.183	21043
854.317	21230
854.451	21370
854.585	21112
854.72	21051
854.854	21093
854.988	21062
855.122	21089
855.256	20979
855.39	21161
855.524	21203
855.658	21169
855.792	21070
855.926	21116
856.06	21199
856.194	21077
856.327	21077
856.461	20998
856.595	21104
856.729	21138
856.862	21199
856.996	21119
857.13	21066
857.263	21279
857.397	21317
857.53	20960
857.664	21112
857.797	21165
857.931	21169
858.064	21024
858.197	21294
858.331	20998
858.464	21146
858.597	21024
858.731	21047
858.864	20998
858.997	21032
859.13	21100
859.263	21100
859.396	21188
859.529	21028
859.662	21051
859.795	20971
859.928	21043
860.061	21233
860.194	21370
860.327	21096
860.46	20982
860.592	21192
860.725	21199
860.858	21211
860.99	21180
861.123	21009
861.256	21043
861.388	21055
861.521	21736
861.653	21009
861.786	20785
861.918	21020
862.05	21081
862.183	21009
862.315	21024
862.447	21005
862.58	20918
862.712	20830
862.844	20823
862.976	20819
863.108	20925
863.24	21131
863.372	20853
863.504	20956
863.636	20697
863.768	20937
863.9	20724
864.032	20804
864.164	20785
864.296	20743
864.428	20838
864.559	20781
864.691	20864
864.823	20792
864.954	20762
865.086	20792
865.217	20621
865.349	20678
865.48	20777
865.612	20644
865.743	20731
865.875	20625
866.006	20670
866.137	20674
866.269	20663
866.4	20705
866.531	20651
866.662	20560
866.793	20613
866.924	20689
867.055	20667
867.186	20697
867.317	20575
867.448	20560
867.579	20644
867.71	20659
867.841	20697
867.972	20651
868.103	20686
868.233	20640
868.364	20678
868.495	20750
868.625	20838
868.756	20960
868.886	20834
869.017	20925
869.147	21013
869.278	20899
869.408	20880
869.539	20937
869.669	20914
869.799	20914
869.929	20864
870.06	20887
870.19	21275
870.32	21268
870.45	21245
870.58	21233
870.71	21351
870.84	21386
870.97	21302
871.1	21256
871.23	21416
871.36	21492
871.489	21405
871.619	21564
871.749	21355
871.879	21466
872.008	21515
872.138	21492
872.267	21466
872.397	21435
872.526	21386
872.656	21283
872.785	21378
872.915	21515
873.044	21538
873.173	21473
873.303	21496
873.432	21686
873.561	21595
873.69	21576
873.819	21564
873.948	21557
874.077	21420
874.206	21428
874.335	21378
874.464	21618
874.593	21838
874.722	21652
874.851	21739
874.979	21755
875.108	21774
875.237	21698
875.365	21622
875.494	21774
875.623	21865
875.751	21690
875.88	21816
876.008	21873
876.136	21960
876.265	22112
876.393	22215
876.521	22124
876.65	22204
876.778	22185
876.906	22002
877.034	22059
877.162	22078
877.29	21991
877.418	21975
877.546	22036
877.674	22105
877.802	22051
877.93	21991
878.058	22063
878.185	21975
878.313	21975
878.441	21991
878.568	21899
878.696	21854
878.824	22025
878.951	22082
879.079	22169
879.206	22337
879.333	22200
879.461	22204
879.588	22074
879.715	22230
879.842	22230
879.97	22169
880.097	21865
880.224	21835
880.351	21983
880.478	21899
880.605	22048
880.732	21930
880.859	22200
880.986	22032
881.112	21972
881.239	21823
881.366	21698
881.493	21583
881.619	21511
881.746	21504
881.872	21507
881.999	21447
882.125	21481
882.252	21454
882.378	21462
882.505	21599
882.631	21351
882.757	21173
882.883	21306
883.01	21237
883.136	21074
883.262	21051
883.388	20986
883.514	21165
883.64	21127
883.766	21020
883.892	20933
884.018	20971
884.143	21218
884.269	21165
884.395	20918
884.52	20887
884.646	20830
884.772	20807
884.897	20750
885.023	20853
885.148	20864
885.274	20982
885.399	21043
885.524	20773
885.65	20864
885.775	20838
885.9	20838
886.025	20986
886.15	20872
886.275	20739
886.4	20731
886.525	20769
886.65	20819
886.775	20826
886.9	20986
887.025	20990
887.149	20815
887.274	20689
887.399	20636
887.523	20632
887.648	20518
887.773	20514
887.897	20564
888.021	20651
888.146	20442
888.27	20678
888.395	20712
888.519	20568
888.643	20583
888.767	20655
888.891	20533
889.015	20446
889.139	20427
889.263	20374
889.387	20431
889.511	20613
889.635	20454
889.759	20415
889.883	20431
890.006	20298
890.13	20446
890.254	20263
890.377	20271
890.501	20278
890.624	20115
890.748	20138
890.871	20054
890.995	19959
891.118	19830
891.241	19898
891.364	20058
891.488	20058
891.611	19974
891.734	19936
891.857	20031
891.98	19951
892.103	19967
892.226	19955
892.349	19932
892.471	19818
892.594	19963
892.717	19776
892.839	19818
892.962	19864
893.085	19967
893.207	19936
893.33	19765
893.452	19849
893.575	19955
893.697	19799
893.819	20077
893.941	20081
894.064	19978
894.186	19833
894.308	19700
894.43	19883
894.552	20024
894.674	19898
894.796	19723
894.918	19849
895.04	19849
895.161	19959
895.283	19883
895.405	19723
895.526	19799
895.648	19788
895.769	19883
895.891	19856
896.012	19928
896.134	19868
896.255	19974
896.376	19887
896.498	19871
896.619	19928
896.74	19909
896.861	19928
896.982	20164
897.103	20434
897.224	20100
897.345	20107
897.466	20176
897.587	20111
897.708	20191
897.828	20180
897.949	20008
898.07	19913
898.19	20119
898.311	20187
898.431	19917
898.552	20134
898.672	20176
898.792	20092
898.913	20187
899.033	20054
899.153	19894
899.273	19894
899.393	19708
899.513	19894
899.633	19875
899.753	20031
899.873	19712
899.993	19868
900.113	19791
900.232	19837
900.352	19750
900.472	19666
900.591	19666
900.711	19655
900.83	19632
900.95	19685
901.069	19681
901.189	19483
901.308	19339
901.427	19221
901.546	19095
901.665	19202
901.784	19304
901.904	19019
902.023	18886
902.141	18741
902.26	18802
902.379	18924
902.498	18825
902.617	18711
902.735	18715
902.854	18642
902.973	18711
903.091	18456
903.21	18448
903.328	18426
903.446	18308
903.565	18281
903.683	18243
903.801	18079
903.919	18213
904.038	18148
904.156	17999
904.274	18034
904.392	18030
904.51	18041
904.627	17965
904.745	18057
904.863	18136
904.981	17786
905.098	17722
905.216	17627
905.334	17611
905.451	17619
905.569	17630
905.686	17668
905.803	17687
905.921	17444
906.038	17505
906.155	17360
906.272	17376
906.389	17368
906.506	17193
906.623	17140
906.74	17261
906.857	17029
906.974	16995
907.091	17311
907.208	17231
907.324	17261
907.441	17014
907.557	16889
907.674	16995
907.79	16809
907.907	16930
908.023	16911
908.139	16927
908.256	16850
908.372	16797
908.488	16820
908.604	16683
908.72	16618
908.836	16656
908.952	16656
909.068	16649
909.184	16706
909.3	16596
909.415	16664
909.531	16656
909.647	16356
909.762	16424
909.878	16265
909.993	16318
910.108	16310
910.224	16257
910.339	16272
910.454	16177
910.57	16067
910.685	16025
910.8	16230
910.915	16257
911.03	16143
911.145	15987
911.259	15880
911.374	15960
911.489	15850
911.604	15789
911.718	15797
911.833	15717
911.947	15568
912.062	15462
912.176	15610
912.291	15606
912.405	15660
912.519	15926
912.633	15876
912.748	15732
912.862	15606
912.976	15530
913.09	15439
913.204	15424
913.318	15530
913.431	15663
913.545	15542
913.659	15606
913.772	15485
913.886	15294
914	15218
914.113	15344
914.226	15393
914.34	15393
914.453	15184
914.566	15294
914.68	15119
914.793	15146
914.906	14937
915.019	15020
915.132	14864
915.245	14880
915.358	14838
915.47	14887
915.583	14918
915.696	14857
915.809	15081
915.921	15005
916.034	14830
916.146	14861
916.259	14819
916.371	14864
916.483	14887
916.595	14746
916.708	14781
916.82	14727
916.932	14693
917.044	14686
917.156	14590
917.268	14667
917.38	14575
917.491	14644
917.603	14564
917.715	14720
917.826	14705
917.938	14629
918.049	14419
918.161	14530
918.272	14583
918.384	14640
918.495	14450
918.606	14408
918.717	14301
918.828	14332
918.939	14377
919.05	14275
919.161	14298
919.272	14107
919.383	14176
919.494	14503
919.604	14514
919.715	14309
919.826	14206
919.936	14233
920.047	14313
920.157	14309
920.267	14556
920.378	14400
920.488	14313
920.598	14518
920.708	14583
920.818	14438
920.928	14568
921.038	14606
921.148	14533
921.258	14252
921.368	14180
921.477	14062
921.587	14001
921.697	13849
921.806	14016
921.916	13826
922.025	13742
922.134	13689
922.244	13677
922.353	13715
922.462	13597
922.571	13533
922.68	13396
922.789	13316
922.898	13392
923.007	13278
923.116	13320
923.224	13293
923.333	13384
923.442	13213
923.55	13099
923.659	13141
923.767	13285
923.876	13122
923.984	13221
924.092	13053
924.201	13179
924.309	13012
924.417	13095
924.525	13042
924.633	12981
924.741	13727
924.849	12730
924.956	12954
925.064	12863
925.172	12726
925.279	12745
925.387	12806
925.494	12779
925.602	12973
925.709	12878
925.816	12631
925.924	12612
926.031	12867
926.138	12673
926.245	12768
926.352	12517
926.459	12757
926.566	12817
926.673	12669
926.779	12578
926.886	12566
926.993	12365
927.099	12342
927.206	12357
927.312	12315
927.419	12448
927.525	12311
927.631	12273
927.737	12277
927.843	12106
927.95	12129
928.056	12171
928.162	12167
928.267	12148
928.373	12939
928.479	12171
928.585	12041
928.69	12228
928.796	12102
928.901	12019
929.007	11958
929.112	12041
929.218	12049
929.323	11897
929.428	11878
929.533	11916
929.638	11817
929.743	11824
929.848	11859
929.953	11870
930.058	11714
930.163	11676
930.267	11581
930.372	11718
930.477	11604
930.581	11661
930.685	11615
930.79	11414
930.894	11558
930.998	11486
931.103	11589
931.207	11159
931.311	11208
931.415	11105
931.519	10850
931.623	10801
