Data from test_V78500241_2705.txt Node
Date: Fri Mar 25 15:28:41 CST 2022
User: usil
Spectrometer: V785-0024
Trigger mode: 0
Integration Time (sec): 4.000000E-1
Scans to average: 1
Nonlinearity correction enabled: false
Boxcar width: 0
Storing dark spectrum: false
XAxis mode: Wavelengths
Number of Pixels in Spectrum: 1024
>>>>>Begin Spectral Data<<<<<
801.071	27024
801.214	27093
801.356	26769
801.499	26788
801.641	26724
801.783	26651
801.926	26830
802.068	26708
802.211	26583
802.353	26431
802.496	26457
802.638	26290
802.78	26347
802.923	26054
803.065	26183
803.208	26248
803.35	26256
803.492	26419
803.635	26393
803.777	26256
803.919	26488
804.061	26765
804.204	26530
804.346	26408
804.488	26324
804.63	26358
804.773	26290
804.915	26453
805.057	26298
805.199	26446
805.341	26503
805.483	26514
805.626	26678
805.768	26434
805.91	26522
806.052	26621
806.194	26469
806.336	26678
806.478	26396
806.62	26507
806.762	26587
806.904	26758
807.046	26944
807.188	26933
807.33	26906
807.472	27017
807.614	26872
807.756	26853
807.898	26792
808.04	26743
808.182	26788
808.324	26762
808.465	26773
808.607	26982
808.749	27218
808.891	27195
809.033	27150
809.174	27268
809.316	26979
809.458	27032
809.6	27119
809.741	27302
809.883	27321
810.025	27408
810.166	27355
810.308	27317
810.45	27306
810.591	27233
810.733	27249
810.875	27096
811.016	27085
811.158	27020
811.299	27226
811.441	27325
811.582	27252
811.724	27074
811.865	27047
812.007	27108
812.148	27093
812.29	27146
812.431	27302
812.573	27424
812.714	27466
812.855	27660
812.997	27701
813.138	27751
813.279	27743
813.421	27568
813.562	27595
813.703	27241
813.845	27272
813.986	27017
814.127	27055
814.268	26785
814.41	26815
814.551	26712
814.692	26785
814.833	26712
814.974	26617
815.115	26754
815.256	26701
815.397	26693
815.539	26686
815.68	26564
815.821	26450
815.962	26541
816.103	26438
816.244	26423
816.385	26259
816.526	26309
816.666	26122
816.807	26035
816.948	26111
817.089	26206
817.23	25997
817.371	25936
817.512	25989
817.653	26073
817.793	25875
817.934	25986
818.075	26111
818.216	26073
818.356	25925
818.497	25738
818.638	25780
818.778	25708
818.919	25993
819.06	25826
819.2	25830
819.341	25951
819.481	25970
819.622	26164
819.762	26294
819.903	26275
820.043	26206
820.184	26054
820.324	26039
820.465	26157
820.605	26157
820.746	26081
820.886	26016
821.026	26115
821.167	26016
821.307	26100
821.447	25898
821.588	25753
821.728	25818
821.868	25597
822.008	25567
822.149	25499
822.289	25350
822.429	25194
822.569	25148
822.709	25240
822.849	25076
822.99	25015
823.13	25080
823.27	24935
823.41	24829
823.55	24760
823.69	24829
823.83	24882
823.97	24844
824.11	24547
824.25	24486
824.389	24593
824.529	24741
824.669	24639
824.809	24779
824.949	24650
825.089	24677
825.228	24570
825.368	24505
825.508	24399
825.648	24403
825.787	24448
825.927	24551
826.067	24490
826.206	24528
826.346	24505
826.485	24597
826.625	24502
826.765	24616
826.904	24517
827.044	24414
827.183	24262
827.323	24194
827.462	24270
827.601	24365
827.741	24289
827.88	24152
828.02	24106
828.159	24140
828.298	24171
828.437	24380
828.577	24087
828.716	24152
828.855	24114
828.994	23935
829.134	23916
829.273	23935
829.412	23889
829.551	23729
829.69	23920
829.829	23977
829.968	23973
830.107	23889
830.246	24057
830.385	23718
830.524	23836
830.663	23649
830.802	23668
830.941	23497
831.08	23474
831.219	23627
831.357	23589
831.496	23699
831.635	23531
831.774	23334
831.913	23436
832.051	23242
832.19	23330
832.329	23368
832.467	23216
832.606	23174
832.744	23079
832.883	23155
833.022	23037
833.16	23239
833.299	23269
833.437	23151
833.576	23220
833.714	23208
833.852	23239
833.991	23379
834.129	23254
834.267	23265
834.406	23296
834.544	23391
834.682	23299
834.821	23147
834.959	23436
835.097	23223
835.235	23258
835.373	23288
835.511	23265
835.65	23075
835.788	23044
835.926	22976
836.064	22881
836.202	22991
836.34	23056
836.478	23185
836.615	23109
836.753	23117
836.891	22976
837.029	23197
837.167	22889
837.305	23010
837.443	22999
837.58	22904
837.718	23094
837.856	23060
837.993	22923
838.131	22938
838.269	22900
838.406	22839
838.544	22866
838.681	22660
838.819	22660
838.956	22504
839.094	22485
839.231	22508
839.369	22557
839.506	22759
839.643	22656
839.781	22382
839.918	22310
840.055	22440
840.193	22375
840.33	22421
840.467	22333
840.604	22485
840.742	22603
840.879	22230
841.016	22306
841.153	22261
841.29	22489
841.427	22352
841.564	22337
841.701	22246
841.838	22295
841.975	22158
842.112	22238
842.249	22268
842.385	22226
842.522	22432
842.659	22261
842.796	22166
842.933	22044
843.069	22032
843.206	21987
843.343	22360
843.479	22128
843.616	22150
843.752	21823
843.889	21956
844.025	21968
844.162	21941
844.298	21941
844.435	21994
844.571	21884
844.708	22055
844.844	22029
844.98	22074
845.117	21968
845.253	21854
845.389	21785
845.525	21797
845.661	21720
845.798	21614
845.934	21671
846.07	21557
846.206	21682
846.342	21762
846.478	21477
846.614	21504
846.75	21245
846.886	21500
847.022	21294
847.158	21447
847.294	21386
847.429	21534
847.565	21408
847.701	21724
847.837	21077
847.972	21119
848.108	21161
848.244	21028
848.379	21123
848.515	20948
848.65	20960
848.786	20960
848.921	20982
849.057	21032
849.192	21104
849.328	20975
849.463	20986
849.598	20800
849.734	20807
849.869	20754
850.004	20762
850.14	20838
850.275	20754
850.41	20724
850.545	20689
850.68	20697
850.815	20716
850.95	20636
851.085	20979
851.22	20773
851.355	20689
851.49	20800
851.625	20667
851.76	20705
851.895	20609
852.03	20731
852.165	20765
852.299	20838
852.434	20823
852.569	20750
852.703	20834
852.838	20853
852.973	20636
853.107	20788
853.242	20735
853.376	20644
853.511	20503
853.645	20590
853.78	20663
853.914	20613
854.048	20492
854.183	20575
854.317	20564
854.451	20750
854.585	20549
854.72	20461
854.854	20674
854.988	20541
855.122	20533
855.256	20393
855.39	20552
855.524	20670
855.658	20583
855.792	20617
855.926	20598
856.06	20575
856.194	20724
856.327	20609
856.461	20514
856.595	20499
856.729	20431
856.862	20545
856.996	20530
857.13	20663
857.263	20708
857.397	20606
857.53	20602
857.664	20522
857.797	20636
857.931	20636
858.064	20629
858.197	20552
858.331	20503
858.464	20514
858.597	20412
858.731	20469
858.864	20522
858.997	20480
859.13	20511
859.263	20533
859.396	20651
859.529	20651
859.662	20480
859.795	20457
859.928	20480
860.061	20705
860.194	20724
860.327	20552
860.46	20613
860.592	20663
860.725	20670
860.858	20743
860.99	20625
861.123	20412
861.256	20533
861.388	20575
861.521	21211
861.653	20507
861.786	20294
861.918	20355
862.05	20446
862.183	20537
862.315	20526
862.447	20602
862.58	20457
862.712	20278
862.844	20229
862.976	20229
863.108	20301
863.24	20796
863.372	20202
863.504	20172
863.636	20237
863.768	20309
863.9	20233
864.032	20202
864.164	20294
864.296	20256
864.428	20324
864.559	20317
864.691	20362
864.823	20305
864.954	20176
865.086	20183
865.217	20183
865.349	20077
865.48	20107
865.612	20286
865.743	20259
865.875	20164
866.006	20134
866.137	20240
866.269	20138
866.4	20050
866.531	20126
866.662	20054
866.793	20016
866.924	20115
867.055	20077
867.186	20050
867.317	20012
867.448	20069
867.579	20149
867.71	20069
867.841	20024
867.972	20058
868.103	19974
868.233	20100
868.364	20100
868.495	20214
868.625	20358
868.756	20484
868.886	20298
869.017	20370
869.147	20465
869.278	20522
869.408	20362
869.539	20446
869.669	20446
869.799	20446
869.929	20590
870.06	20454
870.19	20575
870.32	20640
870.45	20617
870.58	20743
870.71	20864
870.84	20788
870.97	20632
871.1	20788
871.23	20880
871.36	20876
871.489	20880
871.619	21005
871.749	20990
871.879	20933
872.008	21157
872.138	21058
872.267	20929
872.397	20948
872.526	20731
872.656	20880
872.785	20804
872.915	20971
873.044	21039
873.173	20933
873.303	21085
873.432	21009
873.561	21093
873.69	21066
873.819	20944
873.948	21165
874.077	20979
874.206	20963
874.335	20975
874.464	21020
874.593	21173
874.722	21085
874.851	21294
874.979	21264
875.108	21275
875.237	21203
875.365	21081
875.494	21135
875.623	21397
875.751	21108
875.88	21112
876.008	21325
876.136	21443
876.265	21622
876.393	21663
876.521	21648
876.65	21690
876.778	21705
876.906	21644
877.034	21485
877.162	21694
877.29	21496
877.418	21641
877.546	21553
877.674	21583
877.802	21568
877.93	21477
878.058	21629
878.185	21435
878.313	21637
878.441	21587
878.568	21340
878.696	21545
878.824	21583
878.951	21614
879.079	21686
879.206	22017
879.333	21728
879.461	21648
879.588	21660
879.715	21694
879.842	21774
879.97	21774
880.097	21515
880.224	21424
880.351	21534
880.478	21408
880.605	21344
880.732	21469
880.859	21572
880.986	21401
881.112	21477
881.239	21135
881.366	21157
881.493	21062
881.619	20944
881.746	20929
881.872	20963
881.999	20887
882.125	20937
882.252	21066
882.378	20895
882.505	21070
882.631	20986
882.757	20750
882.883	20769
883.01	20781
883.136	20640
883.262	20549
883.388	20594
883.514	20659
883.64	20819
883.766	20648
883.892	20579
884.018	20629
884.143	20609
884.269	20785
884.395	20347
884.52	20328
884.646	20358
884.772	20358
884.897	20328
885.023	20301
885.148	20545
885.274	20518
885.399	20412
885.524	20290
885.65	20415
885.775	20362
885.9	20355
886.025	20476
886.15	20393
886.275	20355
886.4	20305
886.525	20248
886.65	20328
886.775	20320
886.9	20434
887.025	20571
887.149	20180
887.274	20157
887.399	20206
887.523	20092
887.648	20043
887.773	20077
887.897	20096
888.021	20282
888.146	20088
888.27	20168
888.395	20180
888.519	20065
888.643	20199
888.767	20309
888.891	20039
889.015	19780
889.139	19947
889.263	20001
889.387	20069
889.511	20100
889.635	20103
889.759	20005
889.883	19894
890.006	19894
890.13	20016
890.254	19967
890.377	19932
890.501	19666
890.624	19715
890.748	19685
890.871	19666
890.995	19457
891.118	19365
891.241	19537
891.364	19533
891.488	19662
891.611	19548
891.734	19468
891.857	19537
891.98	19499
892.103	19556
892.226	19567
892.349	19445
892.471	19316
892.594	19434
892.717	19605
892.839	19388
892.962	19460
893.085	19552
893.207	19434
893.33	19324
893.452	19373
893.575	19441
893.697	19422
893.819	19514
893.941	19552
894.064	19559
894.186	19400
894.308	19346
894.43	19487
894.552	19525
894.674	19464
894.796	19373
894.918	19441
895.04	19441
895.161	19518
895.283	19449
895.405	19415
895.526	19392
895.648	19480
895.769	19491
895.891	19502
896.012	19483
896.134	19540
896.255	19445
896.376	19445
896.498	19441
896.619	19537
896.74	19381
896.861	19483
896.982	19769
897.103	19875
897.224	19696
897.345	19715
897.466	19635
897.587	19689
897.708	19860
897.828	19696
897.949	19582
898.07	19491
898.19	19605
898.311	19772
898.431	19662
898.552	19666
898.672	19814
898.792	19830
898.913	19635
899.033	19616
899.153	19521
899.273	19396
899.393	19468
899.513	19472
899.633	19411
899.753	19426
899.873	19373
899.993	19460
900.113	19430
900.232	19411
900.352	19373
900.472	19316
900.591	19156
900.711	19236
900.83	19187
900.95	19289
901.069	19327
901.189	19175
901.308	18970
901.427	18810
901.546	18863
901.665	18863
901.784	18787
901.904	18578
902.023	18665
902.141	18418
902.26	18380
902.379	18418
902.498	18369
902.617	18311
902.735	18323
902.854	18296
902.973	18213
903.091	18068
903.21	17980
903.328	18011
903.446	17851
903.565	17878
903.683	17752
903.801	17752
903.919	17824
904.038	17752
904.156	17604
904.274	17733
904.392	17585
904.51	17608
904.627	17611
904.745	17600
904.863	17676
904.981	17398
905.098	17235
905.216	17200
905.334	17265
905.451	17280
905.569	17273
905.686	17337
905.803	17296
905.921	17018
906.038	17174
906.155	17048
906.272	16835
906.389	16843
906.506	16828
906.623	16774
906.74	16805
906.857	16725
906.974	16755
907.091	16748
907.208	16797
907.324	16847
907.441	16733
907.557	16634
907.674	16577
907.79	16402
907.907	16481
908.023	16622
908.139	16550
908.256	16428
908.372	16421
908.488	16417
908.604	16257
908.72	16253
908.836	16276
908.952	16185
909.068	16246
909.184	16272
909.3	16196
909.415	16265
909.531	16230
909.647	16071
909.762	16013
909.878	16021
909.993	15975
910.108	15918
910.224	15915
910.339	15975
910.454	15823
910.57	15755
910.685	15682
910.8	15972
910.915	15926
911.03	15789
911.145	15660
911.259	15549
911.374	15625
911.489	15462
911.604	15351
911.718	15329
911.833	15401
911.947	15351
912.062	15195
912.176	15363
912.291	15405
912.405	15466
912.519	15576
912.633	15473
912.748	15367
912.862	15332
912.976	15199
913.09	15112
913.204	15237
913.318	15150
913.431	15233
913.545	15131
913.659	15317
913.772	15116
913.886	14971
914	14963
914.113	15100
914.226	15142
914.34	15070
914.453	14853
914.566	14914
914.68	14819
914.793	14727
914.906	14712
915.019	14564
915.132	14488
915.245	14613
915.358	14583
915.47	14511
915.583	14522
915.696	14427
915.809	14621
915.921	14708
916.034	14484
916.146	14438
916.259	14552
916.371	14457
916.483	14526
916.595	14499
916.708	14511
916.82	14469
916.932	14347
917.044	14317
917.156	14362
917.268	14328
917.38	14294
917.491	14248
917.603	14256
917.715	14313
917.826	14301
917.938	14195
918.049	14081
918.161	14233
918.272	14298
918.384	14317
918.495	14164
918.606	13951
918.717	13997
918.828	14054
918.939	14065
919.05	13944
919.161	14024
919.272	13837
919.383	13856
919.494	14035
919.604	14161
919.715	14054
919.826	13909
919.936	13909
920.047	14024
920.157	13997
920.267	14107
920.378	14100
920.488	13936
920.598	14157
920.708	14229
920.818	14126
920.928	14081
921.038	14351
921.148	14244
921.258	13955
921.368	13871
921.477	13700
921.587	13795
921.697	13677
921.806	13784
921.916	13727
922.025	13434
922.134	13453
922.244	13415
922.353	13422
922.462	13278
922.571	13221
922.68	13069
922.789	13057
922.898	13137
923.007	13019
923.116	13053
923.224	13050
923.333	12981
923.442	12943
923.55	12863
923.659	12871
923.767	12985
923.876	12814
923.984	12916
924.092	12791
924.201	12795
924.309	12859
924.417	12772
924.525	12814
924.633	12730
924.741	13537
924.849	12528
924.956	12703
925.064	12471
925.172	12399
925.279	12551
925.387	12456
925.494	12509
925.602	12665
925.709	12506
925.816	12403
925.924	12410
926.031	12509
926.138	12490
926.245	12422
926.352	12391
926.459	12513
926.566	12578
926.673	12376
926.779	12205
926.886	12235
926.993	12041
927.099	12087
927.206	12003
927.312	11965
927.419	12064
927.525	12022
927.631	12022
927.737	12030
927.843	11889
927.95	11836
928.056	11813
928.162	11939
928.267	11897
928.373	12471
928.479	11931
928.585	11680
928.69	11783
928.796	11897
928.901	11745
929.007	11729
929.112	11790
929.218	11767
929.323	11661
929.428	11642
929.533	11710
929.638	11570
929.743	11566
929.848	11642
929.953	11421
930.058	11490
930.163	11398
930.267	11334
930.372	11486
930.477	11341
930.581	11623
930.685	11307
930.79	11181
930.894	11254
930.998	11128
931.103	11337
931.207	10957
931.311	10904
931.415	10919
931.519	10630
931.623	10649
