Data from test_V78500241_3013.txt Node
Date: Fri Mar 25 15:30:50 CST 2022
User: usil
Spectrometer: V785-0024
Trigger mode: 0
Integration Time (sec): 4.000000E-1
Scans to average: 1
Nonlinearity correction enabled: false
Boxcar width: 0
Storing dark spectrum: false
XAxis mode: Wavelengths
Number of Pixels in Spectrum: 1024
>>>>>Begin Spectral Data<<<<<
801.071	27222
801.214	27237
801.356	26944
801.499	26952
801.641	26807
801.783	26746
801.926	26811
802.068	26632
802.211	26617
802.353	26655
802.496	26507
802.638	26560
802.78	26511
802.923	26366
803.065	26370
803.208	26229
803.35	26317
803.492	26522
803.635	26560
803.777	26408
803.919	26613
804.061	26944
804.204	26701
804.346	26473
804.488	26507
804.63	26648
804.773	26351
804.915	26602
805.057	26571
805.199	26587
805.341	26530
805.483	26735
805.626	26667
805.768	26476
805.91	26788
806.052	26743
806.194	26724
806.336	26895
806.478	26724
806.62	26651
806.762	26773
806.904	26940
807.046	27245
807.188	27146
807.33	27100
807.472	27214
807.614	26952
807.756	27043
807.898	26880
808.04	26998
808.182	26937
808.324	26906
808.465	26910
808.607	27169
808.749	27245
808.891	27359
809.033	27363
809.174	27389
809.316	27241
809.458	27359
809.6	27348
809.741	27344
809.883	27317
810.025	27473
810.166	27652
810.308	27652
810.45	27580
810.591	27507
810.733	27439
810.875	27074
811.016	27100
811.158	27127
811.299	27420
811.441	27595
811.582	27515
811.724	27340
811.865	27093
812.007	27214
812.148	27291
812.29	27275
812.431	27587
812.573	27542
812.714	27743
812.855	27751
812.997	27857
813.138	27918
813.279	27972
813.421	27686
813.562	27774
813.703	27580
813.845	27545
813.986	27203
814.127	27135
814.268	26952
814.41	26948
814.551	27047
814.692	26925
814.833	26887
814.974	27009
815.115	27043
815.256	26868
815.397	26910
815.539	26857
815.68	26724
815.821	26575
815.962	26708
816.103	26826
816.244	26598
816.385	26575
816.526	26427
816.666	26320
816.807	26218
816.948	26393
817.089	26412
817.23	26271
817.371	26161
817.512	26415
817.653	26149
817.793	26187
817.934	26122
818.075	26180
818.216	26206
818.356	25963
818.497	26073
818.638	25871
818.778	25856
818.919	25982
819.06	25875
819.2	26122
819.341	26309
819.481	26077
819.622	26320
819.762	26602
819.903	26377
820.043	26324
820.184	26332
820.324	26240
820.465	26328
820.605	26309
820.746	26153
820.886	26183
821.026	26168
821.167	26172
821.307	26389
821.447	26202
821.588	26100
821.728	25974
821.868	25727
822.008	25666
822.149	25689
822.289	25552
822.429	25426
822.569	25472
822.709	25278
822.849	25213
822.99	25206
823.13	25126
823.27	25061
823.41	25027
823.55	24947
823.69	25057
823.83	25072
823.97	24829
824.11	24795
824.25	24681
824.389	24654
824.529	24837
824.669	24783
824.809	24905
824.949	24935
825.089	24901
825.228	24886
825.368	24604
825.508	24631
825.648	24582
825.787	24825
825.927	24639
826.067	24703
826.206	24650
826.346	24692
826.485	24726
826.625	24707
826.765	24779
826.904	24776
827.044	24399
827.183	24494
827.323	24357
827.462	24429
827.601	24300
827.741	24369
827.88	24300
828.02	24258
828.159	24311
828.298	24296
828.437	24338
828.577	24277
828.716	24350
828.855	24182
828.994	24049
829.134	24087
829.273	24083
829.412	24057
829.551	23980
829.69	24053
829.829	24235
829.968	24258
830.107	24121
830.246	24125
830.385	24011
830.524	23851
830.663	23802
830.802	23870
830.941	23741
831.08	23611
831.219	23874
831.357	23832
831.496	23946
831.635	23623
831.774	23657
831.913	23570
832.051	23501
832.19	23376
832.329	23376
832.467	23398
832.606	23250
832.744	23303
832.883	23353
833.022	23341
833.16	23387
833.299	23406
833.437	23387
833.576	23376
833.714	23493
833.852	23459
833.991	23398
834.129	23509
834.267	23554
834.406	23493
834.544	23402
834.682	23440
834.821	23452
834.959	23589
835.097	23296
835.235	23524
835.373	23303
835.511	23326
835.65	23318
835.788	23303
835.926	23128
836.064	22965
836.202	22968
836.34	23284
836.478	23345
836.615	23223
836.753	23246
836.891	23303
837.029	23334
837.167	23235
837.305	23113
837.443	23159
837.58	23162
837.718	23159
837.856	23025
837.993	22987
838.131	22980
838.269	22984
838.406	23033
838.544	22889
838.681	22820
838.819	22748
838.956	22588
839.094	22656
839.231	22573
839.369	22615
839.506	23003
839.643	22896
839.781	22588
839.918	22424
840.055	22462
840.193	22413
840.33	22485
840.467	22485
840.604	22546
840.742	22801
840.879	22371
841.016	22348
841.153	22280
841.29	22626
841.427	22451
841.564	22580
841.701	22504
841.838	22382
841.975	22432
842.112	22394
842.249	22295
842.385	22398
842.522	22527
842.659	22318
842.796	22367
842.933	22310
843.069	22166
843.206	22162
843.343	22325
843.479	22211
843.616	22268
843.752	22048
843.889	22036
844.025	22150
844.162	21972
844.298	22135
844.435	22036
844.571	21972
844.708	22067
844.844	22162
844.98	22223
845.117	22207
845.253	21892
845.389	21876
845.525	21816
845.661	21865
845.798	21709
845.934	21701
846.07	21774
846.206	21701
846.342	21831
846.478	21766
846.614	21507
846.75	21450
846.886	21572
847.022	21568
847.158	21519
847.294	21466
847.429	21481
847.565	21428
847.701	21682
847.837	21268
847.972	21279
848.108	21249
848.244	21351
848.379	21077
848.515	21020
848.65	21135
848.786	21157
848.921	20994
849.057	21131
849.192	21009
849.328	21176
849.463	21043
849.598	21055
849.734	21005
849.869	20941
850.004	20861
850.14	20906
850.275	20918
850.41	20750
850.545	20842
850.68	20796
850.815	20895
850.95	20765
851.085	20975
851.22	21005
851.355	20826
851.49	20883
851.625	20880
851.76	20868
851.895	20769
852.03	20712
852.165	20937
852.299	20941
852.434	21013
852.569	20868
852.703	20861
852.838	20853
852.973	21066
853.107	21096
853.242	20765
853.376	20682
853.511	20590
853.645	20731
853.78	20815
853.914	20754
854.048	20552
854.183	20556
854.317	20667
854.451	20788
854.585	20689
854.72	20648
854.854	20663
854.988	20648
855.122	20674
855.256	20613
855.39	20625
855.524	20754
855.658	20689
855.792	20640
855.926	20640
856.06	20697
856.194	20678
856.327	20735
856.461	20625
856.595	20587
856.729	20571
856.862	20674
856.996	20689
857.13	20678
857.263	20762
857.397	20568
857.53	20739
857.664	20670
857.797	20781
857.931	20826
858.064	20746
858.197	20788
858.331	20644
858.464	20621
858.597	20541
858.731	20606
858.864	20629
858.997	20609
859.13	20716
859.263	20720
859.396	20670
859.529	20663
859.662	20659
859.795	20674
859.928	20697
860.061	20819
860.194	20861
860.327	20769
860.46	20746
860.592	20754
860.725	20876
860.858	20750
860.99	20674
861.123	20571
861.256	20530
861.388	20731
861.521	21298
861.653	20537
861.786	20469
861.918	20423
862.05	20488
862.183	20606
862.315	20682
862.447	20602
862.58	20648
862.712	20423
862.844	20404
862.976	20473
863.108	20469
863.24	20925
863.372	20320
863.504	20385
863.636	20370
863.768	20564
863.9	20301
864.032	20396
864.164	20324
864.296	20393
864.428	20499
864.559	20408
864.691	20442
864.823	20374
864.954	20389
865.086	20317
865.217	20332
865.349	20286
865.48	20259
865.612	20275
865.743	20415
865.875	20332
866.006	20252
866.137	20301
866.269	20214
866.4	20256
866.531	20107
866.662	20187
866.793	20180
866.924	20161
867.055	20259
867.186	20309
867.317	20233
867.448	20119
867.579	20229
867.71	20035
867.841	20115
867.972	20210
868.103	20309
868.233	20252
868.364	20187
868.495	20324
868.625	20408
868.756	20495
868.886	20419
869.017	20484
869.147	20720
869.278	20587
869.408	20492
869.539	20507
869.669	20549
869.799	20598
869.929	20632
870.06	20549
870.19	20872
870.32	20743
870.45	20769
870.58	20910
870.71	21070
870.84	20971
870.97	20868
871.1	20944
871.23	20979
871.36	21161
871.489	21001
871.619	21047
871.749	21089
871.879	21066
872.008	21104
872.138	20982
872.267	21005
872.397	20937
872.526	20880
872.656	20998
872.785	20910
872.915	21055
873.044	21157
873.173	21207
873.303	21207
873.432	21081
873.561	21157
873.69	21066
873.819	21043
873.948	21188
874.077	21119
874.206	21116
874.335	21146
874.464	21237
874.593	21310
874.722	21275
874.851	21317
874.979	21344
875.108	21511
875.237	21351
875.365	21195
875.494	21382
875.623	21458
875.751	21306
875.88	21405
876.008	21526
876.136	21545
876.265	21778
876.393	21785
876.521	21827
876.65	21762
876.778	21762
876.906	21660
877.034	21717
877.162	21637
877.29	21618
877.418	21751
877.546	21618
877.674	21793
877.802	21816
877.93	21690
878.058	21652
878.185	21534
878.313	21682
878.441	21739
878.568	21526
878.696	21561
878.824	21625
878.951	21701
879.079	21972
879.206	21964
879.333	21789
879.461	21663
879.588	21743
879.715	21789
879.842	22051
879.97	21781
880.097	21481
880.224	21473
880.351	21557
880.478	21572
880.605	21515
880.732	21504
880.859	21808
880.986	21576
881.112	21606
881.239	21291
881.366	21272
881.493	21218
881.619	21165
881.746	21131
881.872	21074
881.999	21017
882.125	21028
882.252	21108
882.378	21116
882.505	21176
882.631	21020
882.757	20872
882.883	20929
883.01	20792
883.136	20781
883.262	20712
883.388	20632
883.514	20956
883.64	20796
883.766	20727
883.892	20636
884.018	20533
884.143	20735
884.269	20792
884.395	20545
884.52	20541
884.646	20454
884.772	20404
884.897	20355
885.023	20457
885.148	20480
885.274	20613
885.399	20465
885.524	20408
885.65	20507
885.775	20454
885.9	20374
886.025	20537
886.15	20514
886.275	20377
886.4	20259
886.525	20362
886.65	20412
886.775	20298
886.9	20480
887.025	20708
887.149	20366
887.274	20343
887.399	20202
887.523	20199
887.648	20233
887.773	20404
887.897	20415
888.021	20275
888.146	20130
888.27	20332
888.395	20381
888.519	20233
888.643	20206
888.767	20271
888.891	20122
889.015	20043
889.139	20149
889.263	20065
889.387	20142
889.511	20256
889.635	20157
889.759	20130
889.883	20054
890.006	20103
890.13	20161
890.254	20008
890.377	19921
890.501	19856
890.624	19704
890.748	19868
890.871	19719
890.995	19746
891.118	19552
891.241	19628
891.364	19613
891.488	19712
891.611	19628
891.734	19575
891.857	19761
891.98	19567
892.103	19559
892.226	19537
892.349	19571
892.471	19407
892.594	19476
892.717	19605
892.839	19487
892.962	19586
893.085	19632
893.207	19495
893.33	19293
893.452	19502
893.575	19525
893.697	19441
893.819	19620
893.941	19772
894.064	19639
894.186	19499
894.308	19510
894.43	19708
894.552	19677
894.674	19624
894.796	19407
894.918	19449
895.04	19510
895.161	19594
895.283	19575
895.405	19495
895.526	19468
895.648	19643
895.769	19563
895.891	19514
896.012	19647
896.134	19586
896.255	19502
896.376	19540
896.498	19544
896.619	19620
896.74	19525
896.861	19643
896.982	19868
897.103	20077
897.224	19833
897.345	19670
897.466	19734
897.587	19696
897.708	19909
897.828	19750
897.949	19586
898.07	19635
898.19	19761
898.311	19909
898.431	19818
898.552	19772
898.672	19887
898.792	19845
898.913	19734
899.033	19670
899.153	19639
899.273	19419
899.393	19483
899.513	19563
899.633	19377
899.753	19620
899.873	19525
899.993	19472
900.113	19441
900.232	19453
900.352	19480
900.472	19324
900.591	19320
900.711	19407
900.83	19266
900.95	19510
901.069	19388
901.189	19251
901.308	18962
901.427	18875
901.546	18867
901.665	18875
901.784	18867
901.904	18871
902.023	18696
902.141	18483
902.26	18498
902.379	18536
902.498	18490
902.617	18388
902.735	18426
902.854	18445
902.973	18350
903.091	18095
903.21	18121
903.328	18117
903.446	18072
903.565	17843
903.683	17885
903.801	17813
903.919	17923
904.038	17920
904.156	17710
904.274	17726
904.392	17695
904.51	17714
904.627	17661
904.745	17653
904.863	17710
904.981	17478
905.098	17360
905.216	17387
905.334	17356
905.451	17337
905.569	17189
905.686	17318
905.803	17387
905.921	17166
906.038	17303
906.155	17250
906.272	17056
906.389	17155
906.506	16896
906.623	16927
906.74	16911
906.857	16759
906.974	16755
907.091	16919
907.208	17022
907.324	16812
907.441	16839
907.557	16691
907.674	16603
907.79	16577
907.907	16565
908.023	16672
908.139	16577
908.256	16622
908.372	16478
908.488	16500
908.604	16337
908.72	16325
908.836	16379
908.952	16333
909.068	16314
909.184	16417
909.3	16341
909.415	16341
909.531	16287
909.647	16120
909.762	16059
909.878	16048
909.993	16078
910.108	15949
910.224	16074
910.339	16097
910.454	15876
910.57	15869
910.685	15842
910.8	16078
910.915	16013
911.03	15903
911.145	15625
911.259	15587
911.374	15641
911.489	15538
911.604	15431
911.718	15492
911.833	15469
911.947	15252
912.062	15249
912.176	15473
912.291	15435
912.405	15481
912.519	15564
912.633	15690
912.748	15485
912.862	15447
912.976	15241
913.09	15051
913.204	15119
913.318	15268
913.431	15336
913.545	15329
913.659	15367
913.772	15203
913.886	15077
914	15051
914.113	15055
914.226	15051
914.34	15093
914.453	14963
914.566	15043
914.68	14994
914.793	14895
914.906	14682
915.019	14724
915.132	14583
915.245	14651
915.358	14754
915.47	14651
915.583	14579
915.696	14701
915.809	14754
915.921	14777
916.034	14575
916.146	14552
916.259	14568
916.371	14602
916.483	14602
916.595	14465
916.708	14541
916.82	14590
916.932	14450
917.044	14374
917.156	14343
917.268	14366
917.38	14301
917.491	14404
917.603	14343
917.715	14465
917.826	14465
917.938	14240
918.049	14214
918.161	14324
918.272	14286
918.384	14419
918.495	14191
918.606	14142
918.717	14077
918.828	14027
918.939	14100
919.05	13982
919.161	14016
919.272	13879
919.383	13993
919.494	14153
919.604	14210
919.715	14134
919.826	13978
919.936	14035
920.047	14149
920.157	14073
920.267	14149
920.378	14069
920.488	14020
920.598	14180
920.708	14324
920.818	14214
920.928	14145
921.038	14370
921.148	14305
921.258	14054
921.368	13909
921.477	13841
921.587	13837
921.697	13643
921.806	13936
921.916	13643
922.025	13510
922.134	13506
922.244	13434
922.353	13548
922.462	13320
922.571	13297
922.68	13114
922.789	13084
922.898	13107
923.007	13072
923.116	13133
923.224	13076
923.333	13050
923.442	13012
923.55	12977
923.659	12962
923.767	12981
923.876	12882
923.984	12947
924.092	12867
924.201	12901
924.309	12913
924.417	12909
924.525	12783
924.633	12764
924.741	13533
924.849	12578
924.956	12722
925.064	12486
925.172	12410
925.279	12563
925.387	12547
925.494	12544
925.602	12646
925.709	12612
925.816	12426
925.924	12475
926.031	12551
926.138	12544
926.245	12517
926.352	12445
926.459	12642
926.566	12589
926.673	12403
926.779	12369
926.886	12384
926.993	12144
927.099	12235
927.206	12098
927.312	12114
927.419	12182
927.525	12136
927.631	12144
927.737	12072
927.843	11996
927.95	11912
928.056	11977
928.162	12022
928.267	11939
928.373	12631
928.479	12034
928.585	11794
928.69	11939
928.796	11923
928.901	11794
929.007	11764
929.112	11783
929.218	11832
929.323	11665
929.428	11688
929.533	11969
929.638	11558
929.743	11649
929.848	11737
929.953	11634
930.058	11532
930.163	11402
930.267	11337
930.372	11505
930.477	11372
930.581	11566
930.685	11459
930.79	11364
930.894	11201
930.998	11250
931.103	11391
931.207	11090
931.311	10904
931.415	10908
931.519	10637
931.623	10710
