Data from test_V78500241_1427.txt Node
Date: Fri Mar 25 15:19:47 CST 2022
User: usil
Spectrometer: V785-0024
Trigger mode: 0
Integration Time (sec): 4.000000E-1
Scans to average: 1
Nonlinearity correction enabled: false
Boxcar width: 0
Storing dark spectrum: false
XAxis mode: Wavelengths
Number of Pixels in Spectrum: 1024
>>>>>Begin Spectral Data<<<<<
801.071	28055
801.214	27975
801.356	27739
801.499	27618
801.641	27530
801.783	27576
801.926	27606
802.068	27496
802.211	27492
802.353	27443
802.496	27245
802.638	27146
802.78	27176
802.923	27165
803.065	27028
803.208	27062
803.35	27214
803.492	27355
803.635	27500
803.777	27218
803.919	27439
804.061	27671
804.204	27542
804.346	27306
804.488	27287
804.63	27504
804.773	27351
804.915	27424
805.057	27545
805.199	27382
805.341	27416
805.483	27450
805.626	27492
805.768	27378
805.91	27561
806.052	27515
806.194	27401
806.336	27743
806.478	27545
806.62	27412
806.762	27732
806.904	27660
807.046	28059
807.188	27979
807.33	27884
807.472	28051
807.614	27899
807.756	27850
807.898	27956
808.04	27736
808.182	27835
808.324	27972
808.465	27949
808.607	27991
808.749	28223
808.891	28265
809.033	28325
809.174	28325
809.316	28238
809.458	28185
809.6	28287
809.741	28310
809.883	28401
810.025	28504
810.166	28504
810.308	28554
810.45	28322
810.591	28337
810.733	28215
810.875	28211
811.016	28105
811.158	28139
811.299	28291
811.441	28462
811.582	28318
811.724	28253
811.865	28150
812.007	28223
812.148	28284
812.29	28291
812.431	28329
812.573	28474
812.714	28702
812.855	28809
812.997	28862
813.138	28930
813.279	28873
813.421	28683
813.562	28793
813.703	28611
813.845	28348
813.986	28207
814.127	27895
814.268	27911
814.41	27892
814.551	27949
814.692	27960
814.833	27918
814.974	27743
815.115	27987
815.256	27778
815.397	27873
815.539	27766
815.68	27686
815.821	27538
815.962	27698
816.103	27789
816.244	27633
816.385	27450
816.526	27427
816.666	27348
816.807	27135
816.948	27188
817.089	27275
817.23	27306
817.371	27142
817.512	27146
817.653	27036
817.793	27150
817.934	27275
818.075	27199
818.216	27226
818.356	27001
818.497	27055
818.638	26880
818.778	26796
818.919	26933
819.06	26842
819.2	27112
819.341	27138
819.481	27264
819.622	27291
819.762	27557
819.903	27561
820.043	27279
820.184	27298
820.324	27226
820.465	27412
820.605	27294
820.746	27382
820.886	27203
821.026	27264
821.167	27161
821.307	27180
821.447	27188
821.588	27096
821.728	27116
821.868	26811
822.008	26750
822.149	26606
822.289	26670
822.429	26313
822.569	26183
822.709	26336
822.849	26206
822.99	26286
823.13	26020
823.27	25986
823.41	25814
823.55	25826
823.69	26043
823.83	26073
823.97	26039
824.11	25814
824.25	25750
824.389	25860
824.529	25856
824.669	25784
824.809	26119
824.949	25978
825.089	26012
825.228	25852
825.368	25639
825.508	25677
825.648	25674
825.787	25609
825.927	25734
826.067	25590
826.206	25696
826.346	25704
826.485	25628
826.625	25715
826.765	25852
826.904	25666
827.044	25476
827.183	25468
827.323	25354
827.462	25499
827.601	25430
827.741	25354
827.88	25457
828.02	25251
828.159	25438
828.298	25346
828.437	25343
828.577	25308
828.716	25415
828.855	25183
828.994	25095
829.134	25114
829.273	25099
829.412	25034
829.551	24951
829.69	25145
829.829	25122
829.968	25289
830.107	25141
830.246	25034
830.385	25065
830.524	24996
830.663	24863
830.802	24692
830.941	24703
831.08	24661
831.219	24711
831.357	24787
831.496	24882
831.635	24639
831.774	24517
831.913	24384
832.051	24380
832.19	24494
832.329	24536
832.467	24350
832.606	24117
832.744	24311
832.883	24357
833.022	24277
833.16	24456
833.299	24547
833.437	24410
833.576	24388
833.714	24304
833.852	24467
833.991	24418
834.129	24399
834.267	24456
834.406	24342
834.544	24437
834.682	24350
834.821	24426
834.959	24563
835.097	24384
835.235	24498
835.373	24437
835.511	24262
835.65	24205
835.788	24197
835.926	24068
836.064	24022
836.202	24011
836.34	24152
836.478	24456
836.615	24174
836.753	24247
836.891	24350
837.029	24308
837.167	24228
837.305	24171
837.443	24171
837.58	24034
837.718	24068
837.856	24220
837.993	24018
838.131	24121
838.269	23882
838.406	24003
838.544	23958
838.681	23733
838.819	23714
838.956	23600
839.094	23547
839.231	23566
839.369	23665
839.506	23783
839.643	23786
839.781	23531
839.918	23406
840.055	23410
840.193	23512
840.33	23391
840.467	23467
840.604	23395
840.742	23680
840.879	23284
841.016	23368
841.153	23311
841.29	23589
841.427	23433
841.564	23387
841.701	23414
841.838	23455
841.975	23299
842.112	23288
842.249	23273
842.385	23124
842.522	23330
842.659	23315
842.796	23086
842.933	23136
843.069	23136
843.206	23181
843.343	23220
843.479	23292
843.616	23113
843.752	23044
843.889	22965
844.025	23086
844.162	22968
844.298	23090
844.435	23048
844.571	23010
844.708	23098
844.844	23159
844.98	23136
845.117	23044
845.253	23033
845.389	22839
845.525	22847
845.661	22877
845.798	22664
845.934	22744
846.07	22748
846.206	22702
846.342	22812
846.478	22626
846.614	22447
846.75	22409
846.886	22500
847.022	22459
847.158	22390
847.294	22455
847.429	22440
847.565	22497
847.701	22706
847.837	22162
847.972	22177
848.108	22322
848.244	22196
848.379	22120
848.515	22063
848.65	22120
848.786	22025
848.921	21994
849.057	22086
849.192	22070
849.328	22025
849.463	21968
849.598	22032
849.734	21895
849.869	21842
850.004	21736
850.14	21736
850.275	21778
850.41	21785
850.545	21709
850.68	21701
850.815	21800
850.95	21823
851.085	21876
851.22	21857
851.355	21861
851.49	21774
851.625	21717
851.76	21709
851.895	21739
852.03	21694
852.165	21743
852.299	21869
852.434	21800
852.569	21713
852.703	21774
852.838	21823
852.973	21979
853.107	21922
853.242	21770
853.376	21679
853.511	21515
853.645	21580
853.78	21652
853.914	21549
854.048	21599
854.183	21644
854.317	21641
854.451	21774
854.585	21637
854.72	21572
854.854	21778
854.988	21564
855.122	21557
855.256	21599
855.39	21705
855.524	21694
855.658	21663
855.792	21675
855.926	21720
856.06	21614
856.194	21785
856.327	21709
856.461	21625
856.595	21500
856.729	21580
856.862	21854
856.996	21614
857.13	21663
857.263	21709
857.397	21732
857.53	21698
857.664	21637
857.797	21663
857.931	21724
858.064	21682
858.197	21724
858.331	21656
858.464	21515
858.597	21428
858.731	21534
858.864	21713
858.997	21610
859.13	21568
859.263	21667
859.396	21667
859.529	21648
859.662	21599
859.795	21641
859.928	21660
860.061	21679
860.194	21766
860.327	21709
860.46	21542
860.592	21679
860.725	21770
860.858	21724
860.99	21679
861.123	21507
861.256	21500
861.388	21599
861.521	22215
861.653	21462
861.786	21511
861.918	21424
862.05	21481
862.183	21462
862.315	21625
862.447	21603
862.58	21420
862.712	21351
862.844	21237
862.976	21504
863.108	21389
863.24	21789
863.372	21344
863.504	21249
863.636	21336
863.768	21389
863.9	21344
864.032	21245
864.164	21378
864.296	21351
864.428	21447
864.559	21424
864.691	21454
864.823	21378
864.954	21260
865.086	21222
865.217	21176
865.349	21157
865.48	21180
865.612	21233
865.743	21245
865.875	21264
866.006	21241
866.137	21150
866.269	21256
866.4	21146
866.531	21161
866.662	21176
866.793	21093
866.924	21264
867.055	21138
867.186	21180
867.317	21195
867.448	21074
867.579	21096
867.71	21047
867.841	21089
867.972	21199
868.103	21127
868.233	21077
868.364	21089
868.495	21249
868.625	21252
868.756	21397
868.886	21306
869.017	21351
869.147	21504
869.278	21580
869.408	21256
869.539	21435
869.669	21412
869.799	21298
869.929	21386
870.06	21443
870.19	21705
870.32	21652
870.45	21660
870.58	21679
870.71	21804
870.84	21911
870.97	21861
871.1	21770
871.23	21926
871.36	21888
871.489	21911
871.619	21842
871.749	21945
871.879	22025
872.008	22246
872.138	21983
872.267	21842
872.397	21800
872.526	21899
872.656	21827
872.785	21724
872.915	21998
873.044	21934
873.173	21937
873.303	21994
873.432	22055
873.561	22044
873.69	21930
873.819	21979
873.948	22131
874.077	21956
874.206	21892
874.335	21975
874.464	22139
874.593	22299
874.722	22093
874.851	22318
874.979	22185
875.108	22356
875.237	22177
875.365	22082
875.494	22131
875.623	22268
875.751	22192
875.88	22299
876.008	22276
876.136	22398
876.265	22580
876.393	22683
876.521	22763
876.65	22683
876.778	22660
876.906	22618
877.034	22504
877.162	22557
877.29	22474
877.418	22691
877.546	22527
877.674	22561
877.802	22645
877.93	22459
878.058	22440
878.185	22451
878.313	22447
878.441	22538
878.568	22356
878.696	22459
878.824	22470
878.951	22660
879.079	22744
879.206	22900
879.333	22729
879.461	22588
879.588	22630
879.715	22740
879.842	22729
879.97	22660
880.097	22310
880.224	22314
880.351	22478
880.478	22329
880.605	22261
880.732	22459
880.859	22649
880.986	22485
881.112	22341
881.239	22090
881.366	22162
881.493	22040
881.619	21987
881.746	21876
881.872	22017
881.999	22013
882.125	21781
882.252	22109
882.378	21911
882.505	22040
882.631	21736
882.757	21743
882.883	21778
883.01	21641
883.136	21606
883.262	21481
883.388	21542
883.514	21724
883.64	21747
883.766	21568
883.892	21389
884.018	21367
884.143	21576
884.269	21648
884.395	21420
884.52	21302
884.646	21355
884.772	21348
884.897	21245
885.023	21325
885.148	21382
885.274	21454
885.399	21351
885.524	21272
885.65	21370
885.775	21386
885.9	21287
886.025	21401
886.15	21336
886.275	21325
886.4	21252
886.525	21249
886.65	21233
886.775	21222
886.9	21428
887.025	21462
887.149	21283
887.274	21108
887.399	21036
887.523	21036
887.648	21005
887.773	20986
887.897	21275
888.021	21013
888.146	20963
888.27	21020
888.395	21009
888.519	21081
888.643	21062
888.767	21116
888.891	20960
889.015	20834
889.139	20868
889.263	20921
889.387	20872
889.511	20895
889.635	20906
889.759	20731
889.883	20826
890.006	20872
890.13	20925
890.254	20781
890.377	20750
890.501	20655
890.624	20606
890.748	20792
890.871	20636
890.995	20446
891.118	20434
891.241	20602
891.364	20415
891.488	20454
891.611	20389
891.734	20351
891.857	20507
891.98	20419
892.103	20259
892.226	20377
892.349	20377
892.471	20282
892.594	20218
892.717	20423
892.839	20362
892.962	20381
893.085	20396
893.207	20328
893.33	20244
893.452	20263
893.575	20454
893.697	20336
893.819	20415
893.941	20434
894.064	20351
894.186	20183
894.308	20290
894.43	20347
894.552	20427
894.674	20362
894.796	20256
894.918	20305
895.04	20218
895.161	20374
895.283	20202
895.405	20161
895.526	20256
895.648	20237
895.769	20275
895.891	20305
896.012	20351
896.134	20313
896.255	20267
896.376	20267
896.498	20355
896.619	20313
896.74	20278
896.861	20393
896.982	20609
897.103	20670
897.224	20530
897.345	20499
897.466	20469
897.587	20560
897.708	20705
897.828	20587
897.949	20522
898.07	20370
898.19	20381
898.311	20579
898.431	20347
898.552	20396
898.672	20514
898.792	20617
898.913	20613
899.033	20431
899.153	20248
899.273	20164
899.393	20237
899.513	20244
899.633	20412
899.753	20206
899.873	20218
899.993	20256
900.113	20225
900.232	20248
900.352	20233
900.472	20050
900.591	19959
900.711	20050
900.83	19951
900.95	20145
901.069	20130
901.189	19811
901.308	19852
901.427	19567
901.546	19544
901.665	19723
901.784	19689
901.904	19499
902.023	19350
902.141	19240
902.26	19270
902.379	19225
902.498	19141
902.617	19168
902.735	19160
902.854	19076
902.973	19012
903.091	18886
903.21	18821
903.328	18798
903.446	18654
903.565	18616
903.683	18608
903.801	18494
903.919	18639
904.038	18498
904.156	18407
904.274	18429
904.392	18289
904.51	18285
904.627	18319
904.745	18319
904.863	18365
904.981	18220
905.098	17988
905.216	18076
905.334	18011
905.451	18190
905.569	18026
905.686	18057
905.803	18133
905.921	17843
906.038	17832
906.155	17931
906.272	17611
906.389	17748
906.506	17554
906.623	17551
906.74	17615
906.857	17467
906.974	17520
907.091	17554
907.208	17767
907.324	17585
907.441	17493
907.557	17239
907.674	17280
907.79	17181
907.907	17231
908.023	17402
908.139	17254
908.256	17162
908.372	17212
908.488	17105
908.604	17067
908.72	16835
908.836	17124
908.952	16949
909.068	17025
909.184	17102
909.3	16831
909.415	16984
909.531	16995
909.647	16744
909.762	16713
909.878	16694
909.993	16717
910.108	16599
910.224	16668
910.339	16698
910.454	16561
910.57	16535
910.685	16546
910.8	16736
910.915	16622
911.03	16516
911.145	16344
911.259	16276
911.374	16280
911.489	16284
911.604	16192
911.718	15994
911.833	16101
911.947	15915
912.062	15876
912.176	15994
912.291	15998
912.405	15994
912.519	16158
912.633	16211
912.748	16082
912.862	16139
912.976	15895
913.09	15652
913.204	15861
913.318	15880
913.431	15911
913.545	15857
913.659	16006
913.772	15762
913.886	15644
914	15648
914.113	15751
914.226	15732
914.34	15686
914.453	15530
914.566	15728
914.68	15580
914.793	15481
914.906	15237
915.019	15287
915.132	15214
915.245	15226
915.358	15275
915.47	15348
915.583	15272
915.696	15268
915.809	15389
915.921	15302
916.034	15222
916.146	15112
916.259	15165
916.371	15268
916.483	15135
916.595	15135
916.708	15005
916.82	15169
916.932	14994
917.044	15051
917.156	15032
917.268	14868
917.38	14967
917.491	14857
917.603	14941
917.715	15039
917.826	14963
917.938	14914
918.049	14731
918.161	14811
918.272	15036
918.384	14975
918.495	14788
918.606	14629
918.717	14556
918.828	14708
918.939	14644
919.05	14655
919.161	14598
919.272	14415
919.383	14484
919.494	14651
919.604	14883
919.715	14602
919.826	14549
919.936	14518
920.047	14708
920.157	14644
920.267	14773
920.378	14541
920.488	14613
920.598	14758
920.708	14925
920.818	14811
920.928	14651
921.038	14899
921.148	14796
921.258	14541
921.368	14434
921.477	14374
921.587	14355
921.697	14263
921.806	14438
921.916	14168
922.025	14096
922.134	14016
922.244	13917
922.353	13974
922.462	13906
922.571	13761
922.68	13636
922.789	13586
922.898	13662
923.007	13578
923.116	13639
923.224	13616
923.333	13597
923.442	13502
923.55	13472
923.659	13491
923.767	13590
923.876	13373
923.984	13430
924.092	13365
924.201	13381
924.309	13320
924.417	13293
924.525	13316
924.633	13377
924.741	14054
924.849	13065
924.956	13190
925.064	13050
925.172	13099
925.279	12989
925.387	13110
925.494	12981
925.602	13209
925.709	13126
925.816	12954
925.924	13042
926.031	13095
926.138	13107
926.245	13099
926.352	12814
926.459	13061
926.566	13038
926.673	12848
926.779	12734
926.886	12798
926.993	12589
927.099	12544
927.206	12410
927.312	12528
927.419	12589
927.525	12631
927.631	12612
927.737	12578
927.843	12475
927.95	12281
928.056	12418
928.162	12403
928.267	12445
928.373	12954
928.479	12498
928.585	12308
928.69	12464
928.796	12380
928.901	12216
929.007	12186
929.112	12338
929.218	12285
929.323	12163
929.428	12106
929.533	12323
929.638	12079
929.743	12148
929.848	12171
929.953	12083
930.058	11931
930.163	11718
930.267	11851
930.372	11961
930.477	11794
930.581	11969
930.685	11828
930.79	11653
930.894	11775
930.998	11741
931.103	11805
931.207	11482
931.311	11303
931.415	11307
931.519	11060
931.623	11102
