Data from test_V78500241_1658.txt Node
Date: Fri Mar 25 15:21:24 CST 2022
User: usil
Spectrometer: V785-0024
Trigger mode: 0
Integration Time (sec): 4.000000E-1
Scans to average: 1
Nonlinearity correction enabled: false
Boxcar width: 0
Storing dark spectrum: false
XAxis mode: Wavelengths
Number of Pixels in Spectrum: 1024
>>>>>Begin Spectral Data<<<<<
801.071	27956
801.214	28021
801.356	27709
801.499	27686
801.641	27523
801.783	27454
801.926	27511
802.068	27572
802.211	27549
802.353	27393
802.496	27252
802.638	27180
802.78	27089
802.923	27062
803.065	27123
803.208	27036
803.35	27074
803.492	27306
803.635	27249
803.777	27230
803.919	27321
804.061	27694
804.204	27462
804.346	27401
804.488	27275
804.63	27420
804.773	27195
804.915	27313
805.057	27519
805.199	27348
805.341	27485
805.483	27488
805.626	27458
805.768	27310
805.91	27511
806.052	27561
806.194	27443
806.336	27591
806.478	27545
806.62	27587
806.762	27580
806.904	27835
807.046	28010
807.188	27937
807.33	27762
807.472	28044
807.614	27759
807.756	27766
807.898	27926
808.04	27808
808.182	27743
808.324	27835
808.465	27831
808.607	27926
808.749	28173
808.891	28082
809.033	28265
809.174	28162
809.316	28002
809.458	28120
809.6	28051
809.741	28207
809.883	28192
810.025	28531
810.166	28390
810.308	28390
810.45	28348
810.591	28242
810.733	28124
810.875	28223
811.016	27861
811.158	27949
811.299	28101
811.441	28238
811.582	28249
811.724	28109
811.865	28238
812.007	28204
812.148	28070
812.29	28219
812.431	28314
812.573	28314
812.714	28500
812.855	28538
812.997	28748
813.138	28888
813.279	28706
813.421	28668
813.562	28481
813.703	28303
813.845	28428
813.986	28070
814.127	28147
814.268	27804
814.41	27907
814.551	27911
814.692	27789
814.833	27720
814.974	27884
815.115	27865
815.256	27819
815.397	27774
815.539	27770
815.68	27488
815.821	27519
815.962	27732
816.103	27648
816.244	27587
816.385	27344
816.526	27321
816.666	27173
816.807	27176
816.948	27222
817.089	27112
817.23	27085
817.371	27089
817.512	27188
817.653	27096
817.793	27013
817.934	27032
818.075	27043
818.216	27104
818.356	27055
818.497	27127
818.638	26861
818.778	26701
818.919	26876
819.06	26880
819.2	27039
819.341	27268
819.481	27013
819.622	27203
819.762	27443
819.903	27241
820.043	27264
820.184	27336
820.324	27089
820.465	27370
820.605	27306
820.746	27131
820.886	27233
821.026	27211
821.167	27146
821.307	27279
821.447	27127
821.588	26994
821.728	26864
821.868	26701
822.008	26568
822.149	26560
822.289	26552
822.429	26282
822.569	26298
822.709	26294
822.849	26126
822.99	25955
823.13	25944
823.27	26043
823.41	25807
823.55	25830
823.69	25849
823.83	25928
823.97	25753
824.11	25772
824.25	25605
824.389	25727
824.529	25826
824.669	25727
824.809	25898
824.949	25875
825.089	25871
825.228	25780
825.368	25552
825.508	25594
825.648	25624
825.787	25651
825.927	25715
826.067	25655
826.206	25674
826.346	25563
826.485	25704
826.625	25712
826.765	25548
826.904	25662
827.044	25362
827.183	25464
827.323	25362
827.462	25479
827.601	25365
827.741	25263
827.88	25362
828.02	25297
828.159	25343
828.298	25320
828.437	25289
828.577	25244
828.716	25312
828.855	25282
828.994	25061
829.134	25012
829.273	25004
829.412	24958
829.551	24943
829.69	24875
829.829	25023
829.968	25145
830.107	24977
830.246	25160
830.385	24962
830.524	24966
830.663	24852
830.802	24593
830.941	24635
831.08	24578
831.219	24555
831.357	24669
831.496	24798
831.635	24661
831.774	24650
831.913	24532
832.051	24372
832.19	24521
832.329	24391
832.467	24338
832.606	24289
832.744	24216
832.883	24319
833.022	24350
833.16	24277
833.299	24342
833.437	24296
833.576	24357
833.714	24471
833.852	24513
833.991	24399
834.129	24467
834.267	24395
834.406	24334
834.544	24361
834.682	24376
834.821	24239
834.959	24544
835.097	24251
835.235	24353
835.373	24228
835.511	24266
835.65	24247
835.788	24273
835.926	24015
836.064	24057
836.202	23992
836.34	24121
836.478	24277
836.615	24167
836.753	24235
836.891	24289
837.029	24346
837.167	24022
837.305	24167
837.443	24136
837.58	24026
837.718	24068
837.856	24038
837.993	24011
838.131	23946
838.269	23935
838.406	23920
838.544	23805
838.681	23592
838.819	23707
838.956	23665
839.094	23570
839.231	23459
839.369	23619
839.506	23950
839.643	23863
839.781	23585
839.918	23493
840.055	23547
840.193	23440
840.33	23364
840.467	23356
840.604	23421
840.742	23524
840.879	23204
841.016	23372
841.153	23337
841.29	23531
841.427	23318
841.564	23471
841.701	23376
841.838	23410
841.975	23284
842.112	23239
842.249	23189
842.385	23254
842.522	23334
842.659	23315
842.796	23143
842.933	23284
843.069	23170
843.206	23128
843.343	23379
843.479	23254
843.616	23246
843.752	22816
843.889	23006
844.025	23064
844.162	22930
844.298	22995
844.435	22995
844.571	22919
844.708	22961
844.844	23102
844.98	23143
845.117	23128
845.253	22946
845.389	22786
845.525	22820
845.661	22786
845.798	22839
845.934	22710
846.07	22592
846.206	22649
846.342	22793
846.478	22656
846.614	22504
846.75	22421
846.886	22337
847.022	22596
847.158	22481
847.294	22413
847.429	22413
847.565	22443
847.701	22557
847.837	22169
847.972	22067
848.108	22344
848.244	22204
848.379	22128
848.515	21964
848.65	21915
848.786	22074
848.921	22029
849.057	22147
849.192	22112
849.328	21972
849.463	21991
849.598	21987
849.734	21850
849.869	21926
850.004	21800
850.14	21766
850.275	21717
850.41	21797
850.545	21755
850.68	21671
850.815	21884
850.95	21641
851.085	21835
851.22	21998
851.355	21770
851.49	21690
851.625	21759
851.76	21778
851.895	21622
852.03	21682
852.165	21648
852.299	21888
852.434	21876
852.569	21850
852.703	21827
852.838	21774
852.973	21895
853.107	21934
853.242	21663
853.376	21660
853.511	21507
853.645	21504
853.78	21781
853.914	21534
854.048	21549
854.183	21591
854.317	21622
854.451	21789
854.585	21553
854.72	21519
854.854	21625
854.988	21515
855.122	21561
855.256	21504
855.39	21603
855.524	21561
855.658	21614
855.792	21557
855.926	21557
856.06	21682
856.194	21656
856.327	21663
856.461	21492
856.595	21458
856.729	21641
856.862	21743
856.996	21587
857.13	21599
857.263	21679
857.397	21599
857.53	21625
857.664	21526
857.797	21679
857.931	21732
858.064	21633
858.197	21629
858.331	21553
858.464	21545
858.597	21466
858.731	21580
858.864	21534
858.997	21526
859.13	21625
859.263	21549
859.396	21728
859.529	21587
859.662	21538
859.795	21629
859.928	21701
860.061	21823
860.194	21781
860.327	21603
860.46	21534
860.592	21762
860.725	21671
860.858	21732
860.99	21538
861.123	21625
861.256	21500
861.388	21523
861.521	22337
861.653	21469
861.786	21454
861.918	21386
862.05	21393
862.183	21553
862.315	21625
862.447	21587
862.58	21473
862.712	21329
862.844	21291
862.976	21408
863.108	21355
863.24	21682
863.372	21123
863.504	21283
863.636	21138
863.768	21310
863.9	21203
864.032	21199
864.164	21154
864.296	21222
864.428	21412
864.559	21329
864.691	21355
864.823	21291
864.954	21317
865.086	21325
865.217	21325
865.349	21150
865.48	21150
865.612	21161
865.743	21325
865.875	21138
866.006	21268
866.137	21199
866.269	21230
866.4	21138
866.531	21233
866.662	20956
866.793	21036
866.924	21020
867.055	21119
867.186	21074
867.317	21062
867.448	21074
867.579	20952
867.71	21028
867.841	20990
867.972	21074
868.103	21112
868.233	21173
868.364	21154
868.495	21123
868.625	21359
868.756	21424
868.886	21340
869.017	21325
869.147	21549
869.278	21431
869.408	21416
869.539	21431
869.669	21538
869.799	21302
869.929	21553
870.06	21504
870.19	21622
870.32	21637
870.45	21648
870.58	21713
870.71	21808
870.84	21816
870.97	21755
871.1	21751
871.23	21918
871.36	21953
871.489	21789
871.619	21888
871.749	21911
871.879	22059
872.008	21945
872.138	21945
872.267	22055
872.397	21827
872.526	21724
872.656	21793
872.785	21873
872.915	21876
873.044	21972
873.173	21972
873.303	22021
873.432	21956
873.561	21987
873.69	21941
873.819	21945
873.948	22048
874.077	22040
874.206	21907
874.335	22002
874.464	22150
874.593	22322
874.722	22234
874.851	22128
874.979	22238
875.108	22234
875.237	22204
875.365	22204
875.494	22219
875.623	22253
875.751	22074
875.88	22215
876.008	22405
876.136	22352
876.265	22580
876.393	22706
876.521	22694
876.65	22710
876.778	22519
876.906	22546
877.034	22554
877.162	22634
877.29	22504
877.418	22603
877.546	22592
877.674	22489
877.802	22523
877.93	22519
878.058	22447
878.185	22535
878.313	22550
878.441	22554
878.568	22272
878.696	22474
878.824	22535
878.951	22588
879.079	22736
879.206	22748
879.333	22634
879.461	22569
879.588	22546
879.715	22828
879.842	22721
879.97	22565
880.097	22417
880.224	22112
880.351	22325
880.478	22360
880.605	22360
880.732	22405
880.859	22596
880.986	22230
881.112	22341
881.239	22188
881.366	22101
881.493	22029
881.619	22048
881.746	21876
881.872	22021
881.999	22010
882.125	21835
882.252	21899
882.378	21972
882.505	22017
882.631	21766
882.757	21728
882.883	21736
883.01	21675
883.136	21618
883.262	21488
883.388	21500
883.514	21587
883.64	21770
883.766	21534
883.892	21367
884.018	21408
884.143	21576
884.269	21549
884.395	21473
884.52	21230
884.646	21298
884.772	21199
884.897	21260
885.023	21256
885.148	21329
885.274	21431
885.399	21306
885.524	21252
885.65	21329
885.775	21161
885.9	21230
886.025	21412
886.15	21283
886.275	21214
886.4	21169
886.525	21218
886.65	21218
886.775	21211
886.9	21233
887.025	21504
887.149	21214
887.274	21123
887.399	21036
887.523	21020
887.648	20880
887.773	20887
887.897	21142
888.021	21039
888.146	20948
888.27	21211
888.395	21119
888.519	21138
888.643	21001
888.767	21047
888.891	20880
889.015	20880
889.139	20921
889.263	20792
889.387	20872
889.511	20960
889.635	20861
889.759	20701
889.883	20887
890.006	20834
890.13	20952
890.254	20667
890.377	20765
890.501	20667
890.624	20606
890.748	20590
890.871	20499
890.995	20347
891.118	20358
891.241	20336
891.364	20404
891.488	20431
891.611	20336
891.734	20358
891.857	20324
891.98	20358
892.103	20404
892.226	20389
892.349	20370
892.471	20214
892.594	20393
892.717	20298
892.839	20221
892.962	20339
893.085	20313
893.207	20347
893.33	20119
893.452	20229
893.575	20286
893.697	20301
893.819	20492
893.941	20499
894.064	20381
894.186	20278
894.308	20214
894.43	20431
894.552	20454
894.674	20309
894.796	20221
894.918	20229
895.04	20286
895.161	20324
895.283	20282
895.405	20164
895.526	20317
895.648	20259
895.769	20259
895.891	20267
896.012	20396
896.134	20393
896.255	20191
896.376	20214
896.498	20309
896.619	20278
896.74	20278
896.861	20339
896.982	20564
897.103	20587
897.224	20560
897.345	20549
897.466	20412
897.587	20473
897.708	20590
897.828	20454
897.949	20393
898.07	20233
898.19	20381
898.311	20575
898.431	20492
898.552	20412
898.672	20514
898.792	20598
898.913	20427
899.033	20298
899.153	20221
899.273	20134
899.393	20176
899.513	20339
899.633	20172
899.753	20263
899.873	20191
899.993	20343
900.113	20126
900.232	20294
900.352	20077
900.472	19951
900.591	19993
900.711	19951
900.83	19989
900.95	20111
901.069	20096
901.189	19959
901.308	19734
901.427	19586
901.546	19578
901.665	19708
901.784	19597
901.904	19369
902.023	19392
902.141	19141
902.26	19206
902.379	19141
902.498	19103
902.617	19031
902.735	19133
902.854	19129
902.973	18962
903.091	18776
903.21	18738
903.328	18802
903.446	18684
903.565	18551
903.683	18642
903.801	18544
903.919	18513
904.038	18483
904.156	18270
904.274	18452
904.392	18304
904.51	18380
904.627	18315
904.745	18330
904.863	18426
904.981	18194
905.098	18098
905.216	18091
905.334	18007
905.451	17965
905.569	17969
905.686	18030
905.803	18011
905.921	17790
906.038	17824
906.155	17920
906.272	17756
906.389	17638
906.506	17596
906.623	17646
906.74	17463
906.857	17486
906.974	17463
907.091	17638
907.208	17596
907.324	17482
907.441	17440
907.557	17334
907.674	17307
907.79	17265
907.907	17288
908.023	17292
908.139	17315
908.256	17235
908.372	17151
908.488	17170
908.604	16984
908.72	16999
908.836	17090
908.952	16915
909.068	16968
909.184	17155
909.3	17056
909.415	16938
909.531	16976
909.647	16679
909.762	16641
909.878	16675
909.993	16839
910.108	16596
910.224	16622
910.339	16660
910.454	16512
910.57	16592
910.685	16424
910.8	16687
910.915	16554
911.03	16538
911.145	16299
911.259	16249
911.374	16333
911.489	16230
911.604	16112
911.718	16025
911.833	16051
911.947	15903
912.062	15812
912.176	15994
912.291	16040
912.405	16025
912.519	16116
912.633	16200
912.748	16048
912.862	16029
912.976	15835
913.09	15724
913.204	15831
913.318	15842
913.431	15808
913.545	15937
913.659	15884
913.772	15793
913.886	15770
914	15667
914.113	15713
914.226	15793
914.34	15644
914.453	15557
914.566	15614
914.68	15610
914.793	15485
914.906	15321
915.019	15279
915.132	15104
915.245	15188
915.358	15287
915.47	15222
915.583	15211
915.696	15207
915.809	15412
915.921	15260
916.034	15237
916.146	15085
916.259	15089
916.371	15291
916.483	15222
916.595	14998
916.708	15020
916.82	15093
916.932	15066
917.044	14975
917.156	15036
917.268	14975
917.38	14963
917.491	14887
917.603	14883
917.715	14998
917.826	14929
917.938	14899
918.049	14712
918.161	14899
918.272	14937
918.384	14925
918.495	14853
918.606	14705
918.717	14632
918.828	14701
918.939	14651
919.05	14613
919.161	14716
919.272	14415
919.383	14476
919.494	14686
919.604	14830
919.715	14587
919.826	14541
919.936	14495
920.047	14667
920.157	14625
920.267	14830
920.378	14648
920.488	14621
920.598	14769
920.708	14792
920.818	14769
920.928	14739
921.038	14861
921.148	14880
921.258	14648
921.368	14419
921.477	14370
921.587	14351
921.697	14134
921.806	14324
921.916	14096
922.025	14027
922.134	13894
922.244	13944
922.353	14039
922.462	13913
922.571	13708
922.68	13620
922.789	13658
922.898	13605
923.007	13594
923.116	13681
923.224	13575
923.333	13544
923.442	13495
923.55	13476
923.659	13453
923.767	13487
923.876	13476
923.984	13499
924.092	13324
924.201	13415
924.309	13354
924.417	13354
924.525	13206
924.633	13358
924.741	14164
924.849	13141
924.956	13225
925.064	13053
925.172	12966
925.279	13015
925.387	13012
925.494	13046
925.602	13031
925.709	13175
925.816	12954
925.924	13084
926.031	12977
926.138	12939
926.245	12993
926.352	12783
926.459	13084
926.566	13076
926.673	12954
926.779	12730
926.886	12760
926.993	12665
927.099	12547
927.206	12547
927.312	12528
927.419	12623
927.525	12551
927.631	12627
927.737	12521
927.843	12456
927.95	12296
928.056	12334
928.162	12513
928.267	12475
928.373	13004
928.479	12467
928.585	12205
928.69	12330
928.796	12490
928.901	12235
929.007	12106
929.112	12319
929.218	12273
929.323	12117
929.428	12144
929.533	12239
929.638	12034
929.743	12175
929.848	12220
929.953	12038
930.058	12022
930.163	11824
930.267	11847
930.372	11946
930.477	11847
930.581	12003
930.685	11916
930.79	11707
930.894	11783
930.998	11760
931.103	11794
931.207	11440
931.311	11330
931.415	11280
931.519	11128
931.623	11064
