Data from test_V78500241_2712.txt Node
Date: Fri Mar 25 15:28:44 CST 2022
User: usil
Spectrometer: V785-0024
Trigger mode: 0
Integration Time (sec): 4.000000E-1
Scans to average: 1
Nonlinearity correction enabled: false
Boxcar width: 0
Storing dark spectrum: false
XAxis mode: Wavelengths
Number of Pixels in Spectrum: 1024
>>>>>Begin Spectral Data<<<<<
801.071	27180
801.214	27028
801.356	26940
801.499	26826
801.641	26792
801.783	26667
801.926	26739
802.068	26659
802.211	26583
802.353	26579
802.496	26419
802.638	26374
802.78	26301
802.923	26256
803.065	26446
803.208	26328
803.35	26347
803.492	26492
803.635	26537
803.777	26370
803.919	26438
804.061	26815
804.204	26613
804.346	26419
804.488	26488
804.63	26511
804.773	26408
804.915	26453
805.057	26621
805.199	26400
805.341	26549
805.483	26617
805.626	26575
805.768	26351
805.91	26484
806.052	26556
806.194	26507
806.336	26625
806.478	26651
806.62	26697
806.762	26636
806.904	26769
807.046	27150
807.188	26986
807.33	27047
807.472	27039
807.614	26967
807.756	26982
807.898	26925
808.04	26746
808.182	26762
808.324	26910
808.465	26929
808.607	27043
808.749	27329
808.891	27363
809.033	27233
809.174	27321
809.316	27169
809.458	27207
809.6	27104
809.741	27272
809.883	27435
810.025	27317
810.166	27477
810.308	27420
810.45	27336
810.591	27252
810.733	27192
810.875	27199
811.016	27116
811.158	27077
811.299	27256
811.441	27355
811.582	27355
811.724	27275
811.865	27313
812.007	27150
812.148	27116
812.29	27291
812.431	27268
812.573	27310
812.714	27534
812.855	27751
812.997	27724
813.138	27789
813.279	27797
813.421	27774
813.562	27545
813.703	27431
813.845	27313
813.986	27070
814.127	26918
814.268	26678
814.41	26914
814.551	26724
814.692	26857
814.833	26861
814.974	26811
815.115	26705
815.256	26716
815.397	26807
815.539	26667
815.68	26514
815.821	26606
815.962	26488
816.103	26594
816.244	26374
816.385	26339
816.526	26355
816.666	26187
816.807	26005
816.948	26149
817.089	26256
817.23	26206
817.371	26107
817.512	26046
817.653	26073
817.793	26001
817.934	26084
818.075	26240
818.216	26065
818.356	26142
818.497	25909
818.638	25795
818.778	25803
818.919	25772
819.06	25925
819.2	26027
819.341	26149
819.481	26062
819.622	26233
819.762	26385
819.903	26358
820.043	26278
820.184	26164
820.324	26077
820.465	26298
820.605	26024
820.746	26111
820.886	26145
821.026	26142
821.167	26054
821.307	26202
821.447	26020
821.588	25917
821.728	25871
821.868	25658
822.008	25575
822.149	25613
822.289	25476
822.429	25354
822.569	25190
822.709	25293
822.849	24966
822.99	24985
823.13	24897
823.27	25061
823.41	24875
823.55	24863
823.69	24958
823.83	24821
823.97	24772
824.11	24597
824.25	24719
824.389	24669
824.529	24665
824.669	24597
824.809	24700
824.949	24745
825.089	24700
825.228	24646
825.368	24517
825.508	24494
825.648	24555
825.787	24521
825.927	24582
826.067	24399
826.206	24604
826.346	24582
826.485	24612
826.625	24589
826.765	24490
826.904	24570
827.044	24372
827.183	24330
827.323	24327
827.462	24300
827.601	24273
827.741	24304
827.88	24281
828.02	24125
828.159	24243
828.298	24281
828.437	24285
828.577	24159
828.716	24270
828.855	24213
828.994	23927
829.134	23889
829.273	24026
829.412	23779
829.551	23855
829.69	23988
829.829	24045
829.968	24110
830.107	24072
830.246	23916
830.385	23889
830.524	23832
830.663	23828
830.802	23707
830.941	23585
831.08	23471
831.219	23752
831.357	23733
831.496	23775
831.635	23566
831.774	23516
831.913	23467
832.051	23349
832.19	23307
832.329	23471
832.467	23143
832.606	23159
832.744	23258
832.883	23204
833.022	23143
833.16	23284
833.299	23277
833.437	23227
833.576	23284
833.714	23254
833.852	23398
833.991	23303
834.129	23349
834.267	23505
834.406	23459
834.544	23360
834.682	23231
834.821	23246
834.959	23623
835.097	23128
835.235	23356
835.373	23356
835.511	23349
835.65	23109
835.788	23083
835.926	23022
836.064	23044
836.202	23010
836.34	23143
836.478	23086
836.615	23162
836.753	23349
836.891	23246
837.029	23185
837.167	23200
837.305	23117
837.443	23071
837.58	22946
837.718	22987
837.856	23113
837.993	22927
838.131	22987
838.269	22900
838.406	22793
838.544	22809
838.681	22599
838.819	22702
838.956	22489
839.094	22428
839.231	22637
839.369	22634
839.506	22885
839.643	22710
839.781	22554
839.918	22402
840.055	22462
840.193	22417
840.33	22329
840.467	22398
840.604	22447
840.742	22637
840.879	22329
841.016	22409
841.153	22242
841.29	22474
841.427	22356
841.564	22417
841.701	22424
841.838	22306
841.975	22223
842.112	22447
842.249	22234
842.385	22280
842.522	22500
842.659	22295
842.796	22207
842.933	22200
843.069	22116
843.206	22162
843.343	22268
843.479	22158
843.616	22188
843.752	21953
843.889	22002
844.025	22166
844.162	21979
844.298	22055
844.435	22063
844.571	22013
844.708	22029
844.844	21994
844.98	21960
845.117	22017
845.253	21949
845.389	21907
845.525	21793
845.661	21804
845.798	21671
845.934	21637
846.07	21587
846.206	21736
846.342	21785
846.478	21701
846.614	21553
846.75	21374
846.886	21454
847.022	21439
847.158	21469
847.294	21367
847.429	21507
847.565	21283
847.701	21583
847.837	21184
847.972	21218
848.108	21325
848.244	21313
848.379	20990
848.515	21096
848.65	20975
848.786	21020
848.921	21058
849.057	21116
849.192	21017
849.328	21005
849.463	21001
849.598	20883
849.734	21001
849.869	20826
850.004	20769
850.14	20876
850.275	20819
850.41	20598
850.545	20659
850.68	20674
850.815	20716
850.95	20804
851.085	20990
851.22	20899
851.355	20902
851.49	20667
851.625	20830
851.76	20716
851.895	20697
852.03	20720
852.165	20754
852.299	20819
852.434	20880
852.569	20785
852.703	20667
852.838	20746
852.973	20899
853.107	20937
853.242	20708
853.376	20682
853.511	20469
853.645	20480
853.78	20785
853.914	20625
854.048	20568
854.183	20735
854.317	20457
854.451	20842
854.585	20530
854.72	20640
854.854	20693
854.988	20480
855.122	20670
855.256	20389
855.39	20488
855.524	20644
855.658	20689
855.792	20587
855.926	20579
856.06	20758
856.194	20636
856.327	20617
856.461	20537
856.595	20602
856.729	20602
856.862	20693
856.996	20590
857.13	20655
857.263	20800
857.397	20648
857.53	20594
857.664	20636
857.797	20655
857.931	20781
858.064	20625
858.197	20678
858.331	20655
858.464	20651
858.597	20434
858.731	20678
858.864	20678
858.997	20606
859.13	20629
859.263	20689
859.396	20693
859.529	20590
859.662	20564
859.795	20590
859.928	20514
860.061	20739
860.194	20868
860.327	20712
860.46	20617
860.592	20705
860.725	20758
860.858	20674
860.99	20674
861.123	20511
861.256	20541
861.388	20598
861.521	21138
861.653	20476
861.786	20438
861.918	20396
862.05	20374
862.183	20674
862.315	20503
862.447	20583
862.58	20571
862.712	20305
862.844	20381
862.976	20450
863.108	20415
863.24	20765
863.372	20229
863.504	20271
863.636	20267
863.768	20305
863.9	20358
864.032	20191
864.164	20324
864.296	20446
864.428	20278
864.559	20370
864.691	20324
864.823	20377
864.954	20332
865.086	20320
865.217	20248
865.349	20107
865.48	20119
865.612	20115
865.743	20400
865.875	20389
866.006	20103
866.137	20259
866.269	20259
866.4	20218
866.531	20210
866.662	20134
866.793	20157
866.924	20168
867.055	20221
867.186	20077
867.317	20202
867.448	20168
867.579	20214
867.71	20142
867.841	20153
867.972	20100
868.103	20157
868.233	20168
868.364	20221
868.495	20240
868.625	20347
868.756	20442
868.886	20301
869.017	20389
869.147	20552
869.278	20465
869.408	20366
869.539	20404
869.669	20530
869.799	20431
869.929	20609
870.06	20442
870.19	20682
870.32	20701
870.45	20743
870.58	20765
870.71	20952
870.84	20952
870.97	20743
871.1	20830
871.23	20948
871.36	21089
871.489	20845
871.619	20937
871.749	21039
871.879	20998
872.008	21058
872.138	21127
872.267	21077
872.397	20826
872.526	20963
872.656	20849
872.785	20819
872.915	21081
873.044	21127
873.173	21020
873.303	21070
873.432	21058
873.561	21135
873.69	20960
873.819	21017
873.948	21077
874.077	21036
874.206	21005
874.335	21055
874.464	21123
874.593	21272
874.722	21237
874.851	21298
874.979	21344
875.108	21306
875.237	21245
875.365	21180
875.494	21230
875.623	21389
875.751	21176
875.88	21291
876.008	21370
876.136	21485
876.265	21717
876.393	21854
876.521	21667
876.65	21804
876.778	21648
876.906	21633
877.034	21538
877.162	21679
877.29	21561
877.418	21595
877.546	21698
877.674	21610
877.802	21580
877.93	21515
878.058	21587
878.185	21545
878.313	21671
878.441	21625
878.568	21504
878.696	21557
878.824	21641
878.951	21732
879.079	21816
879.206	21926
879.333	21808
879.461	21762
879.588	21728
879.715	21846
879.842	21953
879.97	21766
880.097	21439
880.224	21428
880.351	21466
880.478	21576
880.605	21302
880.732	21363
880.859	21576
880.986	21526
881.112	21447
881.239	21317
881.366	21214
881.493	21169
881.619	20994
881.746	21066
881.872	21039
881.999	20952
882.125	21036
882.252	20990
882.378	21032
882.505	21070
882.631	20853
882.757	20785
882.883	20800
883.01	20743
883.136	20697
883.262	20632
883.388	20556
883.514	20777
883.64	20594
883.766	20693
883.892	20495
884.018	20670
884.143	20712
884.269	20777
884.395	20442
884.52	20389
884.646	20381
884.772	20431
884.897	20290
885.023	20461
885.148	20571
885.274	20579
885.399	20442
885.524	20495
885.65	20438
885.775	20415
885.9	20347
886.025	20412
886.15	20545
886.275	20290
886.4	20370
886.525	20362
886.65	20370
886.775	20374
886.9	20473
887.025	20560
887.149	20408
887.274	20206
887.399	20039
887.523	20183
887.648	20134
887.773	20153
887.897	20237
888.021	20263
888.146	20138
888.27	20381
888.395	20343
888.519	20176
888.643	20271
888.767	20313
888.891	20046
889.015	20088
889.139	20046
889.263	19982
889.387	20115
889.511	20183
889.635	20142
889.759	19986
889.883	19997
890.006	20043
890.13	20027
890.254	19921
890.377	19936
890.501	19784
890.624	19837
890.748	19746
890.871	19689
890.995	19567
891.118	19506
891.241	19609
891.364	19586
891.488	19651
891.611	19662
891.734	19632
891.857	19647
891.98	19639
892.103	19662
892.226	19628
892.349	19594
892.471	19476
892.594	19502
892.717	19506
892.839	19628
892.962	19544
893.085	19609
893.207	19540
893.33	19445
893.452	19403
893.575	19529
893.697	19559
893.819	19590
893.941	19662
894.064	19635
894.186	19430
894.308	19430
894.43	19655
894.552	19651
894.674	19628
894.796	19384
894.918	19613
895.04	19434
895.161	19601
895.283	19468
895.405	19388
895.526	19430
895.648	19396
895.769	19624
895.891	19571
896.012	19639
896.134	19677
896.255	19590
896.376	19483
896.498	19635
896.619	19559
896.74	19525
896.861	19700
896.982	19936
897.103	20001
897.224	19750
897.345	19677
897.466	19818
897.587	19769
897.708	19822
897.828	19791
897.949	19765
898.07	19628
898.19	19685
898.311	19841
898.431	19727
898.552	19719
898.672	19955
898.792	19719
898.913	19772
899.033	19681
899.153	19472
899.273	19518
899.393	19480
899.513	19582
899.633	19476
899.753	19464
899.873	19457
899.993	19540
900.113	19358
900.232	19453
900.352	19499
900.472	19373
900.591	19285
900.711	19244
900.83	19301
900.95	19373
901.069	19293
901.189	19198
901.308	18977
901.427	18886
901.546	18787
901.665	18833
901.784	18871
901.904	18745
902.023	18635
902.141	18513
902.26	18513
902.379	18456
902.498	18407
902.617	18384
902.735	18475
902.854	18467
902.973	18342
903.091	18216
903.21	18060
903.328	18121
903.446	18007
903.565	17961
903.683	17999
903.801	17813
903.919	17885
904.038	17828
904.156	17775
904.274	17684
904.392	17691
904.51	17684
904.627	17661
904.745	17676
904.863	17661
904.981	17395
905.098	17341
905.216	17406
905.334	17337
905.451	17383
905.569	17239
905.686	17299
905.803	17250
905.921	17086
906.038	17258
906.155	17098
906.272	17033
906.389	17079
906.506	16949
906.623	16904
906.74	16828
906.857	16755
906.974	16847
907.091	16919
907.208	16968
907.324	16946
907.441	16755
907.557	16622
907.674	16588
907.79	16569
907.907	16508
908.023	16615
908.139	16626
908.256	16489
908.372	16489
908.488	16546
908.604	16402
908.72	16291
908.836	16356
908.952	16318
909.068	16402
909.184	16405
909.3	16257
909.415	16409
909.531	16287
909.647	16109
909.762	16074
909.878	15998
909.993	16131
910.108	16006
910.224	15964
910.339	15953
910.454	15975
910.57	15922
910.685	15869
910.8	16044
910.915	15972
911.03	15797
911.145	15618
911.259	15663
911.374	15690
911.489	15572
911.604	15428
911.718	15408
911.833	15492
911.947	15313
912.062	15367
912.176	15469
912.291	15485
912.405	15370
912.519	15720
912.633	15599
912.748	15500
912.862	15439
912.976	15256
913.09	15188
913.204	15173
913.318	15268
913.431	15256
913.545	15245
913.659	15378
913.772	15188
913.886	15116
914	15024
914.113	15150
914.226	15176
914.34	15081
914.453	14960
914.566	15093
914.68	14960
914.793	14899
914.906	14735
915.019	14594
915.132	14640
915.245	14708
915.358	14621
915.47	14648
915.583	14629
915.696	14712
915.809	14804
915.921	14807
916.034	14636
916.146	14461
916.259	14480
916.371	14587
916.483	14663
916.595	14457
916.708	14488
916.82	14495
916.932	14415
917.044	14419
917.156	14423
917.268	14374
917.38	14328
917.491	14320
917.603	14271
917.715	14347
917.826	14347
917.938	14202
918.049	14263
918.161	14199
918.272	14396
918.384	14408
918.495	14275
918.606	14126
918.717	14035
918.828	14157
918.939	14130
919.05	14016
919.161	14020
919.272	13860
919.383	13921
919.494	14202
919.604	14229
919.715	14107
919.826	13894
919.936	14096
920.047	14069
920.157	14031
920.267	14199
920.378	14039
920.488	13993
920.598	14221
920.708	14347
920.818	14199
920.928	14225
921.038	14256
921.148	14343
921.258	14020
921.368	13978
921.477	13841
921.587	13734
921.697	13685
921.806	13837
921.916	13628
922.025	13483
922.134	13529
922.244	13350
922.353	13521
922.462	13335
922.571	13362
922.68	13168
922.789	13103
922.898	13122
923.007	13012
923.116	13141
923.224	13008
923.333	13099
923.442	12920
923.55	12890
923.659	12897
923.767	13000
923.876	12878
923.984	12962
924.092	12863
924.201	12875
924.309	12863
924.417	12840
924.525	12779
924.633	12829
924.741	13700
924.849	12547
924.956	12734
925.064	12639
925.172	12547
925.279	12563
925.387	12578
925.494	12597
925.602	12669
925.709	12593
925.816	12346
925.924	12528
926.031	12479
926.138	12498
926.245	12502
926.352	12426
926.459	12486
926.566	12540
926.673	12395
926.779	12289
926.886	12376
926.993	12117
927.099	12064
927.206	12072
927.312	12053
927.419	12106
927.525	12148
927.631	12129
927.737	12003
927.843	12049
927.95	11946
928.056	11999
928.162	11935
928.267	11980
928.373	12544
928.479	12003
928.585	11779
928.69	11958
928.796	11973
928.901	11885
929.007	11691
929.112	11821
929.218	11764
929.323	11668
929.428	11646
929.533	11805
929.638	11585
929.743	11649
929.848	11627
929.953	11573
930.058	11604
930.163	11360
930.267	11410
930.372	11493
930.477	11299
930.581	11551
930.685	11467
930.79	11299
930.894	11250
930.998	11258
931.103	11326
931.207	11048
931.311	10991
931.415	10809
931.519	10622
931.623	10679
