Data from test_V78500241_350.txt Node
Date: Fri Mar 25 15:12:17 CST 2022
User: usil
Spectrometer: V785-0024
Trigger mode: 0
Integration Time (sec): 4.000000E-1
Scans to average: 1
Nonlinearity correction enabled: false
Boxcar width: 0
Storing dark spectrum: false
XAxis mode: Wavelengths
Number of Pixels in Spectrum: 1024
>>>>>Begin Spectral Data<<<<<
801.071	27047
801.214	27036
801.356	26674
801.499	26731
801.641	26648
801.783	26575
801.926	26644
802.068	26526
802.211	26522
802.353	26495
802.496	26355
802.638	26202
802.78	26248
802.923	26221
803.065	26164
803.208	26237
803.35	26305
803.492	26339
803.635	26457
803.777	26438
803.919	26282
804.061	26773
804.204	26389
804.346	26320
804.488	26393
804.63	26427
804.773	26092
804.915	26290
805.057	26423
805.199	26305
805.341	26393
805.483	26434
805.626	26347
805.768	26332
805.91	26419
806.052	26473
806.194	26480
806.336	26568
806.478	26495
806.62	26488
806.762	26560
806.904	26758
807.046	27051
807.188	26872
807.33	26735
807.472	26910
807.614	26868
807.756	26872
807.898	26720
808.04	26727
808.182	26663
808.324	26804
808.465	26674
808.607	26963
808.749	27009
808.891	27264
809.033	27363
809.174	27055
809.316	27028
809.458	27039
809.6	27047
809.741	27138
809.883	27180
810.025	27325
810.166	27348
810.308	27420
810.45	27294
810.591	27287
810.733	27104
810.875	27154
811.016	27009
811.158	26842
811.299	27260
811.441	27096
811.582	27055
811.724	27062
811.865	27047
812.007	26967
812.148	26979
812.29	27013
812.431	27077
812.573	27363
812.714	27359
812.855	27526
812.997	27587
813.138	27770
813.279	27705
813.421	27698
813.562	27595
813.703	27435
813.845	27100
813.986	26933
814.127	26914
814.268	26606
814.41	26716
814.551	26762
814.692	26697
814.833	26594
814.974	26724
815.115	26750
815.256	26552
815.397	26640
815.539	26556
815.68	26533
815.821	26530
815.962	26488
816.103	26465
816.244	26484
816.385	26332
816.526	26195
816.666	26050
816.807	25925
816.948	26084
817.089	26122
817.23	26046
817.371	26126
817.512	26138
817.653	25947
817.793	25959
817.934	26054
818.075	26077
818.216	26027
818.356	26020
818.497	25947
818.638	25677
818.778	25693
818.919	25651
819.06	25772
819.2	25826
819.341	25917
819.481	25955
819.622	26115
819.762	26259
819.903	26248
820.043	26191
820.184	26020
820.324	26005
820.465	26191
820.605	26058
820.746	26058
820.886	25913
821.026	26050
821.167	26134
821.307	26050
821.447	25986
821.588	25791
821.728	25746
821.868	25616
822.008	25411
822.149	25438
822.289	25449
822.429	25232
822.569	25126
822.709	24977
822.849	24932
822.99	24920
823.13	24954
823.27	24768
823.41	24753
823.55	24772
823.69	24787
823.83	24722
823.97	24715
824.11	24589
824.25	24540
824.389	24589
824.529	24673
824.669	24608
824.809	24627
824.949	24730
825.089	24677
825.228	24677
825.368	24513
825.508	24429
825.648	24448
825.787	24509
825.927	24536
826.067	24410
826.206	24357
826.346	24391
826.485	24361
826.625	24426
826.765	24509
826.904	24452
827.044	24281
827.183	24140
827.323	24076
827.462	24258
827.601	24201
827.741	24350
827.88	24174
828.02	23939
828.159	24178
828.298	24292
828.437	24247
828.577	24201
828.716	24311
828.855	24064
828.994	23950
829.134	24011
829.273	23942
829.412	23707
829.551	23779
829.69	23874
829.829	24091
829.968	23973
830.107	24083
830.246	23832
830.385	23840
830.524	23756
830.663	23828
830.802	23566
830.941	23528
831.08	23509
831.219	23589
831.357	23592
831.496	23832
831.635	23528
831.774	23562
831.913	23459
832.051	23204
832.19	23246
832.329	23322
832.467	23235
832.606	23220
832.744	23178
832.883	23277
833.022	23143
833.16	23292
833.299	23250
833.437	23273
833.576	23269
833.714	23284
833.852	23311
833.991	23349
834.129	23322
834.267	23254
834.406	23265
834.544	23299
834.682	23242
834.821	23220
834.959	23429
835.097	23254
835.235	23395
835.373	23227
835.511	23246
835.65	23121
835.788	23033
835.926	22965
836.064	22885
836.202	22946
836.34	23033
836.478	23212
836.615	23136
836.753	23094
836.891	23284
837.029	23223
837.167	23143
837.305	22885
837.443	23018
837.58	22919
837.718	23170
837.856	23018
837.993	22915
838.131	22953
838.269	22824
838.406	23025
838.544	22809
838.681	22634
838.819	22580
838.956	22519
839.094	22516
839.231	22603
839.369	22626
839.506	22755
839.643	22759
839.781	22470
839.918	22394
840.055	22554
840.193	22295
840.33	22386
840.467	22447
840.604	22485
840.742	22691
840.879	22253
841.016	22318
841.153	22272
841.29	22542
841.427	22531
841.564	22432
841.701	22382
841.838	22474
841.975	22257
842.112	22280
842.249	22150
842.385	22074
842.522	22337
842.659	22223
842.796	22109
842.933	22105
843.069	22196
843.206	22086
843.343	22295
843.479	22188
843.616	22116
843.752	22025
843.889	21907
844.025	22109
844.162	22017
844.298	22067
844.435	21789
844.571	22013
844.708	21968
844.844	22025
844.98	22082
845.117	21994
845.253	21850
845.389	21823
845.525	21812
845.661	21827
845.798	21660
845.934	21709
846.07	21618
846.206	21690
846.342	21854
846.478	21762
846.614	21462
846.75	21252
846.886	21439
847.022	21591
847.158	21507
847.294	21408
847.429	21412
847.565	21393
847.701	21667
847.837	21127
847.972	21230
848.108	21241
848.244	21146
848.379	20937
848.515	21009
848.65	20982
848.786	21043
848.921	21009
849.057	21001
849.192	21138
849.328	20979
849.463	21017
849.598	20937
849.734	20880
849.869	20876
850.004	20823
850.14	20872
850.275	20758
850.41	20693
850.545	20845
850.68	20716
850.815	20682
850.95	20819
851.085	20952
851.22	20868
851.355	20678
851.49	20606
851.625	20785
851.76	20701
851.895	20667
852.03	20750
852.165	20720
852.299	20883
852.434	20883
852.569	20636
852.703	20765
852.838	20868
852.973	20872
853.107	20750
853.242	20659
853.376	20579
853.511	20465
853.645	20636
853.78	20602
853.914	20659
854.048	20552
854.183	20701
854.317	20602
854.451	20678
854.585	20598
854.72	20450
854.854	20727
854.988	20541
855.122	20625
855.256	20503
855.39	20549
855.524	20682
855.658	20636
855.792	20594
855.926	20511
856.06	20594
856.194	20708
856.327	20606
856.461	20594
856.595	20583
856.729	20480
856.862	20712
856.996	20617
857.13	20648
857.263	20735
857.397	20708
857.53	20617
857.664	20651
857.797	20640
857.931	20796
858.064	20545
858.197	20735
858.331	20575
858.464	20526
858.597	20442
858.731	20537
858.864	20514
858.997	20583
859.13	20473
859.263	20537
859.396	20621
859.529	20625
859.662	20499
859.795	20549
859.928	20590
860.061	20697
860.194	20731
860.327	20541
860.46	20571
860.592	20689
860.725	20746
860.858	20621
860.99	20549
861.123	20629
861.256	20469
861.388	20632
861.521	21142
861.653	20537
861.786	20377
861.918	20370
862.05	20381
862.183	20526
862.315	20503
862.447	20640
862.58	20484
862.712	20278
862.844	20244
862.976	20427
863.108	20427
863.24	20834
863.372	20377
863.504	20271
863.636	20248
863.768	20408
863.9	20256
864.032	20290
864.164	20301
864.296	20370
864.428	20442
864.559	20328
864.691	20328
864.823	20256
864.954	20248
865.086	20233
865.217	20252
865.349	20199
865.48	20191
865.612	20259
865.743	20366
865.875	20233
866.006	20180
866.137	20252
866.269	20214
866.4	20107
866.531	20172
866.662	20084
866.793	20142
866.924	20119
867.055	20183
867.186	20191
867.317	20092
867.448	20058
867.579	20115
867.71	20107
867.841	20183
867.972	20248
868.103	20244
868.233	20202
868.364	20161
868.495	20237
868.625	20374
868.756	20492
868.886	20313
869.017	20442
869.147	20442
869.278	20461
869.408	20503
869.539	20320
869.669	20522
869.799	20541
869.929	20575
870.06	20537
870.19	20590
870.32	20602
870.45	20773
870.58	20796
870.71	20872
870.84	20918
870.97	20815
871.1	20785
871.23	20895
871.36	20937
871.489	20952
871.619	20849
871.749	20944
871.879	20929
872.008	20956
872.138	20944
872.267	21047
872.397	20849
872.526	20731
872.656	20689
872.785	20815
872.915	20944
873.044	21150
873.173	20967
873.303	20944
873.432	21165
873.561	21161
873.69	21043
873.819	21009
873.948	20986
874.077	21066
874.206	20910
874.335	21089
874.464	21207
874.593	21264
874.722	21119
874.851	21260
874.979	21344
875.108	21363
875.237	21123
875.365	21218
875.494	21207
875.623	21332
875.751	21294
875.88	21447
876.008	21439
876.136	21378
876.265	21648
876.393	21785
876.521	21743
876.65	21682
876.778	21561
876.906	21523
877.034	21534
877.162	21587
877.29	21504
877.418	21473
877.546	21694
877.674	21553
877.802	21656
877.93	21637
878.058	21622
878.185	21454
878.313	21561
878.441	21538
878.568	21435
878.696	21557
878.824	21644
878.951	21644
879.079	21759
879.206	21842
879.333	21793
879.461	21580
879.588	21629
879.715	21698
879.842	21930
879.97	21641
880.097	21420
880.224	21397
880.351	21447
880.478	21458
880.605	21237
880.732	21405
880.859	21686
880.986	21469
881.112	21443
881.239	21317
881.366	21165
881.493	21100
881.619	20990
881.746	21020
881.872	20944
881.999	21001
882.125	20990
882.252	21116
882.378	20929
882.505	21013
882.631	20807
882.757	20773
882.883	20781
883.01	20644
883.136	20705
883.262	20533
883.388	20609
883.514	20800
883.64	20705
883.766	20708
883.892	20568
884.018	20514
884.143	20689
884.269	20674
884.395	20476
884.52	20385
884.646	20263
884.772	20328
884.897	20256
885.023	20374
885.148	20503
885.274	20495
885.399	20492
885.524	20385
885.65	20415
885.775	20408
885.9	20469
886.025	20476
886.15	20454
886.275	20404
886.4	20244
886.525	20252
886.65	20355
886.775	20161
886.9	20393
887.025	20663
887.149	20343
887.274	20199
887.399	20111
887.523	20134
887.648	20096
887.773	20012
887.897	20168
888.021	20115
888.146	20092
888.27	20298
888.395	20149
888.519	20191
888.643	20225
888.767	20183
888.891	20084
889.015	19913
889.139	19997
889.263	19967
889.387	20031
889.511	20054
889.635	20046
889.759	19906
889.883	19913
890.006	19860
890.13	19993
890.254	19864
890.377	19906
890.501	19734
890.624	19674
890.748	19734
890.871	19597
890.995	19544
891.118	19415
891.241	19590
891.364	19487
891.488	19639
891.611	19525
891.734	19499
891.857	19655
891.98	19582
892.103	19563
892.226	19609
892.349	19548
892.471	19301
892.594	19438
892.717	19438
892.839	19411
892.962	19430
893.085	19502
893.207	19491
893.33	19400
893.452	19377
893.575	19552
893.697	19369
893.819	19571
893.941	19609
894.064	19563
894.186	19438
894.308	19388
894.43	19506
894.552	19658
894.674	19563
894.796	19392
894.918	19365
895.04	19445
895.161	19499
895.283	19472
895.405	19388
895.526	19510
895.648	19354
895.769	19457
895.891	19476
896.012	19616
896.134	19525
896.255	19548
896.376	19495
896.498	19491
896.619	19411
896.74	19392
896.861	19590
896.982	19734
897.103	19917
897.224	19731
897.345	19734
897.466	19628
897.587	19753
897.708	19772
897.828	19708
897.949	19567
898.07	19514
898.19	19537
898.311	19860
898.431	19514
898.552	19563
898.672	19719
898.792	19849
898.913	19609
899.033	19518
899.153	19582
899.273	19369
899.393	19445
899.513	19563
899.633	19384
899.753	19419
899.873	19278
899.993	19384
900.113	19373
900.232	19533
900.352	19400
900.472	19304
900.591	19240
900.711	19304
900.83	19118
900.95	19293
901.069	19331
901.189	19110
901.308	18905
901.427	18738
901.546	18848
901.665	18665
901.784	18681
901.904	18631
902.023	18616
902.141	18517
902.26	18372
902.379	18623
902.498	18319
902.617	18407
902.735	18422
902.854	18346
902.973	18178
903.091	18068
903.21	17988
903.328	18079
903.446	17980
903.565	17840
903.683	17942
903.801	17649
903.919	17859
904.038	17672
904.156	17573
904.274	17707
904.392	17547
904.51	17471
904.627	17551
904.745	17634
904.863	17611
904.981	17398
905.098	17216
905.216	17231
905.334	17311
905.451	17318
905.569	17200
905.686	17334
905.803	17189
905.921	17079
906.038	17124
906.155	17086
906.272	17025
906.389	17029
906.506	16805
906.623	16869
906.74	16801
906.857	16691
906.974	16801
907.091	16904
907.208	16976
907.324	16831
907.441	16626
907.557	16565
907.674	16565
907.79	16607
907.907	16493
908.023	16519
908.139	16592
908.256	16405
908.372	16386
908.488	16371
908.604	16310
908.72	16207
908.836	16268
908.952	16166
909.068	16287
909.184	16329
909.3	16207
909.415	16287
909.531	16329
909.647	15949
909.762	15941
909.878	16006
909.993	15956
910.108	15899
910.224	15819
910.339	15994
910.454	16006
910.57	15816
910.685	15705
910.8	16029
910.915	15956
911.03	15876
911.145	15667
911.259	15568
911.374	15633
911.489	15450
911.604	15576
911.718	15408
911.833	15329
911.947	15207
912.062	15119
912.176	15287
912.291	15298
912.405	15283
912.519	15447
912.633	15504
912.748	15401
912.862	15302
912.976	15176
913.09	15028
913.204	15138
913.318	15169
913.431	15207
913.545	15268
913.659	15123
913.772	15180
913.886	14883
914	15009
914.113	14982
914.226	15028
914.34	14998
914.453	14861
914.566	15020
914.68	14929
914.793	14788
914.906	14621
915.019	14682
915.132	14602
915.245	14587
915.358	14648
915.47	14564
915.583	14640
915.696	14693
915.809	14705
915.921	14689
916.034	14488
916.146	14514
916.259	14438
916.371	14564
916.483	14579
916.595	14419
916.708	14480
916.82	14507
916.932	14415
917.044	14393
917.156	14305
917.268	14195
917.38	14275
917.491	14225
917.603	14298
917.715	14267
917.826	14301
917.938	14164
918.049	13970
918.161	14248
918.272	14355
918.384	14305
918.495	14282
918.606	14084
918.717	14012
918.828	14126
918.939	14092
919.05	13898
919.161	14001
919.272	13738
919.383	13978
919.494	14096
919.604	14187
919.715	14012
919.826	13921
919.936	13944
920.047	14107
920.157	13970
920.267	14046
920.378	14016
920.488	13997
920.598	14233
920.708	14332
920.818	14111
920.928	14084
921.038	14305
921.148	14332
921.258	14046
921.368	13928
921.477	13704
921.587	13791
921.697	13666
921.806	13753
921.916	13647
922.025	13483
922.134	13403
922.244	13343
922.353	13449
922.462	13270
922.571	13282
922.68	13114
922.789	13038
922.898	13053
923.007	13004
923.116	13000
923.224	13053
923.333	13008
923.442	12970
923.55	12894
923.659	12894
923.767	12913
923.876	12970
923.984	12909
924.092	12810
924.201	12810
924.309	12802
924.417	12897
924.525	12814
924.633	12681
924.741	13468
924.849	12559
924.956	12654
925.064	12479
925.172	12380
925.279	12486
925.387	12544
925.494	12433
925.602	12677
925.709	12509
925.816	12429
925.924	12403
926.031	12547
926.138	12483
926.245	12585
926.352	12315
926.459	12456
926.566	12536
926.673	12448
926.779	12258
926.886	12220
926.993	12087
927.099	12053
927.206	11992
927.312	11954
927.419	12057
927.525	12110
927.631	12091
927.737	11935
927.843	11954
927.95	11779
928.056	11851
928.162	11931
928.267	11935
928.373	12498
928.479	12011
928.585	11745
928.69	11927
928.796	11832
928.901	11809
929.007	11657
929.112	11665
929.218	11710
929.323	11699
929.428	11649
929.533	11760
929.638	11539
929.743	11581
929.848	11638
929.953	11581
930.058	11592
930.163	11330
930.267	11330
930.372	11452
930.477	11326
930.581	11535
930.685	11330
930.79	11151
930.894	11239
930.998	11261
931.103	11246
931.207	11014
931.311	10976
931.415	10881
931.519	10649
931.623	10588
