Data from test_V78500241_2205.txt Node
Date: Fri Mar 25 15:25:12 CST 2022
User: usil
Spectrometer: V785-0024
Trigger mode: 0
Integration Time (sec): 4.000000E-1
Scans to average: 1
Nonlinearity correction enabled: false
Boxcar width: 0
Storing dark spectrum: false
XAxis mode: Wavelengths
Number of Pixels in Spectrum: 1024
>>>>>Begin Spectral Data<<<<<
801.071	27739
801.214	27888
801.356	27568
801.499	27473
801.641	27412
801.783	27329
801.926	27507
802.068	27313
802.211	27268
802.353	27157
802.496	27108
802.638	27032
802.78	27070
802.923	26823
803.065	26902
803.208	26956
803.35	26982
803.492	27272
803.635	27131
803.777	27096
803.919	27241
804.061	27466
804.204	27378
804.346	27135
804.488	27233
804.63	27165
804.773	27237
804.915	27306
805.057	27287
805.199	27169
805.341	27374
805.483	27222
805.626	27203
805.768	27260
805.91	27325
806.052	27496
806.194	27256
806.336	27481
806.478	27268
806.62	27485
806.762	27534
806.904	27660
807.046	27800
807.188	27717
807.33	27918
807.472	27895
807.614	27701
807.756	27652
807.898	27523
808.04	27583
808.182	27553
808.324	27682
808.465	27660
808.607	27880
808.749	27804
808.891	28090
809.033	28306
809.174	27964
809.316	27899
809.458	27907
809.6	27903
809.741	28090
809.883	28188
810.025	28238
810.166	28238
810.308	28226
810.45	28318
810.591	28287
810.733	27975
810.875	28063
811.016	27812
811.158	27793
811.299	28097
811.441	28067
811.582	28036
811.724	28040
811.865	27907
812.007	27972
812.148	27816
812.29	27857
812.431	28131
812.573	28204
812.714	28253
812.855	28584
812.997	28489
813.138	28763
813.279	28702
813.421	28394
813.562	28303
813.703	28310
813.845	28143
813.986	27816
814.127	27831
814.268	27701
814.41	27622
814.551	27591
814.692	27652
814.833	27553
814.974	27671
815.115	27652
815.256	27595
815.397	27591
815.539	27496
815.68	27427
815.821	27351
815.962	27496
816.103	27408
816.244	27313
816.385	27146
816.526	27218
816.666	27195
816.807	27017
816.948	27104
817.089	27058
817.23	26834
817.371	26921
817.512	27005
817.653	26887
817.793	26872
817.934	26933
818.075	26956
818.216	26937
818.356	27005
818.497	26815
818.638	26644
818.778	26674
818.919	26727
819.06	26632
819.2	26697
819.341	26895
819.481	26887
819.622	27001
819.762	27230
819.903	27169
820.043	27154
820.184	27150
820.324	27154
820.465	26937
820.605	26998
820.746	27051
820.886	26982
821.026	27039
821.167	27043
821.307	27070
821.447	26868
821.588	26891
821.728	26712
821.868	26495
822.008	26564
822.149	26347
822.289	26355
822.429	26229
822.569	25902
822.709	26096
822.849	25856
822.99	25795
823.13	25879
823.27	25822
823.41	25639
823.55	25647
823.69	25708
823.83	25624
823.97	25578
824.11	25540
824.25	25552
824.389	25479
824.529	25601
824.669	25635
824.809	25677
824.949	25411
825.089	25567
825.228	25559
825.368	25350
825.508	25297
825.648	25388
825.787	25407
825.927	25476
826.067	25228
826.206	25400
826.346	25373
826.485	25430
826.625	25430
826.765	25495
826.904	25415
827.044	25122
827.183	25282
827.323	25148
827.462	25091
827.601	25091
827.741	25179
827.88	25171
828.02	25000
828.159	25099
828.298	25019
828.437	25152
828.577	25080
828.716	25194
828.855	24985
828.994	24844
829.134	24806
829.273	24844
829.412	24722
829.551	24741
829.69	24726
829.829	24882
829.968	24848
830.107	24817
830.246	24734
830.385	24753
830.524	24726
830.663	24623
830.802	24456
830.941	24422
831.08	24277
831.219	24486
831.357	24566
831.496	24597
831.635	24422
831.774	24334
831.913	24391
832.051	24251
832.19	24117
832.329	24133
832.467	24144
832.606	24072
832.744	24091
832.883	24076
833.022	24064
833.16	24041
833.299	24106
833.437	24163
833.576	24045
833.714	24121
833.852	24334
833.991	24152
834.129	24076
834.267	24251
834.406	24155
834.544	24182
834.682	24072
834.821	24136
834.959	24376
835.097	24087
835.235	24148
835.373	24087
835.511	24095
835.65	24060
835.788	24018
835.926	23878
836.064	23809
836.202	23851
836.34	23939
836.478	24007
836.615	23992
836.753	23927
836.891	24003
837.029	23996
837.167	24003
837.305	23950
837.443	23935
837.58	23783
837.718	23863
837.856	23653
837.993	23741
838.131	23824
838.269	23528
838.406	23809
838.544	23589
838.681	23543
838.819	23417
838.956	23277
839.094	23227
839.231	23277
839.369	23474
839.506	23558
839.643	23516
839.781	23292
839.918	23303
840.055	23223
840.193	23231
840.33	23140
840.467	23204
840.604	23170
840.742	23482
840.879	23102
841.016	23029
841.153	23037
841.29	23292
841.427	23117
841.564	23185
841.701	23212
841.838	23208
841.975	23029
842.112	23025
842.249	23006
842.385	22896
842.522	23155
842.659	22953
842.796	22957
842.933	22816
843.069	22801
843.206	22915
843.343	22904
843.479	22831
843.616	22980
843.752	22694
843.889	22740
844.025	22835
844.162	22717
844.298	22816
844.435	22683
844.571	22656
844.708	22721
844.844	22820
844.98	22809
845.117	22771
845.253	22706
845.389	22641
845.525	22588
845.661	22474
845.798	22371
845.934	22504
846.07	22329
846.206	22497
846.342	22402
846.478	22398
846.614	22116
846.75	22051
846.886	22169
847.022	22284
847.158	22246
847.294	22268
847.429	22223
847.565	22177
847.701	22367
847.837	21964
847.972	21850
848.108	21979
848.244	21979
848.379	21804
848.515	21823
848.65	21720
848.786	21766
848.921	21739
849.057	21804
849.192	21751
849.328	21755
849.463	21709
849.598	21728
849.734	21591
849.869	21599
850.004	21568
850.14	21538
850.275	21420
850.41	21462
850.545	21538
850.68	21485
850.815	21492
850.95	21553
851.085	21747
851.22	21747
851.355	21534
851.49	21336
851.625	21291
851.76	21526
851.895	21431
852.03	21344
852.165	21416
852.299	21576
852.434	21576
852.569	21591
852.703	21462
852.838	21599
852.973	21599
853.107	21637
853.242	21466
853.376	21374
853.511	21135
853.645	21287
853.78	21370
853.914	21245
854.048	21344
854.183	21279
854.317	21348
854.451	21545
854.585	21405
854.72	21264
854.854	21435
854.988	21386
855.122	21382
855.256	21306
855.39	21237
855.524	21321
855.658	21302
855.792	21397
855.926	21397
856.06	21466
856.194	21359
856.327	21336
856.461	21165
856.595	21294
856.729	21412
856.862	21412
856.996	21329
857.13	21378
857.263	21416
857.397	21279
857.53	21245
857.664	21313
857.797	21408
857.931	21408
858.064	21424
858.197	21492
858.331	21283
858.464	21260
858.597	21306
858.731	21291
858.864	21272
858.997	21313
859.13	21294
859.263	21336
859.396	21393
859.529	21279
859.662	21169
859.795	21283
859.928	21340
860.061	21511
860.194	21466
860.327	21382
860.46	21272
860.592	21526
860.725	21405
860.858	21549
860.99	21412
861.123	21325
861.256	21260
861.388	21340
861.521	22017
861.653	21192
861.786	21154
861.918	21108
862.05	21161
862.183	21154
862.315	21408
862.447	21237
862.58	21199
862.712	21032
862.844	20986
862.976	21085
863.108	21150
863.24	21332
863.372	21013
863.504	20857
863.636	21096
863.768	21039
863.9	20967
864.032	20979
864.164	21005
864.296	21100
864.428	21169
864.559	21100
864.691	21077
864.823	21112
864.954	21005
865.086	20994
865.217	21036
865.349	20906
865.48	20910
865.612	20906
865.743	21104
865.875	20933
866.006	20830
866.137	20864
866.269	20902
866.4	20815
866.531	20899
866.662	20788
866.793	20796
866.924	20925
867.055	20941
867.186	20811
867.317	21039
867.448	20872
867.579	20826
867.71	20853
867.841	20785
867.972	20815
868.103	20864
868.233	20788
868.364	20838
868.495	20967
868.625	20944
868.756	21123
868.886	20986
869.017	21051
869.147	21214
869.278	21252
869.408	21173
869.539	21116
869.669	21135
869.799	21169
869.929	21165
870.06	21176
870.19	21336
870.32	21462
870.45	21511
870.58	21549
870.71	21610
870.84	21504
870.97	21481
871.1	21412
871.23	21671
871.36	21785
871.489	21625
871.619	21770
871.749	21641
871.879	21690
872.008	21709
872.138	21759
872.267	21686
872.397	21583
872.526	21633
872.656	21450
872.785	21538
872.915	21732
873.044	21797
873.173	21732
873.303	21789
873.432	21838
873.561	21838
873.69	21759
873.819	21698
873.948	21793
874.077	21762
874.206	21675
874.335	21724
874.464	21717
874.593	21949
874.722	21903
874.851	21975
874.979	22017
875.108	22101
875.237	21835
875.365	21907
875.494	21751
875.623	21888
875.751	22059
875.88	22051
876.008	21941
876.136	22181
876.265	22386
876.393	22554
876.521	22500
876.65	22466
876.778	22405
876.906	22306
877.034	22306
877.162	22409
877.29	22310
877.418	22299
877.546	22367
877.674	22341
877.802	22287
877.93	22291
878.058	22230
878.185	22223
878.313	22284
878.441	22287
878.568	22188
878.696	22265
878.824	22333
878.951	22314
879.079	22478
879.206	22497
879.333	22550
879.461	22295
879.588	22436
879.715	22428
879.842	22523
879.97	22276
880.097	22093
880.224	22124
880.351	22158
880.478	22086
880.605	22078
880.732	21945
880.859	22398
880.986	22135
881.112	22135
881.239	22036
881.366	21781
881.493	21808
881.619	21709
881.746	21732
881.872	21724
881.999	21629
882.125	21625
882.252	21591
882.378	21591
882.505	21823
882.631	21564
882.757	21336
882.883	21469
883.01	21336
883.136	21313
883.262	21184
883.388	21298
883.514	21473
883.64	21492
883.766	21325
883.892	21039
884.018	21230
884.143	21291
884.269	21424
884.395	21093
884.52	21100
884.646	21077
884.772	21001
884.897	20937
885.023	21081
885.148	21055
885.274	21184
885.399	21096
885.524	20990
885.65	20998
885.775	20963
885.9	21032
886.025	21135
886.15	21093
886.275	20929
886.4	20994
886.525	20948
886.65	20960
886.775	21017
886.9	21157
887.025	21222
887.149	20929
887.274	20773
887.399	20853
887.523	20773
887.648	20648
887.773	20705
887.897	20902
888.021	20853
888.146	20724
888.27	20845
888.395	20868
888.519	20796
888.643	20758
888.767	20716
888.891	20746
889.015	20587
889.139	20705
889.263	20594
889.387	20674
889.511	20872
889.635	20636
889.759	20579
889.883	20621
890.006	20571
890.13	20712
890.254	20518
890.377	20461
890.501	20408
890.624	20358
890.748	20476
890.871	20183
890.995	20240
891.118	20103
891.241	20119
891.364	20149
891.488	20138
891.611	20244
891.734	20050
891.857	20142
891.98	20126
892.103	20115
892.226	20100
892.349	20077
892.471	19982
892.594	20214
892.717	20149
892.839	20084
892.962	20088
893.085	20214
893.207	20046
893.33	19970
893.452	19967
893.575	20134
893.697	20012
893.819	20221
893.941	20294
894.064	20202
894.186	20119
894.308	20008
894.43	20115
894.552	20237
894.674	20153
894.796	20001
894.918	20058
895.04	20016
895.161	20195
895.283	20012
895.405	20012
895.526	20039
895.648	19955
895.769	19970
895.891	20100
896.012	20122
896.134	20183
896.255	20119
896.376	19970
896.498	20073
896.619	20134
896.74	20035
896.861	20130
896.982	20412
897.103	20473
897.224	20324
897.345	20271
897.466	20176
897.587	20336
897.708	20393
897.828	20374
897.949	20282
898.07	20252
898.19	20153
898.311	20377
898.431	20229
898.552	20313
898.672	20377
898.792	20355
898.913	20301
899.033	20206
899.153	20206
899.273	19993
899.393	20065
899.513	19993
899.633	19967
899.753	20020
899.873	20092
899.993	20039
900.113	20016
900.232	20016
900.352	19913
900.472	19932
900.591	19776
900.711	19868
900.83	19715
900.95	19974
901.069	19955
901.189	19635
901.308	19548
901.427	19365
901.546	19529
901.665	19491
901.784	19369
901.904	19304
902.023	19255
902.141	19088
902.26	19046
902.379	19069
902.498	18981
902.617	18859
902.735	19008
902.854	18935
902.973	18973
903.091	18608
903.21	18627
903.328	18650
903.446	18555
903.565	18338
903.683	18452
903.801	18350
903.919	18346
904.038	18388
904.156	18148
904.274	18357
904.392	18201
904.51	18273
904.627	18216
904.745	18239
904.863	18167
904.981	18007
905.098	17889
905.216	17908
905.334	17923
905.451	17824
905.569	17901
905.686	17794
905.803	17756
905.921	17672
906.038	17608
906.155	17501
906.272	17524
906.389	17482
906.506	17417
906.623	17368
906.74	17364
906.857	17265
906.974	17246
907.091	17402
907.208	17410
907.324	17368
907.441	17299
907.557	17052
907.674	16984
907.79	17060
907.907	17056
908.023	17064
908.139	17033
908.256	17048
908.372	16938
908.488	17003
908.604	16919
908.72	16713
908.836	16824
908.952	16767
909.068	16790
909.184	16987
909.3	16771
909.415	16835
909.531	16786
909.647	16497
909.762	16405
909.878	16504
909.993	16493
910.108	16443
910.224	16348
910.339	16500
910.454	16310
910.57	16280
910.685	16238
910.8	16459
910.915	16485
911.03	16272
911.145	16173
911.259	16105
911.374	16150
911.489	16097
911.604	15911
911.718	15888
911.833	15922
911.947	15701
912.062	15705
912.176	15831
912.291	15907
912.405	15728
912.519	16017
912.633	16063
912.748	15835
912.862	15903
912.976	15778
913.09	15492
913.204	15614
913.318	15587
913.431	15755
913.545	15660
913.659	15778
913.772	15568
913.886	15515
914	15393
914.113	15595
914.226	15587
914.34	15485
914.453	15405
914.566	15492
914.68	15401
914.793	15306
914.906	15081
915.019	15119
915.132	14914
915.245	15058
915.358	15207
915.47	15089
915.583	15051
915.696	15058
915.809	15146
915.921	15184
916.034	15001
916.146	14998
916.259	14864
916.371	15062
916.483	14975
916.595	14979
916.708	14948
916.82	14998
916.932	14781
917.044	14864
917.156	14807
917.268	14819
917.38	14750
917.491	14651
917.603	14746
917.715	14861
917.826	14792
917.938	14708
918.049	14575
918.161	14670
918.272	14842
918.384	14746
918.495	14629
918.606	14465
918.717	14457
918.828	14484
918.939	14400
919.05	14465
919.161	14442
919.272	14248
919.383	14332
919.494	14617
919.604	14750
919.715	14492
919.826	14381
919.936	14377
920.047	14503
920.157	14423
920.267	14617
920.378	14339
920.488	14370
920.598	14549
920.708	14686
920.818	14598
920.928	14594
921.038	14739
921.148	14632
921.258	14396
921.368	14202
921.477	14195
921.587	14225
921.697	14084
921.806	14123
921.916	14077
922.025	13887
922.134	13814
922.244	13776
922.353	13860
922.462	13689
922.571	13632
922.68	13540
922.789	13529
922.898	13483
923.007	13384
923.116	13540
923.224	13457
923.333	13430
923.442	13339
923.55	13285
923.659	13324
923.767	13362
923.876	13274
923.984	13400
924.092	13152
924.201	13274
924.309	13175
924.417	13282
924.525	13069
924.633	13198
924.741	13883
924.849	12897
924.956	13137
925.064	12958
925.172	12882
925.279	12833
925.387	12935
925.494	12909
925.602	13015
925.709	12882
925.816	12791
925.924	12894
926.031	12939
926.138	12871
926.245	12859
926.352	12760
926.459	12970
926.566	12878
926.673	12779
926.779	12570
926.886	12627
926.993	12540
927.099	12525
927.206	12452
927.312	12506
927.419	12547
927.525	12464
927.631	12498
927.737	12247
927.843	12281
927.95	12251
928.056	12330
928.162	12289
928.267	12391
928.373	12916
928.479	12315
928.585	12106
928.69	12228
928.796	12224
928.901	12178
929.007	12064
929.112	12125
929.218	12140
929.323	12022
929.428	11973
929.533	12167
929.638	11969
929.743	11912
929.848	11992
929.953	11988
930.058	11859
930.163	11684
930.267	11722
930.372	11794
930.477	11707
930.581	11912
930.685	11745
930.79	11600
930.894	11543
930.998	11459
931.103	11646
931.207	11376
931.311	11261
931.415	11056
931.519	10938
931.623	10896
