Data from test_V78500241_1636.txt Node
Date: Fri Mar 25 15:21:14 CST 2022
User: usil
Spectrometer: V785-0024
Trigger mode: 0
Integration Time (sec): 4.000000E-1
Scans to average: 1
Nonlinearity correction enabled: false
Boxcar width: 0
Storing dark spectrum: false
XAxis mode: Wavelengths
Number of Pixels in Spectrum: 1024
>>>>>Begin Spectral Data<<<<<
801.071	27918
801.214	27838
801.356	27610
801.499	27367
801.641	27283
801.783	27393
801.926	27435
802.068	27389
802.211	27450
802.353	27214
802.496	27036
802.638	26914
802.78	27009
802.923	27043
803.065	26891
803.208	26872
803.35	27032
803.492	27165
803.635	27188
803.777	27100
803.919	27260
804.061	27614
804.204	27393
804.346	27176
804.488	27093
804.63	27268
804.773	27047
804.915	27237
805.057	27237
805.199	27009
805.341	27272
805.483	27408
805.626	27279
805.768	27203
805.91	27370
806.052	27500
806.194	27408
806.336	27542
806.478	27386
806.62	27298
806.762	27408
806.904	27606
807.046	27850
807.188	27781
807.33	27785
807.472	27743
807.614	27759
807.756	27633
807.898	27492
808.04	27606
808.182	27496
808.324	27625
808.465	27743
808.607	27869
808.749	27922
808.891	28002
809.033	28150
809.174	27968
809.316	27937
809.458	27930
809.6	27899
809.741	28070
809.883	28257
810.025	28158
810.166	28204
810.308	28154
810.45	28055
810.591	28226
810.733	28067
810.875	27934
811.016	27728
811.158	27789
811.299	28082
811.441	28090
811.582	28139
811.724	27903
811.865	27922
812.007	27968
812.148	28006
812.29	27964
812.431	28150
812.573	28375
812.714	28287
812.855	28550
812.997	28512
813.138	28649
813.279	28615
813.421	28485
813.562	28417
813.703	28337
813.845	28154
813.986	27899
814.127	27797
814.268	27698
814.41	27831
814.551	27606
814.692	27728
814.833	27610
814.974	27781
815.115	27709
815.256	27496
815.397	27447
815.539	27485
815.68	27344
815.821	27401
815.962	27359
816.103	27523
816.244	27332
816.385	27127
816.526	27207
816.666	27112
816.807	27032
816.948	27001
817.089	27070
817.23	26895
817.371	27024
817.512	26975
817.653	26864
817.793	26830
817.934	26895
818.075	26883
818.216	26967
818.356	26990
818.497	26773
818.638	26659
818.778	26773
818.919	26746
819.06	26895
819.2	26674
819.341	26902
819.481	26910
819.622	27237
819.762	27184
819.903	27154
820.043	27157
820.184	27104
820.324	27131
820.465	27176
820.605	27203
820.746	27036
820.886	26811
821.026	27135
821.167	27028
821.307	27077
821.447	26956
821.588	26804
821.728	26834
821.868	26495
822.008	26347
822.149	26438
822.289	26324
822.429	26043
822.569	26096
822.709	26187
822.849	25932
822.99	25898
823.13	25814
823.27	25830
823.41	25852
823.55	25658
823.69	25750
823.83	25765
823.97	25715
824.11	25556
824.25	25499
824.389	25506
824.529	25613
824.669	25582
824.809	25635
824.949	25651
825.089	25518
825.228	25753
825.368	25365
825.508	25327
825.648	25464
825.787	25350
825.927	25362
826.067	25468
826.206	25392
826.346	25540
826.485	25384
826.625	25430
826.765	25426
826.904	25483
827.044	25232
827.183	25141
827.323	25103
827.462	25266
827.601	25206
827.741	25240
827.88	25164
828.02	24947
828.159	25225
828.298	25114
828.437	25320
828.577	25099
828.716	25304
828.855	25065
828.994	24867
829.134	24894
829.273	24852
829.412	24856
829.551	24673
829.69	24806
829.829	24837
829.968	24916
830.107	24779
830.246	24920
830.385	24844
830.524	24783
830.663	24658
830.802	24574
830.941	24452
831.08	24361
831.219	24612
831.357	24536
831.496	24623
831.635	24498
831.774	24270
831.913	24334
832.051	24323
832.19	24174
832.329	24155
832.467	24121
832.606	24144
832.744	24106
832.883	24159
833.022	24030
833.16	24140
833.299	24167
833.437	24174
833.576	24144
833.714	24144
833.852	24254
833.991	24167
834.129	24365
834.267	24334
834.406	24201
834.544	24258
834.682	24403
834.821	24228
834.959	24232
835.097	24003
835.235	24235
835.373	24159
835.511	24155
835.65	24106
835.788	24190
835.926	23885
836.064	23889
836.202	23954
836.34	24015
836.478	24133
836.615	23999
836.753	23973
836.891	23996
837.029	24022
837.167	23942
837.305	23870
837.443	23984
837.58	23851
837.718	23942
837.856	23851
837.993	23859
838.131	23726
838.269	23710
838.406	23752
838.544	23687
838.681	23551
838.819	23471
838.956	23349
839.094	23501
839.231	23372
839.369	23512
839.506	23687
839.643	23589
839.781	23387
839.918	23242
840.055	23326
840.193	23307
840.33	23273
840.467	23151
840.604	23299
840.742	23395
840.879	23181
841.016	23189
841.153	23132
841.29	23429
841.427	23223
841.564	23326
841.701	23280
841.838	23269
841.975	23102
842.112	23242
842.249	23121
842.385	22972
842.522	23174
842.659	23166
842.796	23006
842.933	23098
843.069	22961
843.206	22904
843.343	23056
843.479	22984
843.616	23056
843.752	22778
843.889	22831
844.025	22972
844.162	22767
844.298	22862
844.435	22835
844.571	22660
844.708	22908
844.844	22972
844.98	22908
845.117	22824
845.253	22634
845.389	22687
845.525	22679
845.661	22588
845.798	22538
845.934	22698
846.07	22516
846.206	22523
846.342	22592
846.478	22569
846.614	22276
846.75	22249
846.886	22341
847.022	22299
847.158	22204
847.294	22253
847.429	22299
847.565	22234
847.701	22421
847.837	21998
847.972	21934
848.108	22124
848.244	22074
848.379	21827
848.515	21903
848.65	21903
848.786	21861
848.921	21861
849.057	21922
849.192	21945
849.328	21903
849.463	21880
849.598	21865
849.734	21838
849.869	21762
850.004	21675
850.14	21709
850.275	21606
850.41	21526
850.545	21462
850.68	21564
850.815	21728
850.95	21625
851.085	21838
851.22	21743
851.355	21644
851.49	21599
851.625	21633
851.76	21679
851.895	21507
852.03	21583
852.165	21603
852.299	21500
852.434	21686
852.569	21625
852.703	21694
852.838	21553
852.973	21751
853.107	21823
853.242	21564
853.376	21492
853.511	21443
853.645	21401
853.78	21496
853.914	21367
854.048	21504
854.183	21397
854.317	21435
854.451	21705
854.585	21515
854.72	21549
854.854	21488
854.988	21332
855.122	21424
855.256	21294
855.39	21435
855.524	21507
855.658	21416
855.792	21462
855.926	21572
856.06	21504
856.194	21591
856.327	21504
856.461	21386
856.595	21393
856.729	21458
856.862	21538
856.996	21424
857.13	21428
857.263	21519
857.397	21519
857.53	21424
857.664	21477
857.797	21545
857.931	21488
858.064	21462
858.197	21538
858.331	21378
858.464	21504
858.597	21466
858.731	21386
858.864	21428
858.997	21370
859.13	21526
859.263	21443
859.396	21496
859.529	21439
859.662	21363
859.795	21332
859.928	21359
860.061	21500
860.194	21625
860.327	21504
860.46	21515
860.592	21618
860.725	21496
860.858	21583
860.99	21431
861.123	21332
861.256	21458
861.388	21431
861.521	22177
861.653	21340
861.786	21313
861.918	21279
862.05	21294
862.183	21310
862.315	21370
862.447	21462
862.58	21462
862.712	21123
862.844	21116
862.976	21249
863.108	21252
863.24	21485
863.372	21131
863.504	21195
863.636	21226
863.768	21218
863.9	21085
864.032	21051
864.164	21188
864.296	21245
864.428	21249
864.559	21218
864.691	21298
864.823	21108
864.954	21104
865.086	21096
865.217	21039
865.349	21085
865.48	20941
865.612	21047
865.743	21241
865.875	21062
866.006	20975
866.137	21154
866.269	20937
866.4	20990
866.531	20994
866.662	20826
866.793	20914
866.924	20872
867.055	21039
867.186	20944
867.317	20960
867.448	20902
867.579	20952
867.71	20929
867.841	20899
867.972	20891
868.103	20990
868.233	21024
868.364	20948
868.495	21020
868.625	21157
868.756	21310
868.886	21275
869.017	21108
869.147	21355
869.278	21340
869.408	21184
869.539	21169
869.669	21306
869.799	21302
869.929	21329
870.06	21317
870.19	21564
870.32	21424
870.45	21614
870.58	21633
870.71	21785
870.84	21751
870.97	21549
871.1	21690
871.23	21778
871.36	21709
871.489	21675
871.619	21861
871.749	21819
871.879	21770
872.008	21915
872.138	21835
872.267	21911
872.397	21580
872.526	21690
872.656	21736
872.785	21625
872.915	21656
873.044	21888
873.173	21857
873.303	21945
873.432	21842
873.561	21861
873.69	21762
873.819	21911
873.948	21983
874.077	21823
874.206	21835
874.335	21831
874.464	21850
874.593	21983
874.722	21937
874.851	22078
874.979	22074
875.108	22105
875.237	22010
875.365	21975
875.494	22029
875.623	22147
875.751	21956
875.88	22101
876.008	22238
876.136	22177
876.265	22417
876.393	22538
876.521	22649
876.65	22569
876.778	22413
876.906	22459
877.034	22348
877.162	22462
877.29	22295
877.418	22424
877.546	22394
877.674	22436
877.802	22424
877.93	22363
878.058	22322
878.185	22166
878.313	22344
878.441	22443
878.568	22287
878.696	22371
878.824	22322
878.951	22413
879.079	22542
879.206	22630
879.333	22531
879.461	22466
879.588	22634
879.715	22508
879.842	22668
879.97	22462
880.097	22322
880.224	22249
880.351	22219
880.478	22147
880.605	22196
880.732	22185
880.859	22352
880.986	22265
881.112	22291
881.239	22063
881.366	21770
881.493	21880
881.619	21800
881.746	21819
881.872	21736
881.999	21835
882.125	21694
882.252	21835
882.378	21682
882.505	21884
882.631	21595
882.757	21568
882.883	21553
883.01	21447
883.136	21462
883.262	21264
883.388	21363
883.514	21637
883.64	21583
883.766	21416
883.892	21252
884.018	21298
884.143	21401
884.269	21545
884.395	21256
884.52	21192
884.646	21154
884.772	21085
884.897	21020
885.023	21142
885.148	21188
885.274	21237
885.399	21367
885.524	21085
885.65	21169
885.775	21184
885.9	21188
886.025	21348
886.15	21127
886.275	21085
886.4	21028
886.525	21112
886.65	20963
886.775	21077
886.9	21192
887.025	21416
887.149	21104
887.274	20868
887.399	20830
887.523	20815
887.648	20838
887.773	20724
887.897	20948
888.021	20956
888.146	20804
888.27	20952
888.395	20876
888.519	21032
888.643	20921
888.767	21020
888.891	20796
889.015	20640
889.139	20716
889.263	20765
889.387	20724
889.511	20861
889.635	20792
889.759	20731
889.883	20712
890.006	20609
890.13	20746
890.254	20629
890.377	20670
890.501	20366
890.624	20381
890.748	20450
890.871	20256
890.995	20320
891.118	20149
891.241	20153
891.364	20282
891.488	20343
891.611	20362
891.734	20233
891.857	20366
891.98	20339
892.103	20294
892.226	20381
892.349	20122
892.471	20107
892.594	20206
892.717	20149
892.839	20073
892.962	20187
893.085	20172
893.207	20199
893.33	19917
893.452	20050
893.575	20183
893.697	20111
893.819	20290
893.941	20415
894.064	20294
894.186	20210
894.308	20024
894.43	20157
894.552	20263
894.674	20358
894.796	20065
894.918	20176
895.04	20122
895.161	20229
895.283	20138
895.405	20069
895.526	20073
895.648	20168
895.769	20043
895.891	20111
896.012	20259
896.134	20187
896.255	20233
896.376	19967
896.498	20107
896.619	20187
896.74	20157
896.861	20221
896.982	20427
897.103	20564
897.224	20423
897.345	20286
897.466	20347
897.587	20450
897.708	20396
897.828	20488
897.949	20267
898.07	20126
898.19	20252
898.311	20469
898.431	20282
898.552	20434
898.672	20415
898.792	20473
898.913	20259
899.033	20214
899.153	20267
899.273	20027
899.393	20248
899.513	20180
899.633	20229
899.753	20035
899.873	20024
899.993	20210
900.113	19997
900.232	20142
900.352	19951
900.472	19837
900.591	19818
900.711	19875
900.83	19803
900.95	19974
901.069	20031
901.189	19902
901.308	19499
901.427	19472
901.546	19457
901.665	19445
901.784	19445
901.904	19384
902.023	19350
902.141	19019
902.26	19042
902.379	19091
902.498	18962
902.617	18935
902.735	19023
902.854	18985
902.973	18875
903.091	18700
903.21	18688
903.328	18589
903.446	18616
903.565	18433
903.683	18540
903.801	18266
903.919	18357
904.038	18403
904.156	18338
904.274	18243
904.392	18232
904.51	18319
904.627	18216
904.745	18266
904.863	18228
904.981	18079
905.098	17878
905.216	17870
905.334	17912
905.451	17901
905.569	17870
905.686	17866
905.803	17961
905.921	17653
906.038	17745
906.155	17794
906.272	17627
906.389	17592
906.506	17429
906.623	17478
906.74	17402
906.857	17269
906.974	17330
907.091	17433
907.208	17581
907.324	17398
907.441	17349
907.557	17189
907.674	17178
907.79	17121
907.907	17083
908.023	17170
908.139	17185
908.256	17109
908.372	17102
908.488	17033
908.604	16889
908.72	16953
908.836	16831
908.952	16866
909.068	16847
909.184	17041
909.3	16835
909.415	16965
909.531	16744
909.647	16729
909.762	16649
909.878	16531
909.993	16580
910.108	16558
910.224	16481
910.339	16565
910.454	16409
910.57	16314
910.685	16318
910.8	16603
910.915	16531
911.03	16447
911.145	16219
911.259	16166
911.374	16177
911.489	16105
911.604	15994
911.718	15956
911.833	15846
911.947	15827
912.062	15675
912.176	15926
912.291	16010
912.405	15850
912.519	16078
912.633	15987
912.748	15930
912.862	15854
912.976	15778
913.09	15633
913.204	15800
913.318	15724
913.431	15797
913.545	15755
913.659	15774
913.772	15675
913.886	15629
914	15424
914.113	15614
914.226	15694
914.34	15561
914.453	15462
914.566	15553
914.68	15405
914.793	15291
914.906	15199
915.019	15112
915.132	15001
915.245	15135
915.358	15123
915.47	15165
915.583	15066
915.696	15169
915.809	15138
915.921	15317
916.034	15017
916.146	15043
916.259	15062
916.371	15184
916.483	15074
916.595	15005
916.708	14944
916.82	14967
916.932	14872
917.044	14925
917.156	14925
917.268	14861
917.38	14880
917.491	14788
917.603	14758
917.715	14963
917.826	14777
917.938	14762
918.049	14640
918.161	14792
918.272	14838
918.384	14788
918.495	14849
918.606	14484
918.717	14549
918.828	14568
918.939	14545
919.05	14480
919.161	14461
919.272	14286
919.383	14351
919.494	14636
919.604	14743
919.715	14514
919.826	14347
919.936	14594
920.047	14602
920.157	14507
920.267	14606
920.378	14480
920.488	14492
920.598	14701
920.708	14708
920.818	14724
920.928	14648
921.038	14701
921.148	14788
921.258	14412
921.368	14336
921.477	14195
921.587	14263
921.697	14058
921.806	14195
921.916	14161
922.025	13986
922.134	13841
922.244	13837
922.353	13944
922.462	13795
922.571	13776
922.68	13521
922.789	13510
922.898	13647
923.007	13460
923.116	13525
923.224	13544
923.333	13476
923.442	13419
923.55	13282
923.659	13339
923.767	13339
923.876	13350
923.984	13346
924.092	13327
924.201	13301
924.309	13263
924.417	13270
924.525	13240
924.633	13289
924.741	14100
924.849	13034
924.956	13095
925.064	13118
925.172	12897
925.279	12909
925.387	12977
925.494	12966
925.602	12981
925.709	13076
925.816	12772
925.924	12928
926.031	12939
926.138	12909
926.245	12924
926.352	12757
926.459	12897
926.566	12943
926.673	12764
926.779	12646
926.886	12650
926.993	12566
927.099	12536
927.206	12437
927.312	12391
927.419	12540
927.525	12426
927.631	12593
927.737	12410
927.843	12391
927.95	12220
928.056	12391
928.162	12319
928.267	12342
928.373	12981
928.479	12410
928.585	12102
928.69	12357
928.796	12361
928.901	12243
929.007	11977
929.112	12125
929.218	12136
929.323	12072
929.428	12057
929.533	12167
929.638	11969
929.743	12064
929.848	11927
929.953	11999
930.058	11843
930.163	11672
930.267	11805
930.372	11870
930.477	11695
930.581	11984
930.685	11771
930.79	11634
930.894	11714
930.998	11573
931.103	11745
931.207	11410
931.311	11296
931.415	11189
931.519	10991
931.623	11048
