Data from test_V78500241_2807.txt Node
Date: Fri Mar 25 15:29:24 CST 2022
User: usil
Spectrometer: V785-0024
Trigger mode: 0
Integration Time (sec): 4.000000E-1
Scans to average: 1
Nonlinearity correction enabled: false
Boxcar width: 0
Storing dark spectrum: false
XAxis mode: Wavelengths
Number of Pixels in Spectrum: 1024
>>>>>Begin Spectral Data<<<<<
801.071	27066
801.214	27157
801.356	26845
801.499	26834
801.641	26568
801.783	26731
801.926	26663
802.068	26716
802.211	26617
802.353	26587
802.496	26469
802.638	26206
802.78	26275
802.923	26240
803.065	26240
803.208	26320
803.35	26355
803.492	26438
803.635	26507
803.777	26305
803.919	26526
804.061	26834
804.204	26655
804.346	26343
804.488	26111
804.63	26583
804.773	26507
804.915	26404
805.057	26522
805.199	26465
805.341	26461
805.483	26552
805.626	26488
805.768	26450
805.91	26522
806.052	26560
806.194	26408
806.336	26777
806.478	26499
806.62	26507
806.762	26727
806.904	26758
807.046	27131
807.188	27096
807.33	27043
807.472	27020
807.614	26891
807.756	26979
807.898	26819
808.04	26743
808.182	26762
808.324	26872
808.465	26872
808.607	27051
808.749	27142
808.891	27344
809.033	27275
809.174	27329
809.316	27207
809.458	27047
809.6	27150
809.741	27287
809.883	27188
810.025	27431
810.166	27382
810.308	27450
810.45	27359
810.591	27336
810.733	27241
810.875	27154
811.016	27093
811.158	27020
811.299	27302
811.441	27370
811.582	27397
811.724	27329
811.865	27096
812.007	27245
812.148	27055
812.29	27024
812.431	27192
812.573	27424
812.714	27530
812.855	27663
812.997	27701
813.138	27876
813.279	27717
813.421	27724
813.562	27534
813.703	27416
813.845	27302
813.986	27081
814.127	26868
814.268	26853
814.41	26887
814.551	26758
814.692	26849
814.833	26731
814.974	26705
815.115	26731
815.256	26674
815.397	26636
815.539	26674
815.68	26613
815.821	26583
815.962	26655
816.103	26507
816.244	26381
816.385	26351
816.526	26408
816.666	26240
816.807	25997
816.948	26065
817.089	26256
817.23	26016
817.371	26031
817.512	26016
817.653	26039
817.793	25982
817.934	26054
818.075	25974
818.216	26062
818.356	25970
818.497	25913
818.638	25890
818.778	25974
818.919	25807
819.06	25849
819.2	25822
819.341	26134
819.481	25982
819.622	26263
819.762	26476
819.903	26229
820.043	26199
820.184	26187
820.324	26088
820.465	26233
820.605	26145
820.746	26210
820.886	25879
821.026	26218
821.167	26081
821.307	26157
821.447	26058
821.588	25963
821.728	25712
821.868	25700
822.008	25609
822.149	25533
822.289	25510
822.429	25331
822.569	25175
822.709	25358
822.849	24989
822.99	24981
823.13	24966
823.27	24897
823.41	24916
823.55	24692
823.69	24905
823.83	24791
823.97	24814
824.11	24574
824.25	24578
824.389	24620
824.529	24692
824.669	24700
824.809	24810
824.949	24783
825.089	24757
825.228	24654
825.368	24422
825.508	24521
825.648	24616
825.787	24528
825.927	24532
826.067	24410
826.206	24540
826.346	24585
826.485	24608
826.625	24445
826.765	24665
826.904	24498
827.044	24342
827.183	24190
827.323	24247
827.462	24380
827.601	24224
827.741	24197
827.88	24235
828.02	24178
828.159	24163
828.298	24304
828.437	24395
828.577	24239
828.716	24159
828.855	24049
828.994	23916
829.134	23988
829.273	23920
829.412	23942
829.551	23912
829.69	23866
829.829	24030
829.968	24083
830.107	24095
830.246	23851
830.385	23760
830.524	23836
830.663	23779
830.802	23653
830.941	23570
831.08	23459
831.219	23573
831.357	23707
831.496	23760
831.635	23490
831.774	23429
831.913	23360
832.051	23315
832.19	23296
832.329	23372
832.467	23284
832.606	23246
832.744	23166
832.883	23204
833.022	23003
833.16	23136
833.299	23197
833.437	23258
833.576	23261
833.714	23067
833.852	23330
833.991	23258
834.129	23261
834.267	23296
834.406	23360
834.544	23280
834.682	23395
834.821	23261
834.959	23326
835.097	23204
835.235	23372
835.373	23364
835.511	23235
835.65	23124
835.788	23151
835.926	22968
836.064	22938
836.202	22984
836.34	23155
836.478	23239
836.615	23079
836.753	23155
836.891	23277
837.029	23105
837.167	23090
837.305	23067
837.443	23010
837.58	22923
837.718	23037
837.856	22995
837.993	22938
838.131	22892
838.269	22820
838.406	22801
838.544	22790
838.681	22702
838.819	22626
838.956	22451
839.094	22481
839.231	22508
839.369	22607
839.506	22911
839.643	22740
839.781	22466
839.918	22402
840.055	22421
840.193	22398
840.33	22276
840.467	22462
840.604	22531
840.742	22683
840.879	22181
841.016	22341
841.153	22257
841.29	22402
841.427	22314
841.564	22348
841.701	22299
841.838	22253
841.975	22356
842.112	22261
842.249	22226
842.385	22242
842.522	22386
842.659	22257
842.796	22109
842.933	22139
843.069	22101
843.206	22070
843.343	22128
843.479	22200
843.616	22074
843.752	21903
843.889	21880
844.025	22105
844.162	21956
844.298	21930
844.435	21816
844.571	21941
844.708	21983
844.844	22029
844.98	22017
845.117	22025
845.253	21793
845.389	21633
845.525	21755
845.661	21819
845.798	21633
845.934	21728
846.07	21492
846.206	21728
846.342	21823
846.478	21576
846.614	21374
846.75	21249
846.886	21302
847.022	21583
847.158	21485
847.294	21332
847.429	21367
847.565	21344
847.701	21644
847.837	21176
847.972	21211
848.108	21165
848.244	21199
848.379	20944
848.515	20990
848.65	20944
848.786	20975
848.921	20830
849.057	21062
849.192	21013
849.328	20864
849.463	20982
849.598	20895
849.734	20788
849.869	20807
850.004	20705
850.14	20823
850.275	20788
850.41	20674
850.545	20651
850.68	20663
850.815	20644
850.95	20689
851.085	20838
851.22	20788
851.355	20724
851.49	20758
851.625	20819
851.76	20716
851.895	20663
852.03	20644
852.165	20739
852.299	20674
852.434	20853
852.569	20762
852.703	20746
852.838	20720
852.973	20686
853.107	20826
853.242	20651
853.376	20648
853.511	20480
853.645	20575
853.78	20674
853.914	20667
854.048	20476
854.183	20530
854.317	20587
854.451	20853
854.585	20560
854.72	20499
854.854	20640
854.988	20480
855.122	20442
855.256	20415
855.39	20526
855.524	20541
855.658	20575
855.792	20587
855.926	20560
856.06	20590
856.194	20575
856.327	20560
856.461	20560
856.595	20465
856.729	20507
856.862	20613
856.996	20556
857.13	20609
857.263	20701
857.397	20583
857.53	20465
857.664	20533
857.797	20541
857.931	20617
858.064	20583
858.197	20625
858.331	20518
858.464	20522
858.597	20499
858.731	20514
858.864	20427
858.997	20533
859.13	20518
859.263	20621
859.396	20469
859.529	20495
859.662	20530
859.795	20511
859.928	20659
860.061	20617
860.194	20708
860.327	20488
860.46	20613
860.592	20705
860.725	20705
860.858	20708
860.99	20518
861.123	20434
861.256	20511
861.388	20575
861.521	21165
861.653	20469
861.786	20298
861.918	20324
862.05	20495
862.183	20507
862.315	20530
862.447	20575
862.58	20332
862.712	20271
862.844	20298
862.976	20415
863.108	20282
863.24	20800
863.372	20317
863.504	20328
863.636	20214
863.768	20343
863.9	20298
864.032	20088
864.164	20248
864.296	20267
864.428	20377
864.559	20389
864.691	20336
864.823	20301
864.954	20290
865.086	20168
865.217	20202
865.349	20126
865.48	20122
865.612	20176
865.743	20309
865.875	20176
866.006	20237
866.137	20145
866.269	20115
866.4	20142
866.531	20012
866.662	20031
866.793	19986
866.924	20138
867.055	20183
867.186	20111
867.317	20206
867.448	20103
867.579	20065
867.71	19955
867.841	19947
867.972	20043
868.103	20119
868.233	20122
868.364	20027
868.495	20229
868.625	20301
868.756	20507
868.886	20275
869.017	20313
869.147	20404
869.278	20423
869.408	20301
869.539	20347
869.669	20366
869.799	20454
869.929	20552
870.06	20355
870.19	20705
870.32	20727
870.45	20663
870.58	20602
870.71	20830
870.84	20895
870.97	20746
871.1	20731
871.23	20925
871.36	21005
871.489	20910
871.619	20937
871.749	20948
871.879	20941
872.008	20952
872.138	20937
872.267	21024
872.397	20952
872.526	20845
872.656	20891
872.785	20868
872.915	20998
873.044	21146
873.173	20998
873.303	21036
873.432	21017
873.561	20899
873.69	20963
873.819	20960
873.948	21032
874.077	21077
874.206	20826
874.335	20941
874.464	21138
874.593	21298
874.722	21146
874.851	21169
874.979	21252
875.108	21279
875.237	21233
875.365	21093
875.494	21173
875.623	21370
875.751	21169
875.88	21230
876.008	21378
876.136	21466
876.265	21671
876.393	21823
876.521	21709
876.65	21671
876.778	21667
876.906	21694
877.034	21622
877.162	21606
877.29	21492
877.418	21622
877.546	21618
877.674	21603
877.802	21614
877.93	21572
878.058	21603
878.185	21424
878.313	21599
878.441	21534
878.568	21469
878.696	21435
878.824	21652
878.951	21603
879.079	21720
879.206	21884
879.333	21797
879.461	21762
879.588	21854
879.715	21720
879.842	21823
879.97	21751
880.097	21420
880.224	21538
880.351	21507
880.478	21428
880.605	21496
880.732	21545
880.859	21618
880.986	21428
881.112	21424
881.239	21211
881.366	21180
881.493	21138
881.619	21039
881.746	20929
881.872	21070
881.999	20982
882.125	21028
882.252	20998
882.378	21001
882.505	21195
882.631	20899
882.757	20640
882.883	20887
883.01	20823
883.136	20594
883.262	20613
883.388	20473
883.514	20632
883.64	20777
883.766	20716
883.892	20484
884.018	20617
884.143	20682
884.269	20796
884.395	20495
884.52	20301
884.646	20358
884.772	20389
884.897	20278
885.023	20385
885.148	20492
885.274	20480
885.399	20389
885.524	20309
885.65	20419
885.775	20320
885.9	20362
886.025	20518
886.15	20499
886.275	20412
886.4	20210
886.525	20259
886.65	20286
886.775	20271
886.9	20522
887.025	20617
887.149	20221
887.274	20221
887.399	20111
887.523	20180
887.648	20103
887.773	20054
887.897	20183
888.021	20138
888.146	20020
888.27	20442
888.395	20237
888.519	20187
888.643	20168
888.767	20100
888.891	19959
889.015	19944
889.139	20081
889.263	19799
889.387	20054
889.511	20176
889.635	20054
889.759	19883
889.883	19970
890.006	19967
890.13	20020
890.254	19852
890.377	19807
890.501	19818
890.624	19746
890.748	19734
890.871	19693
890.995	19499
891.118	19529
891.241	19460
891.364	19544
891.488	19643
891.611	19620
891.734	19483
891.857	19605
891.98	19605
892.103	19476
892.226	19460
892.349	19396
892.471	19362
892.594	19354
892.717	19571
892.839	19453
892.962	19472
893.085	19438
893.207	19491
893.33	19312
893.452	19407
893.575	19491
893.697	19400
893.819	19567
893.941	19590
894.064	19734
894.186	19384
894.308	19369
894.43	19559
894.552	19601
894.674	19552
894.796	19491
894.918	19407
895.04	19384
895.161	19487
895.283	19445
895.405	19426
895.526	19373
895.648	19525
895.769	19495
895.891	19483
896.012	19594
896.134	19445
896.255	19396
896.376	19445
896.498	19476
896.619	19540
896.74	19445
896.861	19537
896.982	19807
897.103	19799
897.224	19868
897.345	19723
897.466	19635
897.587	19776
897.708	19811
897.828	19753
897.949	19674
898.07	19548
898.19	19529
898.311	19731
898.431	19677
898.552	19734
898.672	19818
898.792	19727
898.913	19662
899.033	19582
899.153	19487
899.273	19377
899.393	19514
899.513	19521
899.633	19434
899.753	19514
899.873	19460
899.993	19548
900.113	19449
900.232	19480
900.352	19441
900.472	19293
900.591	19285
900.711	19266
900.83	19088
900.95	19339
901.069	19354
901.189	19247
901.308	18916
901.427	18768
901.546	18897
901.665	18810
901.784	18894
901.904	18757
902.023	18578
902.141	18467
902.26	18521
902.379	18467
902.498	18315
902.617	18315
902.735	18410
902.854	18353
902.973	18376
903.091	17927
903.21	18144
903.328	18098
903.446	17961
903.565	17836
903.683	17802
903.801	17828
903.919	17843
904.038	17813
904.156	17551
904.274	17729
904.392	17554
904.51	17566
904.627	17585
904.745	17710
904.863	17627
904.981	17436
905.098	17208
905.216	17330
905.334	17318
905.451	17318
905.569	17273
905.686	17258
905.803	17345
905.921	17067
906.038	17170
906.155	17174
906.272	17022
906.389	17048
906.506	16877
906.623	16877
906.74	16778
906.857	16744
906.974	16809
907.091	16862
907.208	16946
907.324	16839
907.441	16824
907.557	16474
907.674	16554
907.79	16508
907.907	16584
908.023	16660
908.139	16565
908.256	16455
908.372	16436
908.488	16489
908.604	16314
908.72	16181
908.836	16356
908.952	16253
909.068	16280
909.184	16424
909.3	16234
909.415	16226
909.531	16261
909.647	15998
909.762	15956
909.878	15842
909.993	16010
910.108	16002
910.224	15850
910.339	15884
910.454	15979
910.57	15762
910.685	15755
910.8	15960
910.915	15873
911.03	15812
911.145	15641
911.259	15542
911.374	15507
911.489	15572
911.604	15473
911.718	15386
911.833	15420
911.947	15252
912.062	15169
912.176	15348
912.291	15389
912.405	15359
912.519	15507
912.633	15469
912.748	15428
912.862	15355
912.976	15291
913.09	15093
913.204	15131
913.318	15066
913.431	15249
913.545	15237
913.659	15317
913.772	15123
913.886	15017
914	14921
914.113	15093
914.226	15097
914.34	14975
914.453	14845
914.566	15017
914.68	14914
914.793	14667
914.906	14667
915.019	14530
915.132	14431
915.245	14590
915.358	14724
915.47	14674
915.583	14575
915.696	14674
915.809	14571
915.921	14667
916.034	14568
916.146	14613
916.259	14438
916.371	14598
916.483	14465
916.595	14404
916.708	14427
916.82	14488
916.932	14355
917.044	14465
917.156	14415
917.268	14237
917.38	14339
917.491	14267
917.603	14298
917.715	14267
917.826	14370
917.938	14206
918.049	14081
918.161	14240
918.272	14332
918.384	14385
918.495	14218
918.606	14065
918.717	14046
918.828	14145
918.939	14058
919.05	14012
919.161	14001
919.272	13849
919.383	13852
919.494	14096
919.604	14259
919.715	13932
919.826	13955
919.936	13978
920.047	14119
920.157	14035
920.267	14180
920.378	13997
920.488	13989
920.598	14123
920.708	14347
920.818	14119
920.928	14111
921.038	14218
921.148	14218
921.258	13940
921.368	13860
921.477	13803
921.587	13784
921.697	13624
921.806	13746
921.916	13567
922.025	13445
922.134	13400
922.244	13369
922.353	13457
922.462	13320
922.571	13274
922.68	13095
922.789	12996
922.898	13057
923.007	13034
923.116	13103
923.224	13065
923.333	13091
923.442	12970
923.55	12935
923.659	12909
923.767	13031
923.876	12760
923.984	12935
924.092	12753
924.201	12859
924.309	12810
924.417	12760
924.525	12795
924.633	12760
924.741	13552
924.849	12612
924.956	12673
925.064	12479
925.172	12456
925.279	12521
925.387	12490
925.494	12566
925.602	12646
925.709	12566
925.816	12418
925.924	12460
926.031	12479
926.138	12464
926.245	12525
926.352	12407
926.459	12494
926.566	12467
926.673	12304
926.779	12247
926.886	12251
926.993	12159
927.099	12171
927.206	12045
927.312	12167
927.419	12076
927.525	12003
927.631	12117
927.737	11973
927.843	11939
927.95	11893
928.056	11863
928.162	11863
928.267	11965
928.373	12547
928.479	11942
928.585	11847
928.69	11908
928.796	11878
928.901	11832
929.007	11722
929.112	11828
929.218	11786
929.323	11688
929.428	11547
929.533	11741
929.638	11661
929.743	11566
929.848	11608
929.953	11558
930.058	11528
930.163	11337
930.267	11421
930.372	11486
930.477	11273
930.581	11570
930.685	11410
930.79	11178
930.894	11254
930.998	11166
931.103	11368
931.207	10987
931.311	10976
931.415	10885
931.519	10630
931.623	10683
