Data from test_V78500241_2425.txt Node
Date: Fri Mar 25 15:26:44 CST 2022
User: usil
Spectrometer: V785-0024
Trigger mode: 0
Integration Time (sec): 4.000000E-1
Scans to average: 1
Nonlinearity correction enabled: false
Boxcar width: 0
Storing dark spectrum: false
XAxis mode: Wavelengths
Number of Pixels in Spectrum: 1024
>>>>>Begin Spectral Data<<<<<
801.071	27142
801.214	27058
801.356	26967
801.499	26937
801.641	26648
801.783	26549
801.926	26739
802.068	26708
802.211	26701
802.353	26727
802.496	26434
802.638	26537
802.78	26453
802.923	26191
803.065	26290
803.208	26263
803.35	26400
803.492	26629
803.635	26613
803.777	26488
803.919	26507
804.061	26804
804.204	26689
804.346	26579
804.488	26457
804.63	26560
804.773	26408
804.915	26571
805.057	26705
805.199	26495
805.341	26636
805.483	26724
805.626	26564
805.768	26575
805.91	26804
806.052	26773
806.194	26526
806.336	26804
806.478	26758
806.62	26678
806.762	26724
806.904	26925
807.046	27173
807.188	27169
807.33	27024
807.472	27055
807.614	27039
807.756	27055
807.898	26906
808.04	26807
808.182	26902
808.324	26944
808.465	27127
808.607	27165
808.749	27306
808.891	27245
809.033	27355
809.174	27340
809.316	27123
809.458	27287
809.6	27313
809.741	27256
809.883	27378
810.025	27523
810.166	27523
810.308	27599
810.45	27469
810.591	27264
810.733	27294
810.875	27192
811.016	27032
811.158	27066
811.299	27252
811.441	27374
811.582	27389
811.724	27302
811.865	27211
812.007	27245
812.148	27131
812.29	27199
812.431	27450
812.573	27629
812.714	27625
812.855	27724
812.997	27831
813.138	27975
813.279	27842
813.421	27644
813.562	27759
813.703	27458
813.845	27454
813.986	27173
814.127	26956
814.268	26910
814.41	26963
814.551	26857
814.692	26899
814.833	26876
814.974	26994
815.115	26960
815.256	26819
815.397	26739
815.539	26705
815.68	26659
815.821	26602
815.962	26659
816.103	26568
816.244	26632
816.385	26488
816.526	26526
816.666	26176
816.807	26115
816.948	26301
817.089	26324
817.23	26206
817.371	26290
817.512	26309
817.653	26073
817.793	26153
817.934	26271
818.075	26275
818.216	26172
818.356	26191
818.497	26096
818.638	25875
818.778	25917
818.919	25830
819.06	25989
819.2	26062
819.341	26229
819.481	26183
819.622	26229
819.762	26507
819.903	26317
820.043	26324
820.184	26305
820.324	26336
820.465	26351
820.605	26396
820.746	26233
820.886	26172
821.026	26320
821.167	26126
821.307	26453
821.447	26244
821.588	26164
821.728	25993
821.868	25761
822.008	25776
822.149	25685
822.289	25788
822.429	25278
822.569	25365
822.709	25324
822.849	25110
822.99	25350
823.13	25141
823.27	25164
823.41	24928
823.55	24947
823.69	25031
823.83	25015
823.97	24795
824.11	24856
824.25	24897
824.389	24757
824.529	24882
824.669	24707
824.809	24970
824.949	24871
825.089	24916
825.228	24711
825.368	24665
825.508	24677
825.648	24646
825.787	24585
825.927	24700
826.067	24513
826.206	24616
826.346	24711
826.485	24650
826.625	24601
826.765	24806
826.904	24688
827.044	24441
827.183	24384
827.323	24357
827.462	24388
827.601	24513
827.741	24323
827.88	24418
828.02	24304
828.159	24289
828.298	24346
828.437	24247
828.577	24418
828.716	24350
828.855	24315
828.994	24095
829.134	24049
829.273	24140
829.412	24038
829.551	24121
829.69	24197
829.829	24057
829.968	24106
830.107	24155
830.246	24011
830.385	24186
830.524	23973
830.663	23866
830.802	23680
830.941	23824
831.08	23615
831.219	23889
831.357	23722
831.496	23874
831.635	23760
831.774	23414
831.913	23707
832.051	23482
832.19	23482
832.329	23436
832.467	23353
832.606	23444
832.744	23406
832.883	23303
833.022	23376
833.16	23341
833.299	23345
833.437	23421
833.576	23528
833.714	23478
833.852	23417
833.991	23558
834.129	23372
834.267	23356
834.406	23337
834.544	23516
834.682	23334
834.821	23444
834.959	23646
835.097	23417
835.235	23383
835.373	23429
835.511	23417
835.65	23318
835.788	23326
835.926	23178
836.064	23033
836.202	23052
836.34	23273
836.478	23330
836.615	23147
836.753	23220
836.891	23330
837.029	23159
837.167	23292
837.305	23208
837.443	23178
837.58	23075
837.718	23140
837.856	23143
837.993	23193
838.131	23075
838.269	22968
838.406	23079
838.544	22987
838.681	22797
838.819	22649
838.956	22557
839.094	22634
839.231	22698
839.369	22892
839.506	22946
839.643	22968
839.781	22683
839.918	22603
840.055	22691
840.193	22653
840.33	22554
840.467	22554
840.604	22679
840.742	22736
840.879	22504
841.016	22386
841.153	22596
841.29	22584
841.427	22561
841.564	22497
841.701	22508
841.838	22504
841.975	22474
842.112	22428
842.249	22409
842.385	22268
842.522	22565
842.659	22287
842.796	22261
842.933	22280
843.069	22246
843.206	22253
843.343	22375
843.479	22291
843.616	22341
843.752	22036
843.889	22063
844.025	22219
844.162	22105
844.298	22177
844.435	22055
844.571	22040
844.708	21998
844.844	22352
844.98	22367
845.117	22128
845.253	22067
845.389	21926
845.525	21941
845.661	21869
845.798	21827
845.934	21865
846.07	21622
846.206	21873
846.342	21899
846.478	21797
846.614	21705
846.75	21504
846.886	21492
847.022	21469
847.158	21622
847.294	21515
847.429	21618
847.565	21477
847.701	21808
847.837	21233
847.972	21203
848.108	21310
848.244	21420
848.379	21233
848.515	21131
848.65	21112
848.786	21237
848.921	21184
849.057	21260
849.192	21169
849.328	21138
849.463	21142
849.598	21096
849.734	21043
849.869	21032
850.004	20933
850.14	20876
850.275	20845
850.41	20838
850.545	20921
850.68	20895
850.815	20842
850.95	20880
851.085	21096
851.22	21077
851.355	20815
851.49	20990
851.625	20880
851.76	20895
851.895	20781
852.03	20811
852.165	20902
852.299	20887
852.434	21055
852.569	20925
852.703	20914
852.838	20876
852.973	21009
853.107	20994
853.242	20861
853.376	20804
853.511	20579
853.645	20602
853.78	20815
853.914	20765
854.048	20712
854.183	20697
854.317	20830
854.451	20868
854.585	20724
854.72	20667
854.854	20834
854.988	20659
855.122	20815
855.256	20674
855.39	20625
855.524	20792
855.658	20693
855.792	20762
855.926	20758
856.06	20731
856.194	20868
856.327	20632
856.461	20842
856.595	20746
856.729	20670
856.862	20781
856.996	20781
857.13	20773
857.263	20857
857.397	20785
857.53	20636
857.664	20785
857.797	20826
857.931	20800
858.064	20739
858.197	20895
858.331	20781
858.464	20765
858.597	20651
858.731	20655
858.864	20834
858.997	20625
859.13	20807
859.263	20826
859.396	20807
859.529	20575
859.662	20697
859.795	20636
859.928	20823
860.061	20823
860.194	20918
860.327	20902
860.46	20697
860.592	20834
860.725	20815
860.858	20823
860.99	20796
861.123	20724
861.256	20697
861.388	20693
861.521	21348
861.653	20621
861.786	20526
861.918	20564
862.05	20724
862.183	20594
862.315	20678
862.447	20670
862.58	20579
862.712	20484
862.844	20351
862.976	20568
863.108	20480
863.24	20750
863.372	20393
863.504	20476
863.636	20415
863.768	20507
863.9	20473
864.032	20358
864.164	20434
864.296	20324
864.428	20541
864.559	20579
864.691	20564
864.823	20400
864.954	20461
865.086	20263
865.217	20393
865.349	20358
865.48	20377
865.612	20377
865.743	20530
865.875	20393
866.006	20404
866.137	20358
866.269	20362
866.4	20298
866.531	20237
866.662	20233
866.793	20282
866.924	20263
867.055	20240
867.186	20202
867.317	20305
867.448	20263
867.579	20259
867.71	20138
867.841	20183
867.972	20374
868.103	20347
868.233	20419
868.364	20362
868.495	20438
868.625	20465
868.756	20701
868.886	20412
869.017	20514
869.147	20606
869.278	20602
869.408	20689
869.539	20629
869.669	20735
869.799	20651
869.929	20678
870.06	20579
870.19	20792
870.32	20754
870.45	20823
870.58	20975
870.71	20929
870.84	21093
870.97	20842
871.1	20975
871.23	21070
871.36	21173
871.489	20948
871.619	21112
871.749	21089
871.879	21233
872.008	21165
872.138	21138
872.267	21074
872.397	21150
872.526	20990
872.656	20941
872.785	21051
872.915	21112
873.044	21268
873.173	21222
873.303	21195
873.432	21188
873.561	21214
873.69	21146
873.819	21176
873.948	21211
874.077	21112
874.206	21081
874.335	21173
874.464	21268
874.593	21272
874.722	21291
874.851	21473
874.979	21428
875.108	21450
875.237	21443
875.365	21378
875.494	21351
875.623	21355
875.751	21439
875.88	21428
876.008	21481
876.136	21583
876.265	21778
876.393	21941
876.521	21907
876.65	21819
876.778	21816
876.906	21713
877.034	21709
877.162	21720
877.29	21770
877.418	21728
877.546	21709
877.674	21759
877.802	21671
877.93	21743
878.058	21686
878.185	21694
878.313	21660
878.441	21637
878.568	21572
878.696	21717
878.824	21743
878.951	21812
879.079	21903
879.206	22067
879.333	21861
879.461	21656
879.588	21755
879.715	21873
879.842	22017
879.97	21865
880.097	21610
880.224	21652
880.351	21698
880.478	21694
880.605	21538
880.732	21606
880.859	21755
880.986	21618
881.112	21553
881.239	21542
881.366	21279
881.493	21192
881.619	21104
881.746	21252
881.872	21222
881.999	21085
882.125	21169
882.252	21249
882.378	21195
882.505	21291
882.631	21089
882.757	21001
882.883	20929
883.01	20990
883.136	20769
883.262	20701
883.388	20670
883.514	20781
883.64	20910
883.766	20667
883.892	20602
884.018	20602
884.143	20876
884.269	20872
884.395	20579
884.52	20396
884.646	20537
884.772	20461
884.897	20465
885.023	20590
885.148	20651
885.274	20617
885.399	20526
885.524	20442
885.65	20629
885.775	20469
885.9	20450
886.025	20689
886.15	20526
886.275	20522
886.4	20473
886.525	20419
886.65	20396
886.775	20427
886.9	20609
887.025	20609
887.149	20396
887.274	20298
887.399	20370
887.523	20286
887.648	20240
887.773	20138
887.897	20396
888.021	20282
888.146	20183
888.27	20339
888.395	20282
888.519	20374
888.643	20305
888.767	20362
888.891	20343
889.015	20176
889.139	20237
889.263	20073
889.387	20252
889.511	20210
889.635	20157
889.759	20084
889.883	19978
890.006	20081
890.13	20240
890.254	19928
890.377	19947
890.501	19841
890.624	19871
890.748	19818
890.871	19784
890.995	19742
891.118	19647
891.241	19658
891.364	19769
891.488	19871
891.611	19639
891.734	19738
891.857	19670
891.98	19704
892.103	19719
892.226	19719
892.349	19540
892.471	19457
892.594	19571
892.717	19609
892.839	19521
892.962	19559
893.085	19605
893.207	19594
893.33	19388
893.452	19426
893.575	19651
893.697	19655
893.819	19833
893.941	19742
894.064	19658
894.186	19548
894.308	19552
894.43	19666
894.552	19635
894.674	19746
894.796	19647
894.918	19559
895.04	19567
895.161	19696
895.283	19704
895.405	19430
895.526	19601
895.648	19571
895.769	19605
895.891	19666
896.012	19647
896.134	19685
896.255	19499
896.376	19582
896.498	19655
896.619	19533
896.74	19658
896.861	19597
896.982	19947
897.103	20088
897.224	19837
897.345	19719
897.466	19746
897.587	19799
897.708	19917
897.828	19818
897.949	19734
898.07	19750
898.19	19803
898.311	19898
898.431	19731
898.552	19784
898.672	20005
898.792	19928
898.913	19772
899.033	19689
899.153	19727
899.273	19464
899.393	19514
899.513	19655
899.633	19556
899.753	19635
899.873	19358
899.993	19559
900.113	19616
900.232	19674
900.352	19453
900.472	19343
900.591	19255
900.711	19430
900.83	19255
900.95	19403
901.069	19350
901.189	19247
901.308	18981
901.427	18966
901.546	18951
901.665	18901
901.784	18901
901.904	18829
902.023	18791
902.141	18582
902.26	18513
902.379	18681
902.498	18483
902.617	18536
902.735	18452
902.854	18456
902.973	18350
903.091	18243
903.21	18178
903.328	18136
903.446	18144
903.565	17973
903.683	17878
903.801	17745
903.919	17901
904.038	17813
904.156	17691
904.274	17927
904.392	17779
904.51	17745
904.627	17783
904.745	17764
904.863	17756
904.981	17611
905.098	17398
905.216	17463
905.334	17398
905.451	17429
905.569	17360
905.686	17425
905.803	17516
905.921	17208
906.038	17303
906.155	17174
906.272	17071
906.389	17090
906.506	17025
906.623	16942
906.74	16957
906.857	16771
906.974	16908
907.091	16995
907.208	17094
907.324	17037
907.441	16809
907.557	16717
907.674	16717
907.79	16561
907.907	16782
908.023	16668
908.139	16615
908.256	16618
908.372	16584
908.488	16580
908.604	16462
908.72	16405
908.836	16394
908.952	16268
909.068	16363
909.184	16466
909.3	16443
909.415	16382
909.531	16303
909.647	16238
909.762	16128
909.878	16032
909.993	16067
910.108	16055
910.224	16082
910.339	16021
910.454	15968
910.57	15850
910.685	15793
910.8	16154
910.915	16010
911.03	15854
911.145	15671
911.259	15705
911.374	15667
911.489	15538
911.604	15553
911.718	15466
911.833	15504
911.947	15374
912.062	15310
912.176	15351
912.291	15401
912.405	15355
912.519	15557
912.633	15599
912.748	15519
912.862	15435
912.976	15283
913.09	15119
913.204	15142
913.318	15321
913.431	15279
913.545	15325
913.659	15351
913.772	15199
913.886	15100
914	15017
914.113	15150
914.226	15173
914.34	15119
914.453	14941
914.566	15070
914.68	14994
914.793	15020
914.906	14716
915.019	14693
915.132	14625
915.245	14610
915.358	14655
915.47	14651
915.583	14689
915.696	14735
915.809	14838
915.921	14842
916.034	14678
916.146	14629
916.259	14533
916.371	14648
916.483	14640
916.595	14610
916.708	14473
916.82	14507
916.932	14579
917.044	14629
917.156	14381
917.268	14339
917.38	14347
917.491	14389
917.603	14457
917.715	14347
917.826	14389
917.938	14263
918.049	14233
918.161	14389
918.272	14419
918.384	14480
918.495	14298
918.606	14157
918.717	14100
918.828	14103
918.939	14084
919.05	14005
919.161	14123
919.272	13921
919.383	13856
919.494	14221
919.604	14381
919.715	14096
919.826	14043
919.936	13989
920.047	14172
920.157	14107
920.267	14339
920.378	14039
920.488	14077
920.598	14199
920.708	14404
920.818	14168
920.928	14225
921.038	14408
921.148	14294
921.258	13928
921.368	13932
921.477	13871
921.587	13841
921.697	13776
921.806	13871
921.916	13605
922.025	13563
922.134	13544
922.244	13537
922.353	13537
922.462	13354
922.571	13350
922.68	13209
922.789	13168
922.898	13129
923.007	13110
923.116	13221
923.224	13114
923.333	13194
923.442	13031
923.55	13015
923.659	13053
923.767	13038
923.876	12939
923.984	13042
924.092	12966
924.201	12970
924.309	12886
924.417	12810
924.525	12894
924.633	12783
924.741	13818
924.849	12566
924.956	12802
925.064	12677
925.172	12616
925.279	12547
925.387	12506
925.494	12563
925.602	12684
925.709	12627
925.816	12486
925.924	12506
926.031	12570
926.138	12525
926.245	12498
926.352	12483
926.459	12498
926.566	12601
926.673	12460
926.779	12273
926.886	12281
926.993	12178
927.099	12190
927.206	12022
927.312	12144
927.419	12167
927.525	12205
927.631	12171
927.737	12003
927.843	11954
927.95	11893
928.056	11969
928.162	12030
928.267	12064
928.373	12688
928.479	11988
928.585	11710
928.69	11969
928.796	11980
928.901	11817
929.007	11619
929.112	11821
929.218	11851
929.323	11809
929.428	11707
929.533	11817
929.638	11646
929.743	11611
929.848	11737
929.953	11665
930.058	11573
930.163	11459
930.267	11406
930.372	11577
930.477	11326
930.581	11627
930.685	11459
930.79	11280
930.894	11303
930.998	11311
931.103	11372
931.207	11109
931.311	11006
931.415	10972
931.519	10759
931.623	10744
