Data from test_V78500241_1840.txt Node
Date: Fri Mar 25 15:22:40 CST 2022
User: usil
Spectrometer: V785-0024
Trigger mode: 0
Integration Time (sec): 4.000000E-1
Scans to average: 1
Nonlinearity correction enabled: false
Boxcar width: 0
Storing dark spectrum: false
XAxis mode: Wavelengths
Number of Pixels in Spectrum: 1024
>>>>>Begin Spectral Data<<<<<
801.071	27823
801.214	27648
801.356	27416
801.499	27382
801.641	27317
801.783	27359
801.926	27283
802.068	27176
802.211	27283
802.353	27108
802.496	26937
802.638	26929
802.78	27005
802.923	26921
803.065	26819
803.208	26956
803.35	26910
803.492	26998
803.635	27017
803.777	27093
803.919	27123
804.061	27466
804.204	27211
804.346	27055
804.488	27017
804.63	27039
804.773	27070
804.915	27112
805.057	27150
805.199	27062
805.341	27154
805.483	27306
805.626	27199
805.768	27252
805.91	27241
806.052	27165
806.194	27154
806.336	27389
806.478	27161
806.62	27272
806.762	27431
806.904	27568
807.046	27713
807.188	27549
807.33	27728
807.472	27679
807.614	27500
807.756	27564
807.898	27629
808.04	27507
808.182	27477
808.324	27526
808.465	27549
808.607	27774
808.749	27968
808.891	27964
809.033	28048
809.174	27812
809.316	27766
809.458	27987
809.6	27835
809.741	27998
809.883	28116
810.025	28086
810.166	28109
810.308	28154
810.45	28154
810.591	28029
810.733	27949
810.875	27823
811.016	27572
811.158	27808
811.299	27857
811.441	27934
811.582	27895
811.724	27717
811.865	27747
812.007	27793
812.148	27720
812.29	27876
812.431	27930
812.573	28147
812.714	28223
812.855	28421
812.997	28428
813.138	28535
813.279	28561
813.421	28413
813.562	28276
813.703	28143
813.845	28082
813.986	27743
814.127	27587
814.268	27595
814.41	27576
814.551	27538
814.692	27481
814.833	27492
814.974	27462
815.115	27515
815.256	27435
815.397	27317
815.539	27412
815.68	27283
815.821	27252
815.962	27321
816.103	27211
816.244	27199
816.385	27150
816.526	27085
816.666	26963
816.807	26849
816.948	26994
817.089	26906
817.23	26994
817.371	26857
817.512	26853
817.653	26720
817.793	26788
817.934	26811
818.075	26727
818.216	26796
818.356	26796
818.497	26659
818.638	26609
818.778	26480
818.919	26541
819.06	26686
819.2	26674
819.341	26823
819.481	26796
819.622	26986
819.762	27020
819.903	27070
820.043	27100
820.184	27058
820.324	26971
820.465	26929
820.605	26963
820.746	26887
820.886	26880
821.026	26918
821.167	26849
821.307	26906
821.447	26701
821.588	26777
821.728	26495
821.868	26396
822.008	26343
822.149	26313
822.289	26256
822.429	26214
822.569	25913
822.709	25947
822.849	25909
822.99	25814
823.13	25841
823.27	25746
823.41	25643
823.55	25426
823.69	25685
823.83	25502
823.97	25582
824.11	25396
824.25	25365
824.389	25400
824.529	25521
824.669	25487
824.809	25525
824.949	25556
825.089	25506
825.228	25556
825.368	25331
825.508	25308
825.648	25278
825.787	25297
825.927	25483
826.067	25354
826.206	25426
826.346	25396
826.485	25381
826.625	25324
826.765	25472
826.904	25411
827.044	25088
827.183	25160
827.323	25042
827.462	25027
827.601	25061
827.741	25012
827.88	25015
828.02	24958
828.159	25034
828.298	25088
828.437	25221
828.577	24954
828.716	25129
828.855	24951
828.994	24810
829.134	24905
829.273	24829
829.412	24779
829.551	24757
829.69	24715
829.829	24852
829.968	24882
830.107	24894
830.246	24776
830.385	24726
830.524	24825
830.663	24661
830.802	24563
830.941	24441
831.08	24395
831.219	24483
831.357	24505
831.496	24589
831.635	24486
831.774	24346
831.913	24311
832.051	24201
832.19	24205
832.329	24232
832.467	24155
832.606	24060
832.744	24003
832.883	24098
833.022	23984
833.16	24064
833.299	24026
833.437	23999
833.576	24095
833.714	24079
833.852	24194
833.991	24190
834.129	24239
834.267	24159
834.406	24194
834.544	24136
834.682	24190
834.821	24098
834.959	24384
835.097	24060
835.235	24201
835.373	24114
835.511	24194
835.65	24022
835.788	24049
835.926	23855
836.064	23805
836.202	23786
836.34	23935
836.478	24068
836.615	23931
836.753	23973
836.891	24068
837.029	24076
837.167	23878
837.305	23843
837.443	23866
837.58	23843
837.718	23798
837.856	23863
837.993	23695
838.131	23745
838.269	23703
838.406	23707
838.544	23642
838.681	23577
838.819	23512
838.956	23280
839.094	23315
839.231	23337
839.369	23406
839.506	23634
839.643	23543
839.781	23326
839.918	23231
840.055	23337
840.193	23326
840.33	23124
840.467	23208
840.604	23303
840.742	23490
840.879	23124
841.016	23124
841.153	23098
841.29	23307
841.427	23162
841.564	23197
841.701	23315
841.838	23212
841.975	23083
842.112	23086
842.249	23003
842.385	23041
842.522	23292
842.659	22980
842.796	23025
842.933	22984
843.069	22949
843.206	22801
843.343	23064
843.479	23044
843.616	22984
843.752	22771
843.889	22824
844.025	22900
844.162	22843
844.298	22797
844.435	22790
844.571	22706
844.708	22809
844.844	22987
844.98	22805
845.117	22698
845.253	22672
845.389	22489
845.525	22603
845.661	22599
845.798	22550
845.934	22519
846.07	22577
846.206	22466
846.342	22474
846.478	22485
846.614	22306
846.75	22249
846.886	22291
847.022	22249
847.158	22333
847.294	22287
847.429	22318
847.565	22181
847.701	22421
847.837	21964
847.972	21838
848.108	22032
848.244	21956
848.379	21926
848.515	21842
848.65	21762
848.786	21846
848.921	21785
849.057	21865
849.192	21846
849.328	21812
849.463	21774
849.598	21762
849.734	21724
849.869	21698
850.004	21618
850.14	21671
850.275	21675
850.41	21549
850.545	21580
850.68	21564
850.815	21610
850.95	21523
851.085	21747
851.22	21694
851.355	21656
851.49	21561
851.625	21519
851.76	21435
851.895	21447
852.03	21488
852.165	21591
852.299	21466
852.434	21644
852.569	21637
852.703	21614
852.838	21766
852.973	21709
853.107	21739
853.242	21511
853.376	21496
853.511	21256
853.645	21397
853.78	21462
853.914	21538
854.048	21279
854.183	21431
854.317	21469
854.451	21603
854.585	21447
854.72	21439
854.854	21492
854.988	21401
855.122	21340
855.256	21344
855.39	21416
855.524	21477
855.658	21435
855.792	21447
855.926	21424
856.06	21450
856.194	21431
856.327	21382
856.461	21408
856.595	21348
856.729	21317
856.862	21523
856.996	21386
857.13	21500
857.263	21447
857.397	21393
857.53	21431
857.664	21405
857.797	21553
857.931	21492
858.064	21530
858.197	21496
858.331	21378
858.464	21378
858.597	21294
858.731	21428
858.864	21462
858.997	21222
859.13	21408
859.263	21405
859.396	21641
859.529	21310
859.662	21370
859.795	21363
859.928	21336
860.061	21675
860.194	21622
860.327	21454
860.46	21351
860.592	21507
860.725	21553
860.858	21580
860.99	21481
861.123	21287
861.256	21340
861.388	21393
861.521	21972
861.653	21146
861.786	21222
861.918	21222
862.05	21313
862.183	21306
862.315	21477
862.447	21462
862.58	21222
862.712	21138
862.844	21085
862.976	21199
863.108	21169
863.24	21496
863.372	21051
863.504	21051
863.636	21070
863.768	21112
863.9	21135
864.032	21017
864.164	21077
864.296	21089
864.428	21127
864.559	21104
864.691	21161
864.823	21051
864.954	21028
865.086	21020
865.217	21047
865.349	20883
865.48	20929
865.612	21081
865.743	21096
865.875	21032
866.006	21017
866.137	20899
866.269	20994
866.4	20948
866.531	20933
866.662	20861
866.793	21005
866.924	20811
867.055	20925
867.186	20952
867.317	20773
867.448	20941
867.579	20921
867.71	20925
867.841	20796
867.972	20895
868.103	20845
868.233	21036
868.364	20998
868.495	20994
868.625	21222
868.756	21298
868.886	21096
869.017	21100
869.147	21207
869.278	21268
869.408	21180
869.539	21233
869.669	21260
869.799	21226
869.929	21351
870.06	21332
870.19	21439
870.32	21485
870.45	21443
870.58	21641
870.71	21599
870.84	21663
870.97	21755
871.1	21580
871.23	21675
871.36	21854
871.489	21618
871.619	21778
871.749	21614
871.879	21873
872.008	21857
872.138	21747
872.267	21732
872.397	21705
872.526	21473
872.656	21564
872.785	21553
872.915	21888
873.044	21800
873.173	21827
873.303	21838
873.432	21835
873.561	21899
873.69	21865
873.819	21804
873.948	21774
874.077	21774
874.206	21698
874.335	21778
874.464	21899
874.593	22032
874.722	21983
874.851	22006
874.979	21979
875.108	21987
875.237	22063
875.365	22063
875.494	21956
875.623	22010
875.751	21850
875.88	22036
876.008	22120
876.136	22196
876.265	22424
876.393	22523
876.521	22432
876.65	22459
876.778	22413
876.906	22344
877.034	22394
877.162	22329
877.29	22306
877.418	22287
877.546	22432
877.674	22192
877.802	22299
877.93	22314
878.058	22329
878.185	22284
878.313	22329
878.441	22348
878.568	22253
878.696	22295
878.824	22375
878.951	22417
879.079	22424
879.206	22550
879.333	22622
879.461	22394
879.588	22455
879.715	22554
879.842	22706
879.97	22413
880.097	22105
880.224	22143
880.351	22177
880.478	22230
880.605	22192
880.732	22188
880.859	22440
880.986	22131
881.112	22280
881.239	22036
881.366	21873
881.493	21785
881.619	21831
881.746	21778
881.872	21709
881.999	21679
882.125	21656
882.252	21671
882.378	21903
882.505	21873
882.631	21656
882.757	21496
882.883	21504
883.01	21431
883.136	21435
883.262	21275
883.388	21313
883.514	21359
883.64	21481
883.766	21439
883.892	21237
884.018	21142
884.143	21473
884.269	21412
884.395	21241
884.52	21001
884.646	21020
884.772	21150
884.897	21036
885.023	21116
885.148	21077
885.274	21237
885.399	21233
885.524	21066
885.65	20990
885.775	21093
885.9	21066
886.025	21279
886.15	21051
886.275	20994
886.4	20971
886.525	21055
886.65	21081
886.775	21028
886.9	21131
887.025	21233
887.149	20998
887.274	20918
887.399	20830
887.523	20944
887.648	20815
887.773	20845
887.897	20902
888.021	20910
888.146	20785
888.27	20967
888.395	20979
888.519	20994
888.643	20883
888.767	20830
888.891	20769
889.015	20632
889.139	20735
889.263	20693
889.387	20815
889.511	20819
889.635	20838
889.759	20568
889.883	20644
890.006	20762
890.13	20792
890.254	20499
890.377	20545
890.501	20423
890.624	20271
890.748	20446
890.871	20324
890.995	20142
891.118	20214
891.241	20294
891.364	20119
891.488	20320
891.611	20259
891.734	20187
891.857	20324
891.98	20225
892.103	20317
892.226	20259
892.349	20161
892.471	20088
892.594	20191
892.717	20252
892.839	20233
892.962	20126
893.085	20122
893.207	20096
893.33	20016
893.452	20005
893.575	20168
893.697	20115
893.819	20366
893.941	20298
894.064	20328
894.186	20069
894.308	20100
894.43	20313
894.552	20240
894.674	20176
894.796	19951
894.918	20202
895.04	20081
895.161	20221
895.283	20183
895.405	20035
895.526	20218
895.648	20077
895.769	20077
895.891	20221
896.012	20210
896.134	20096
896.255	20096
896.376	20107
896.498	20164
896.619	20100
896.74	20134
896.861	20271
896.982	20438
897.103	20492
897.224	20423
897.345	20305
897.466	20248
897.587	20271
897.708	20454
897.828	20423
897.949	20305
898.07	20210
898.19	20256
898.311	20396
898.431	20263
898.552	20324
898.672	20484
898.792	20351
898.913	20434
899.033	20290
899.153	20157
899.273	20008
899.393	20008
899.513	20119
899.633	19963
899.753	20088
899.873	19951
899.993	20180
900.113	20031
900.232	20077
900.352	19936
900.472	19868
900.591	19860
900.711	19860
900.83	19852
900.95	20001
901.069	19868
901.189	19693
901.308	19601
901.427	19491
901.546	19480
901.665	19441
901.784	19400
901.904	19339
902.023	19183
902.141	19031
902.26	19000
902.379	19080
902.498	19042
902.617	18837
902.735	18996
902.854	18939
902.973	18909
903.091	18585
903.21	18597
903.328	18559
903.446	18486
903.565	18418
903.683	18544
903.801	18372
903.919	18334
904.038	18323
904.156	18262
904.274	18281
904.392	18213
904.51	18209
904.627	18270
904.745	18304
904.863	18300
904.981	17866
905.098	17916
905.216	17817
905.334	17885
905.451	17954
905.569	17809
905.686	17847
905.803	17851
905.921	17668
906.038	17748
906.155	17672
906.272	17535
906.389	17509
906.506	17490
906.623	17497
906.74	17311
906.857	17280
906.974	17239
907.091	17539
907.208	17585
907.324	17406
907.441	17330
907.557	17162
907.674	17098
907.79	17071
907.907	17174
908.023	17193
908.139	17143
908.256	17067
908.372	16972
908.488	16923
908.604	16877
908.72	16885
908.836	16816
908.952	16831
909.068	16915
909.184	17003
909.3	16790
909.415	16862
909.531	16915
909.647	16592
909.762	16592
909.878	16550
909.993	16489
910.108	16500
910.224	16531
910.339	16478
910.454	16371
910.57	16375
910.685	16291
910.8	16573
910.915	16523
911.03	16352
911.145	16131
911.259	16082
911.374	16086
911.489	16055
911.604	16036
911.718	15876
911.833	15831
911.947	15766
912.062	15682
912.176	15800
912.291	15850
912.405	15926
912.519	16150
912.633	16036
912.748	15926
912.862	15926
912.976	15743
913.09	15564
913.204	15660
913.318	15724
913.431	15846
913.545	15774
913.659	15827
913.772	15671
913.886	15458
914	15458
914.113	15553
914.226	15717
914.34	15591
914.453	15374
914.566	15523
914.68	15359
914.793	15329
914.906	15180
915.019	15077
915.132	15062
915.245	15119
915.358	15188
915.47	15104
915.583	15116
915.696	15116
915.809	15306
915.921	15252
916.034	15097
916.146	15028
916.259	15074
916.371	15039
916.483	15085
916.595	14963
916.708	14941
916.82	14906
916.932	14929
917.044	14994
917.156	14914
917.268	14708
917.38	14792
917.491	14739
917.603	14823
917.715	14834
917.826	14785
917.938	14686
918.049	14606
918.161	14705
918.272	14883
918.384	14773
918.495	14678
918.606	14579
918.717	14511
918.828	14613
918.939	14533
919.05	14446
919.161	14419
919.272	14355
919.383	14343
919.494	14564
919.604	14640
919.715	14507
919.826	14381
919.936	14514
920.047	14484
920.157	14396
920.267	14625
920.378	14465
920.488	14438
920.598	14701
920.708	14868
920.818	14667
920.928	14629
921.038	14625
921.148	14727
921.258	14381
921.368	14252
921.477	14240
921.587	14210
921.697	14031
921.806	14290
921.916	14126
922.025	13883
922.134	13784
922.244	13795
922.353	13925
922.462	13734
922.571	13693
922.68	13521
922.789	13449
922.898	13472
923.007	13415
923.116	13529
923.224	13487
923.333	13521
923.442	13339
923.55	13304
923.659	13346
923.767	13419
923.876	13312
923.984	13400
924.092	13304
924.201	13316
924.309	13225
924.417	13293
924.525	13217
924.633	13202
924.741	14058
924.849	12958
924.956	13168
925.064	12947
925.172	12894
925.279	12939
925.387	12954
925.494	12943
925.602	12962
925.709	12977
925.816	12810
925.924	12901
926.031	12954
926.138	12894
926.245	12867
926.352	12814
926.459	12859
926.566	12935
926.673	12783
926.779	12726
926.886	12585
926.993	12574
927.099	12525
927.206	12433
927.312	12441
927.419	12494
927.525	12429
927.631	12559
927.737	12372
927.843	12407
927.95	12213
928.056	12266
928.162	12292
928.267	12410
928.373	12837
928.479	12414
928.585	12136
928.69	12197
928.796	12300
928.901	12163
929.007	12053
929.112	12136
929.218	12076
929.323	12083
929.428	12034
929.533	12186
929.638	11969
929.743	11969
929.848	12064
929.953	11927
930.058	11863
930.163	11745
930.267	11695
930.372	11843
930.477	11688
930.581	11859
930.685	11832
930.79	11532
930.894	11726
930.998	11509
931.103	11653
931.207	11326
931.311	11201
931.415	11216
931.519	11052
931.623	10927
