Data from test_V78500241_580.txt Node
Date: Fri Mar 25 15:13:53 CST 2022
User: usil
Spectrometer: V785-0024
Trigger mode: 0
Integration Time (sec): 4.000000E-1
Scans to average: 1
Nonlinearity correction enabled: false
Boxcar width: 0
Storing dark spectrum: false
XAxis mode: Wavelengths
Number of Pixels in Spectrum: 1024
>>>>>Begin Spectral Data<<<<<
801.071	27599
801.214	27553
801.356	27306
801.499	27370
801.641	27184
801.783	27154
801.926	27272
802.068	27161
802.211	27066
802.353	26952
802.496	26785
802.638	26792
802.78	26625
802.923	26758
803.065	26686
803.208	26762
803.35	26739
803.492	26918
803.635	26967
803.777	26769
803.919	26872
804.061	27291
804.204	26998
804.346	26769
804.488	26861
804.63	26952
804.773	26849
804.915	27074
805.057	26933
805.199	26956
805.341	26948
805.483	27070
805.626	26967
805.768	27017
805.91	27169
806.052	27001
806.194	26929
806.336	27131
806.478	27230
806.62	26967
806.762	27142
806.904	27344
807.046	27519
807.188	27424
807.33	27469
807.472	27534
807.614	27382
807.756	27367
807.898	27336
808.04	27256
808.182	27351
808.324	27348
808.465	27462
808.607	27488
808.749	27500
808.891	27595
809.033	27888
809.174	27701
809.316	27720
809.458	27576
809.6	27781
809.741	27781
809.883	27827
810.025	27964
810.166	27991
810.308	28036
810.45	27968
810.591	28105
810.733	27679
810.875	27774
811.016	27500
811.158	27603
811.299	27701
811.441	27766
811.582	27808
811.724	27561
811.865	27720
812.007	27591
812.148	27755
812.29	27641
812.431	27766
812.573	28105
812.714	28112
812.855	28169
812.997	28337
813.138	28375
813.279	28360
813.421	28280
813.562	28295
813.703	28128
813.845	27960
813.986	27724
814.127	27637
814.268	27245
814.41	27313
814.551	27329
814.692	27466
814.833	27325
814.974	27260
815.115	27378
815.256	27237
815.397	27264
815.539	27169
815.68	27214
815.821	27157
815.962	27188
816.103	27245
816.244	27173
816.385	26944
816.526	26918
816.666	26765
816.807	26674
816.948	26674
817.089	26777
817.23	26845
817.371	26792
817.512	26613
817.653	26663
817.793	26651
817.934	26651
818.075	26625
818.216	26629
818.356	26629
818.497	26431
818.638	26438
818.778	26366
818.919	26328
819.06	26453
819.2	26507
819.341	26598
819.481	26598
819.622	26868
819.762	26956
819.903	26834
820.043	26743
820.184	26731
820.324	26785
820.465	26880
820.605	26739
820.746	26670
820.886	26636
821.026	26746
821.167	26606
821.307	26826
821.447	26663
821.588	26606
821.728	26651
821.868	26275
822.008	26065
822.149	26100
822.289	25974
822.429	25712
822.569	25712
822.709	25807
822.849	25609
822.99	25609
823.13	25719
823.27	25487
823.41	25468
823.55	25373
823.69	25441
823.83	25472
823.97	25422
824.11	25304
824.25	25202
824.389	25274
824.529	25289
824.669	25263
824.809	25483
824.949	25381
825.089	25358
825.228	25228
825.368	25095
825.508	25008
825.648	25107
825.787	25187
825.927	25152
826.067	25107
826.206	25114
826.346	25263
826.485	25179
826.625	25114
826.765	25266
826.904	25198
827.044	24943
827.183	24962
827.323	24764
827.462	24867
827.601	24806
827.741	24901
827.88	24878
828.02	24536
828.159	24844
828.298	24798
828.437	24901
828.577	24844
828.716	24867
828.855	24738
828.994	24536
829.134	24528
829.273	24730
829.412	24486
829.551	24521
829.69	24479
829.829	24692
829.968	24715
830.107	24509
830.246	24494
830.385	24372
830.524	24456
830.663	24262
830.802	24194
830.941	24095
831.08	24007
831.219	24163
831.357	24155
831.496	24224
831.635	24148
831.774	24018
831.913	24140
832.051	24003
832.19	23942
832.329	24011
832.467	23897
832.606	23794
832.744	23798
832.883	23790
833.022	23767
833.16	23973
833.299	23851
833.437	23843
833.576	23847
833.714	23920
833.852	23950
833.991	23984
834.129	24053
834.267	23996
834.406	23824
834.544	23908
834.682	23843
834.821	23851
834.959	23901
835.097	23802
835.235	23897
835.373	23965
835.511	23847
835.65	23714
835.788	23672
835.926	23687
836.064	23459
836.202	23627
836.34	23760
836.478	23832
836.615	23646
836.753	23882
836.891	23828
837.029	23722
837.167	23726
837.305	23668
837.443	23573
837.58	23581
837.718	23592
837.856	23539
837.993	23505
838.131	23589
838.269	23497
838.406	23543
838.544	23383
838.681	23391
838.819	23193
838.956	23121
839.094	22965
839.231	23159
839.369	23239
839.506	23452
839.643	23280
839.781	23006
839.918	23010
840.055	23048
840.193	23124
840.33	22980
840.467	22923
840.604	23071
840.742	23277
840.879	22873
841.016	22915
841.153	22805
841.29	23155
841.427	23044
841.564	23003
841.701	22889
841.838	22946
841.975	22866
842.112	22854
842.249	22820
842.385	22858
842.522	22831
842.659	22919
842.796	22698
842.933	22767
843.069	22691
843.206	22698
843.343	22797
843.479	22672
843.616	22824
843.752	22550
843.889	22478
844.025	22672
844.162	22561
844.298	22660
844.435	22546
844.571	22485
844.708	22577
844.844	22603
844.98	22668
845.117	22694
845.253	22538
845.389	22386
845.525	22363
845.661	22466
845.798	22386
845.934	22325
846.07	22272
846.206	22322
846.342	22322
846.478	22204
846.614	22025
846.75	22074
846.886	21979
847.022	21953
847.158	21953
847.294	22006
847.429	22017
847.565	21975
847.701	22284
847.837	21842
847.972	21743
848.108	21732
848.244	21774
848.379	21690
848.515	21549
848.65	21576
848.786	21580
848.921	21515
849.057	21713
849.192	21599
849.328	21724
849.463	21614
849.598	21492
849.734	21481
849.869	21454
850.004	21348
850.14	21424
850.275	21332
850.41	21241
850.545	21268
850.68	21291
850.815	21367
850.95	21363
851.085	21576
851.22	21492
851.355	21401
851.49	21435
851.625	21249
851.76	21176
851.895	21237
852.03	21218
852.165	21424
852.299	21317
852.434	21386
852.569	21477
852.703	21340
852.838	21420
852.973	21466
853.107	21443
853.242	21268
853.376	21363
853.511	21013
853.645	21142
853.78	21264
853.914	21146
854.048	21119
854.183	21146
854.317	21260
854.451	21408
854.585	21260
854.72	21138
854.854	21252
854.988	21089
855.122	21154
855.256	21055
855.39	21218
855.524	21108
855.658	21226
855.792	21157
855.926	21195
856.06	21256
856.194	21089
856.327	21150
856.461	21089
856.595	21161
856.729	21112
856.862	21317
856.996	21138
857.13	21203
857.263	21264
857.397	21195
857.53	21131
857.664	21176
857.797	21264
857.931	21298
858.064	21165
858.197	21237
858.331	21214
858.464	21100
858.597	20937
858.731	21085
858.864	21154
858.997	21036
859.13	21199
859.263	21108
859.396	21192
859.529	21146
859.662	21066
859.795	21013
859.928	21157
860.061	21306
860.194	21348
860.327	21195
860.46	21131
860.592	21233
860.725	21363
860.858	21264
860.99	21195
861.123	21138
861.256	21184
861.388	21169
861.521	21945
861.653	20937
861.786	20876
861.918	21043
862.05	20986
862.183	21112
862.315	21100
862.447	21173
862.58	21070
862.712	20887
862.844	20796
862.976	20971
863.108	20952
863.24	21279
863.372	20777
863.504	20921
863.636	20914
863.768	20998
863.9	20834
864.032	20773
864.164	20777
864.296	20864
864.428	20963
864.559	20956
864.691	20925
864.823	20861
864.954	20758
865.086	20891
865.217	20674
865.349	20754
865.48	20838
865.612	20727
865.743	20914
865.875	20796
866.006	20758
866.137	20743
866.269	20731
866.4	20758
866.531	20712
866.662	20750
866.793	20629
866.924	20792
867.055	20781
867.186	20674
867.317	20693
867.448	20613
867.579	20682
867.71	20609
867.841	20575
867.972	20712
868.103	20743
868.233	20697
868.364	20648
868.495	20868
868.625	20918
868.756	21051
868.886	20891
869.017	20960
869.147	21058
869.278	21131
869.408	20956
869.539	20895
869.669	21028
869.799	20906
869.929	20960
870.06	21005
870.19	21207
870.32	21272
870.45	21363
870.58	21382
870.71	21488
870.84	21450
870.97	21378
871.1	21241
871.23	21500
871.36	21519
871.489	21454
871.619	21538
871.749	21389
871.879	21576
872.008	21679
872.138	21561
872.267	21511
872.397	21435
872.526	21450
872.656	21454
872.785	21359
872.915	21625
873.044	21728
873.173	21504
873.303	21641
873.432	21477
873.561	21701
873.69	21511
873.819	21538
873.948	21698
874.077	21561
874.206	21507
874.335	21481
874.464	21724
874.593	21774
874.722	21743
874.851	21804
874.979	21781
875.108	21873
875.237	21759
875.365	21747
875.494	21648
875.623	21759
875.751	21679
875.88	21915
876.008	21998
876.136	22040
876.265	22116
876.393	22405
876.521	22291
876.65	22147
876.778	22154
876.906	22036
877.034	22086
877.162	22230
877.29	22029
877.418	22082
877.546	22101
877.674	22147
877.802	22150
877.93	22158
878.058	22139
878.185	22055
878.313	22051
878.441	22055
878.568	22086
878.696	22032
878.824	22044
878.951	22268
879.079	22314
879.206	22371
879.333	22299
879.461	22177
879.588	22287
879.715	22166
879.842	22508
879.97	22238
880.097	21983
880.224	21964
880.351	21983
880.478	21953
880.605	21892
880.732	22067
880.859	22238
880.986	21991
881.112	22044
881.239	21732
881.366	21667
881.493	21656
881.619	21481
881.746	21496
881.872	21599
881.999	21538
882.125	21408
882.252	21648
882.378	21557
882.505	21523
882.631	21420
882.757	21230
882.883	21321
883.01	21195
883.136	21226
883.262	21165
883.388	21009
883.514	21340
883.64	21275
883.766	21116
883.892	21051
884.018	21165
884.143	21287
884.269	21332
884.395	20937
884.52	20785
884.646	20906
884.772	20826
884.897	20823
885.023	20815
885.148	20929
885.274	21199
885.399	20933
885.524	20872
885.65	20853
885.775	20941
885.9	20944
886.025	21116
886.15	21017
886.275	20815
886.4	20788
886.525	20788
886.65	20785
886.775	20868
886.9	20956
887.025	21100
887.149	20834
887.274	20765
887.399	20769
887.523	20670
887.648	20636
887.773	20617
887.897	20682
888.021	20613
888.146	20518
888.27	20678
888.395	20834
888.519	20682
888.643	20785
888.767	20720
888.891	20667
889.015	20415
889.139	20492
889.263	20511
889.387	20461
889.511	20640
889.635	20659
889.759	20488
889.883	20461
890.006	20518
890.13	20507
890.254	20374
890.377	20320
890.501	20252
890.624	20180
890.748	20290
890.871	20199
890.995	20043
891.118	20031
891.241	20092
891.364	19951
891.488	20244
891.611	19993
891.734	20084
891.857	20225
891.98	20001
892.103	20077
892.226	20031
892.349	19921
892.471	19830
892.594	19978
892.717	20012
892.839	19932
892.962	19898
893.085	19963
893.207	19795
893.33	19765
893.452	19936
893.575	19970
893.697	19795
893.819	20115
893.941	20020
894.064	20005
894.186	19871
894.308	19795
894.43	19921
894.552	20077
894.674	19951
894.796	19955
894.918	19989
895.04	19936
895.161	19879
895.283	19841
895.405	20024
895.526	19921
895.648	20001
895.769	19951
895.891	19947
896.012	20081
896.134	20012
896.255	20043
896.376	19871
896.498	19852
896.619	20043
896.74	19887
896.861	20024
896.982	20210
897.103	20332
897.224	20187
897.345	20301
897.466	20069
897.587	20191
897.708	20317
897.828	20244
897.949	20020
898.07	19982
898.19	20088
898.311	20122
898.431	20084
898.552	20122
898.672	20092
898.792	20168
898.913	20142
899.033	20046
899.153	19909
899.273	19917
899.393	19963
899.513	19936
899.633	19887
899.753	19894
899.873	19887
899.993	19883
900.113	19925
900.232	19925
900.352	19890
900.472	19826
900.591	19704
900.711	19601
900.83	19670
900.95	19674
901.069	19757
901.189	19639
901.308	19350
901.427	19247
901.546	19293
901.665	19263
901.784	19232
901.904	19225
902.023	19080
902.141	18909
902.26	18837
902.379	18966
902.498	18688
902.617	18840
902.735	18791
902.854	18669
902.973	18677
903.091	18471
903.21	18517
903.328	18448
903.446	18334
903.565	18239
903.683	18224
903.801	18186
903.919	18140
904.038	18186
904.156	18095
904.274	18038
904.392	18057
904.51	18068
904.627	17984
904.745	18144
904.863	18117
904.981	17821
905.098	17729
905.216	17737
905.334	17733
905.451	17748
905.569	17741
905.686	17707
905.803	17577
905.921	17482
906.038	17657
906.155	17596
906.272	17383
906.389	17455
906.506	17200
906.623	17258
906.74	17181
906.857	17193
906.974	17128
907.091	17311
907.208	17258
907.324	17303
907.441	17098
907.557	17003
907.674	16961
907.79	16938
907.907	16881
908.023	17105
908.139	17033
908.256	16889
908.372	16900
908.488	16831
908.604	16656
908.72	16710
908.836	16702
908.952	16793
909.068	16736
909.184	16812
909.3	16740
909.415	16729
909.531	16630
909.647	16394
909.762	16398
909.878	16459
909.993	16360
910.108	16405
910.224	16322
910.339	16333
910.454	16276
910.57	16253
910.685	16223
910.8	16394
910.915	16394
911.03	16181
911.145	16093
911.259	15998
911.374	15884
911.489	15895
911.604	15903
911.718	15827
911.833	15774
911.947	15557
912.062	15538
912.176	15736
912.291	15728
912.405	15705
912.519	16006
912.633	15922
912.748	15831
912.862	15713
912.976	15580
913.09	15477
913.204	15466
913.318	15462
913.431	15606
913.545	15622
913.659	15694
913.772	15561
913.886	15336
914	15386
914.113	15412
914.226	15401
914.34	15393
914.453	15230
914.566	15458
914.68	15340
914.793	15252
914.906	15112
915.019	14921
915.132	14948
915.245	14941
915.358	15077
915.47	14918
915.583	14941
915.696	14990
915.809	15085
915.921	15176
916.034	14823
916.146	14880
916.259	14902
916.371	14891
916.483	14929
916.595	14823
916.708	14777
916.82	14887
916.932	14640
917.044	14781
917.156	14773
917.268	14678
917.38	14686
917.491	14663
917.603	14594
917.715	14750
917.826	14735
917.938	14617
918.049	14434
918.161	14537
918.272	14697
918.384	14712
918.495	14663
918.606	14469
918.717	14332
918.828	14412
918.939	14461
919.05	14374
919.161	14377
919.272	14259
919.383	14294
919.494	14362
919.604	14530
919.715	14450
919.826	14294
919.936	14351
920.047	14370
920.157	14355
920.267	14530
920.378	14473
920.488	14400
920.598	14400
920.708	14606
920.818	14473
920.928	14507
921.038	14583
921.148	14678
921.258	14366
921.368	14240
921.477	14187
921.587	14145
921.697	13986
921.806	14142
921.916	13830
922.025	13833
922.134	13742
922.244	13719
922.353	13738
922.462	13616
922.571	13575
922.68	13487
922.789	13415
922.898	13419
923.007	13343
923.116	13422
923.224	13441
923.333	13354
923.442	13183
923.55	13190
923.659	13293
923.767	13285
923.876	13217
923.984	13168
924.092	13168
924.201	13046
924.309	13076
924.417	13145
924.525	13069
924.633	13072
924.741	13830
924.849	12894
924.956	12958
925.064	12894
925.172	12730
925.279	12764
925.387	12791
925.494	12825
925.602	12928
925.709	12890
925.816	12764
925.924	12734
926.031	12821
926.138	12867
926.245	12840
926.352	12719
926.459	12768
926.566	12875
926.673	12726
926.779	12559
926.886	12536
926.993	12456
927.099	12433
927.206	12327
927.312	12346
927.419	12403
927.525	12391
927.631	12369
927.737	12346
927.843	12182
927.95	12190
928.056	12251
928.162	12178
928.267	12254
928.373	12829
928.479	12353
928.585	12011
928.69	12155
928.796	12201
928.901	12030
929.007	11988
929.112	12098
929.218	12053
929.323	11980
929.428	11935
929.533	12007
929.638	11855
929.743	11912
929.848	11916
929.953	11855
930.058	11752
930.163	11596
930.267	11783
930.372	11828
930.477	11642
930.581	11802
930.685	11688
930.79	11516
930.894	11554
930.998	11509
931.103	11684
931.207	11284
931.311	11204
931.415	11147
931.519	10900
931.623	10843
