Data from test_V78500241_3498.txt Node
Date: Fri Mar 25 15:34:13 CST 2022
User: usil
Spectrometer: V785-0024
Trigger mode: 0
Integration Time (sec): 4.000000E-1
Scans to average: 1
Nonlinearity correction enabled: false
Boxcar width: 0
Storing dark spectrum: false
XAxis mode: Wavelengths
Number of Pixels in Spectrum: 1024
>>>>>Begin Spectral Data<<<<<
801.071	27291
801.214	27161
801.356	27032
801.499	26956
801.641	26853
801.783	26872
801.926	26918
802.068	26636
802.211	26754
802.353	26644
802.496	26606
802.638	26328
802.78	26404
802.923	26290
803.065	26240
803.208	26393
803.35	26442
803.492	26533
803.635	26651
803.777	26526
803.919	26720
804.061	26800
804.204	26746
804.346	26488
804.488	26606
804.63	26686
804.773	26431
804.915	26549
805.057	26746
805.199	26556
805.341	26670
805.483	26842
805.626	26625
805.768	26708
805.91	26613
806.052	26667
806.194	26682
806.336	26781
806.478	26720
806.62	26648
806.762	26838
806.904	27043
807.046	27245
807.188	26990
807.33	27131
807.472	27093
807.614	26979
807.756	27093
807.898	26800
808.04	26982
808.182	26967
808.324	27039
808.465	26872
808.607	27169
808.749	27336
808.891	27359
809.033	27439
809.174	27325
809.316	27363
809.458	27336
809.6	27169
809.741	27374
809.883	27401
810.025	27549
810.166	27496
810.308	27549
810.45	27557
810.591	27622
810.733	27367
810.875	27260
811.016	27112
811.158	27161
811.299	27492
811.441	27458
811.582	27359
811.724	27157
811.865	27313
812.007	27192
812.148	27211
812.29	27306
812.431	27389
812.573	27675
812.714	27717
812.855	27762
812.997	27892
813.138	28112
813.279	27861
813.421	27770
813.562	27679
813.703	27568
813.845	27416
813.986	27325
814.127	27150
814.268	27055
814.41	26963
814.551	27024
814.692	27043
814.833	26940
814.974	26834
815.115	26944
815.256	26849
815.397	26857
815.539	26804
815.68	26663
815.821	26754
815.962	26651
816.103	26670
816.244	26556
816.385	26488
816.526	26446
816.666	26240
816.807	26366
816.948	26336
817.089	26419
817.23	26317
817.371	26237
817.512	26149
817.653	26134
817.793	26267
817.934	26202
818.075	26221
818.216	26157
818.356	26172
818.497	26069
818.638	25989
818.778	26092
818.919	26161
819.06	25917
819.2	26187
819.341	26221
819.481	26248
819.622	26343
819.762	26545
819.903	26400
820.043	26351
820.184	26267
820.324	26164
820.465	26347
820.605	26362
820.746	26415
820.886	26138
821.026	26107
821.167	26332
821.307	26320
821.447	26290
821.588	26103
821.728	26005
821.868	25940
822.008	25715
822.149	25708
822.289	25651
822.429	25316
822.569	25483
822.709	25403
822.849	25232
822.99	25255
823.13	25114
823.27	25183
823.41	25091
823.55	24981
823.69	24996
823.83	24878
823.97	24901
824.11	24814
824.25	24840
824.389	24848
824.529	24966
824.669	24829
824.809	24863
824.949	24924
825.089	24837
825.228	24867
825.368	24631
825.508	24642
825.648	24654
825.787	24795
825.927	24768
826.067	24738
826.206	24715
826.346	24783
826.485	24810
826.625	24806
826.765	24886
826.904	24734
827.044	24597
827.183	24601
827.323	24372
827.462	24578
827.601	24479
827.741	24365
827.88	24448
828.02	24216
828.159	24456
828.298	24452
828.437	24528
828.577	24300
828.716	24547
828.855	24365
828.994	24228
829.134	24144
829.273	24258
829.412	24159
829.551	24057
829.69	24140
829.829	24182
829.968	24171
830.107	24235
830.246	24205
830.385	24049
830.524	24011
830.663	24026
830.802	23889
830.941	23775
831.08	23748
831.219	23904
831.357	23805
831.496	24053
831.635	23764
831.774	23615
831.913	23638
832.051	23467
832.19	23379
832.329	23600
832.467	23509
832.606	23353
832.744	23368
832.883	23395
833.022	23368
833.16	23330
833.299	23356
833.437	23478
833.576	23547
833.714	23402
833.852	23516
833.991	23608
834.129	23608
834.267	23710
834.406	23547
834.544	23547
834.682	23592
834.821	23520
834.959	23668
835.097	23589
835.235	23547
835.373	23497
835.511	23566
835.65	23368
835.788	23296
835.926	23246
836.064	23151
836.202	23067
836.34	23330
836.478	23410
836.615	23353
836.753	23353
836.891	23448
837.029	23421
837.167	23189
837.305	23102
837.443	23242
837.58	23124
837.718	23372
837.856	23147
837.993	23155
838.131	23159
838.269	23143
838.406	23121
838.544	22949
838.681	22850
838.819	22866
838.956	22717
839.094	22706
839.231	22744
839.369	22839
839.506	23083
839.643	22900
839.781	22687
839.918	22615
840.055	22622
840.193	22519
840.33	22561
840.467	22584
840.604	22656
840.742	23003
840.879	22440
841.016	22493
841.153	22474
841.29	22790
841.427	22710
841.564	22717
841.701	22664
841.838	22634
841.975	22550
842.112	22459
842.249	22367
842.385	22363
842.522	22580
842.659	22573
842.796	22436
842.933	22580
843.069	22413
843.206	22386
843.343	22421
843.479	22424
843.616	22481
843.752	22143
843.889	22128
844.025	22257
844.162	22090
844.298	22219
844.435	22173
844.571	22101
844.708	22147
844.844	22402
844.98	22249
845.117	22272
845.253	22105
845.389	22002
845.525	22055
845.661	21953
845.798	21960
845.934	22021
846.07	21880
846.206	21934
846.342	22017
846.478	21827
846.614	21671
846.75	21641
846.886	21587
847.022	21652
847.158	21496
847.294	21656
847.429	21663
847.565	21469
847.701	21797
847.837	21481
847.972	21310
848.108	21515
848.244	21401
848.379	21241
848.515	21241
848.65	21264
848.786	21214
848.921	21226
849.057	21310
849.192	21386
849.328	21329
849.463	21222
849.598	21306
849.734	21245
849.869	21096
850.004	20990
850.14	21036
850.275	20948
850.41	20994
850.545	21043
850.68	20960
850.815	21032
850.95	20986
851.085	21161
851.22	21070
851.355	21024
851.49	20895
851.625	20914
851.76	21047
851.895	20956
852.03	20800
852.165	21001
852.299	20982
852.434	21005
852.569	21005
852.703	20967
852.838	21127
852.973	21169
853.107	21165
853.242	20918
853.376	20754
853.511	20739
853.645	20830
853.78	20933
853.914	20777
854.048	20826
854.183	20845
854.317	20914
854.451	20967
854.585	20845
854.72	20781
854.854	20914
854.988	20838
855.122	20902
855.256	20735
855.39	20872
855.524	20849
855.658	20807
855.792	20796
855.926	20815
856.06	20921
856.194	20910
856.327	20777
856.461	20720
856.595	20823
856.729	20853
856.862	20811
856.996	20769
857.13	20876
857.263	20929
857.397	20842
857.53	20629
857.664	20838
857.797	20830
857.931	20880
858.064	20796
858.197	21001
858.331	20864
858.464	20781
858.597	20769
858.731	20807
858.864	20689
858.997	20724
859.13	20815
859.263	20781
859.396	20845
859.529	20830
859.662	20735
859.795	20750
859.928	20967
860.061	21047
860.194	20994
860.327	20979
860.46	20842
860.592	20986
860.725	21001
860.858	21001
860.99	20925
861.123	20804
861.256	20788
861.388	20849
861.521	21614
861.653	20629
861.786	20621
861.918	20750
862.05	20693
862.183	20686
862.315	20864
862.447	20823
862.58	20659
862.712	20564
862.844	20404
862.976	20674
863.108	20602
863.24	21024
863.372	20370
863.504	20648
863.636	20511
863.768	20632
863.9	20560
864.032	20541
864.164	20560
864.296	20636
864.428	20609
864.559	20499
864.691	20632
864.823	20484
864.954	20457
865.086	20488
865.217	20533
865.349	20381
865.48	20514
865.612	20469
865.743	20621
865.875	20636
866.006	20434
866.137	20347
866.269	20499
866.4	20389
866.531	20404
866.662	20332
866.793	20446
866.924	20320
867.055	20427
867.186	20480
867.317	20324
867.448	20298
867.579	20336
867.71	20339
867.841	20393
867.972	20381
868.103	20343
868.233	20294
868.364	20431
868.495	20526
868.625	20594
868.756	20697
868.886	20590
869.017	20693
869.147	20686
869.278	20743
869.408	20609
869.539	20613
869.669	20533
869.799	20712
869.929	20781
870.06	20800
870.19	21005
870.32	20899
870.45	21020
870.58	20944
870.71	21142
870.84	21058
870.97	20963
871.1	21070
871.23	21260
871.36	21268
871.489	21055
871.619	21180
871.749	21222
871.879	21222
872.008	21317
872.138	21260
872.267	21336
872.397	21062
872.526	21081
872.656	20982
872.785	21173
872.915	21340
873.044	21287
873.173	21355
873.303	21249
873.432	21332
873.561	21332
873.69	21256
873.819	21199
873.948	21359
874.077	21214
874.206	21192
874.335	21252
874.464	21336
874.593	21545
874.722	21348
874.851	21603
874.979	21564
875.108	21641
875.237	21496
875.365	21500
875.494	21568
875.623	21545
875.751	21386
875.88	21591
876.008	21591
876.136	21652
876.265	21850
876.393	22029
876.521	22029
876.65	22082
876.778	21888
876.906	21895
877.034	21854
877.162	21888
877.29	21869
877.418	21865
877.546	21854
877.674	21717
877.802	21827
877.93	21922
878.058	21838
878.185	21583
878.313	21709
878.441	21823
878.568	21629
878.696	21762
878.824	21732
878.951	22059
879.079	21975
879.206	22131
879.333	22063
879.461	21953
879.588	21899
879.715	21994
879.842	22181
879.97	21956
880.097	21713
880.224	21648
880.351	21762
880.478	21759
880.605	21652
880.732	21720
880.859	21956
880.986	21770
881.112	21774
881.239	21599
881.366	21500
881.493	21264
881.619	21222
881.746	21214
881.872	21294
881.999	21169
882.125	21203
882.252	21268
882.378	21199
882.505	21496
882.631	21150
882.757	20971
882.883	21024
883.01	21108
883.136	20994
883.262	20906
883.388	20716
883.514	20910
883.64	21036
883.766	20845
883.892	20655
884.018	20937
884.143	20899
884.269	21051
884.395	20716
884.52	20606
884.646	20697
884.772	20461
884.897	20442
885.023	20667
885.148	20678
885.274	20708
885.399	20587
885.524	20594
885.65	20587
885.775	20689
885.9	20549
886.025	20758
886.15	20632
886.275	20552
886.4	20488
886.525	20499
886.65	20503
886.775	20530
886.9	20659
887.025	20762
887.149	20606
887.274	20415
887.399	20450
887.523	20324
887.648	20339
887.773	20290
887.897	20484
888.021	20393
888.146	20328
888.27	20499
888.395	20488
888.519	20366
888.643	20404
888.767	20415
888.891	20301
889.015	20229
889.139	20210
889.263	20035
889.387	20286
889.511	20396
889.635	20385
889.759	20145
889.883	20218
890.006	20176
890.13	20473
890.254	20157
890.377	20122
890.501	19974
890.624	19902
890.748	19982
890.871	19719
890.995	19795
891.118	19708
891.241	19704
891.364	19814
891.488	19913
891.611	19890
891.734	19696
891.857	19856
891.98	19822
892.103	19818
892.226	19791
892.349	19753
892.471	19491
892.594	19601
892.717	19727
892.839	19594
892.962	19723
893.085	19818
893.207	19578
893.33	19533
893.452	19457
893.575	19677
893.697	19795
893.819	19856
893.941	19928
894.064	19765
894.186	19670
894.308	19540
894.43	19731
894.552	19814
894.674	19750
894.796	19628
894.918	19563
895.04	19655
895.161	19830
895.283	19772
895.405	19525
895.526	19635
895.648	19624
895.769	19689
895.891	19681
896.012	19693
896.134	19719
896.255	19696
896.376	19620
896.498	19651
896.619	19696
896.74	19723
896.861	19727
896.982	20016
897.103	20282
897.224	19951
897.345	19894
897.466	19860
897.587	19852
897.708	20035
897.828	19970
897.949	19788
898.07	19776
898.19	19803
898.311	20012
898.431	19753
898.552	19883
898.672	19978
898.792	19917
898.913	19852
899.033	19704
899.153	19719
899.273	19689
899.393	19719
899.513	19727
899.633	19708
899.753	19696
899.873	19563
899.993	19666
900.113	19533
900.232	19575
900.352	19651
900.472	19582
900.591	19441
900.711	19400
900.83	19377
900.95	19639
901.069	19578
901.189	19293
901.308	19065
901.427	18947
901.546	19004
901.665	19012
901.784	19080
901.904	18993
902.023	18806
902.141	18631
902.26	18502
902.379	18715
902.498	18563
902.617	18509
902.735	18490
902.854	18479
902.973	18426
903.091	18270
903.21	18235
903.328	18258
903.446	18110
903.565	18011
903.683	18144
903.801	17885
903.919	17916
904.038	17954
904.156	17847
904.274	17889
904.392	17824
904.51	17676
904.627	17794
904.745	17882
904.863	17885
904.981	17634
905.098	17490
905.216	17406
905.334	17524
905.451	17532
905.569	17368
905.686	17573
905.803	17490
905.921	17296
906.038	17459
906.155	17326
906.272	17151
906.389	17178
906.506	17121
906.623	17014
906.74	16961
906.857	16850
906.974	16984
907.091	17010
907.208	17075
907.324	17064
907.441	16839
907.557	16744
907.674	16767
907.79	16580
907.907	16660
908.023	16733
908.139	16691
908.256	16664
908.372	16683
908.488	16656
908.604	16580
908.72	16360
908.836	16504
908.952	16436
909.068	16371
909.184	16580
909.3	16527
909.415	16493
909.531	16363
909.647	16246
909.762	16177
909.878	16166
909.993	16219
910.108	16188
910.224	16150
910.339	16204
910.454	16051
910.57	16029
910.685	15972
910.8	16162
910.915	16158
911.03	15979
911.145	15812
911.259	15812
911.374	15774
911.489	15717
911.604	15618
911.718	15542
911.833	15538
911.947	15401
912.062	15279
912.176	15561
912.291	15572
912.405	15511
912.519	15622
912.633	15751
912.748	15504
912.862	15431
912.976	15481
913.09	15230
913.204	15207
913.318	15329
913.431	15466
913.545	15420
913.659	15412
913.772	15306
913.886	15142
914	15024
914.113	15268
914.226	15245
914.34	15173
914.453	14986
914.566	15161
914.68	15127
914.793	15013
914.906	14754
915.019	14708
915.132	14720
915.245	14788
915.358	14769
915.47	14708
915.583	14701
915.696	14777
915.809	14777
915.921	14906
916.034	14762
916.146	14651
916.259	14670
916.371	14674
916.483	14621
916.595	14571
916.708	14731
916.82	14621
916.932	14606
917.044	14492
917.156	14530
917.268	14454
917.38	14446
917.491	14396
917.603	14381
917.715	14480
917.826	14533
917.938	14336
918.049	14195
918.161	14419
918.272	14461
918.384	14537
918.495	14282
918.606	14233
918.717	14142
918.828	14237
918.939	14229
919.05	14168
919.161	14065
919.272	13909
919.383	13986
919.494	14195
919.604	14385
919.715	14157
919.826	14123
919.936	14096
920.047	14252
920.157	14180
920.267	14301
920.378	14157
920.488	14176
920.598	14332
920.708	14427
920.818	14294
920.928	14343
921.038	14499
921.148	14431
921.258	14138
921.368	14005
921.477	13955
921.587	13833
921.697	13731
921.806	13947
921.916	13799
922.025	13590
922.134	13518
922.244	13495
922.353	13624
922.462	13460
922.571	13377
922.68	13149
922.789	13225
922.898	13152
923.007	13213
923.116	13206
923.224	13217
923.333	13194
923.442	13080
923.55	13012
923.659	13099
923.767	13202
923.876	12989
923.984	13042
924.092	12993
924.201	13019
924.309	12970
924.417	12890
924.525	12928
924.633	12852
924.741	13674
924.849	12627
924.956	12802
925.064	12703
925.172	12623
925.279	12654
925.387	12669
925.494	12627
925.602	12776
925.709	12639
925.816	12589
925.924	12635
926.031	12669
926.138	12547
926.245	12631
926.352	12471
926.459	12563
926.566	12616
926.673	12464
926.779	12445
926.886	12388
926.993	12319
927.099	12262
927.206	12110
927.312	12167
927.419	12285
927.525	12228
927.631	12243
927.737	12057
927.843	12117
927.95	11954
928.056	11980
928.162	12087
928.267	12159
928.373	12623
928.479	12152
928.585	11889
928.69	11980
928.796	12041
928.901	11882
929.007	11798
929.112	11870
929.218	11874
929.323	11840
929.428	11836
929.533	11878
929.638	11661
929.743	11703
929.848	11851
929.953	11695
930.058	11592
930.163	11524
930.267	11509
930.372	11619
930.477	11486
930.581	11661
930.685	11520
930.79	11402
930.894	11402
930.998	11303
931.103	11433
931.207	11140
931.311	11102
931.415	10934
931.519	10824
931.623	10645
