Data from test_V78500241_298.txt Node
Date: Fri Mar 25 15:11:56 CST 2022
User: usil
Spectrometer: V785-0024
Trigger mode: 0
Integration Time (sec): 4.000000E-1
Scans to average: 1
Nonlinearity correction enabled: false
Boxcar width: 0
Storing dark spectrum: false
XAxis mode: Wavelengths
Number of Pixels in Spectrum: 1024
>>>>>Begin Spectral Data<<<<<
801.071	27732
801.214	27443
801.356	27416
801.499	27348
801.641	27252
801.783	27241
801.926	27245
802.068	27150
802.211	27051
802.353	27119
802.496	26857
802.638	27051
802.78	26705
802.923	26826
803.065	26830
803.208	26796
803.35	26769
803.492	26842
803.635	26902
803.777	26830
803.919	26872
804.061	27203
804.204	26982
804.346	26834
804.488	26785
804.63	26838
804.773	26811
804.915	26845
805.057	27055
805.199	26823
805.341	26815
805.483	26895
805.626	26990
805.768	26792
805.91	27028
806.052	26921
806.194	27043
806.336	27211
806.478	26918
806.62	27055
806.762	27138
806.904	27188
807.046	27447
807.188	27287
807.33	27443
807.472	27344
807.614	27359
807.756	27302
807.898	27207
808.04	27108
808.182	27112
808.324	27154
808.465	27180
808.607	27401
808.749	27583
808.891	27603
809.033	27694
809.174	27728
809.316	27580
809.458	27523
809.6	27622
809.741	27622
809.883	27675
810.025	27739
810.166	27922
810.308	27789
810.45	27789
810.591	27720
810.733	27587
810.875	27519
811.016	27321
811.158	27469
811.299	27545
811.441	27629
811.582	27603
811.724	27553
811.865	27439
812.007	27367
812.148	27492
812.29	27591
812.431	27622
812.573	27781
812.714	27880
812.855	28090
812.997	28177
813.138	28318
813.279	28139
813.421	28124
813.562	27857
813.703	27774
813.845	27751
813.986	27443
814.127	27211
814.268	27256
814.41	27207
814.551	27241
814.692	27249
814.833	26998
814.974	27192
815.115	27127
815.256	26967
815.397	27055
815.539	27066
815.68	26830
815.821	26895
815.962	27009
816.103	26925
816.244	26910
816.385	26701
816.526	26625
816.666	26522
816.807	26415
816.948	26613
817.089	26495
817.23	26503
817.371	26408
817.512	26545
817.653	26305
817.793	26282
817.934	26522
818.075	26431
818.216	26358
818.356	26404
818.497	26130
818.638	26039
818.778	26126
818.919	25955
819.06	26157
819.2	26199
819.341	26374
819.481	26351
819.622	26518
819.762	26724
819.903	26617
820.043	26636
820.184	26427
820.324	26381
820.465	26488
820.605	26465
820.746	26351
820.886	26290
821.026	26400
821.167	26362
821.307	26488
821.447	26358
821.588	26252
821.728	26111
821.868	25997
822.008	25788
822.149	25871
822.289	25784
822.429	25582
822.569	25510
822.709	25430
822.849	25343
822.99	25179
823.13	25145
823.27	25320
823.41	25118
823.55	25076
823.69	25057
823.83	25122
823.97	24970
824.11	25080
824.25	24954
824.389	24856
824.529	25019
824.669	24939
824.809	25000
824.949	25050
825.089	24981
825.228	24909
825.368	24844
825.508	24715
825.648	24722
825.787	24909
825.927	24798
826.067	24650
826.206	24719
826.346	24734
826.485	24795
826.625	24669
826.765	24753
826.904	24802
827.044	24407
827.183	24513
827.323	24445
827.462	24357
827.601	24391
827.741	24388
827.88	24452
828.02	24323
828.159	24273
828.298	24589
828.437	24494
828.577	24380
828.716	24460
828.855	24285
828.994	24220
829.134	24174
829.273	24171
829.412	24232
829.551	24095
829.69	24140
829.829	24102
829.968	24098
830.107	24136
830.246	24136
830.385	23984
830.524	23954
830.663	23904
830.802	23828
830.941	23737
831.08	23687
831.219	23710
831.357	23722
831.496	23893
831.635	23703
831.774	23653
831.913	23581
832.051	23501
832.19	23551
832.329	23543
832.467	23543
832.606	23383
832.744	23391
832.883	23440
833.022	23474
833.16	23493
833.299	23429
833.437	23448
833.576	23417
833.714	23391
833.852	23379
833.991	23516
834.129	23463
834.267	23459
834.406	23383
834.544	23528
834.682	23463
834.821	23364
834.959	23642
835.097	23303
835.235	23516
835.373	23368
835.511	23376
835.65	23269
835.788	23265
835.926	23140
836.064	23010
836.202	23174
836.34	23254
836.478	23296
836.615	23299
836.753	23273
836.891	23398
837.029	23311
837.167	23197
837.305	23178
837.443	23075
837.58	23056
837.718	23200
837.856	23212
837.993	23128
838.131	23147
838.269	22930
838.406	23010
838.544	22896
838.681	22763
838.819	22763
838.956	22584
839.094	22455
839.231	22630
839.369	22626
839.506	22991
839.643	22885
839.781	22611
839.918	22413
840.055	22584
840.193	22504
840.33	22398
840.467	22580
840.604	22557
840.742	22683
840.879	22306
841.016	22459
841.153	22272
841.29	22649
841.427	22527
841.564	22466
841.701	22478
841.838	22341
841.975	22421
842.112	22386
842.249	22394
842.385	22284
842.522	22428
842.659	22173
842.796	22120
842.933	22333
843.069	22192
843.206	22166
843.343	22329
843.479	22215
843.616	22268
843.752	22021
843.889	21960
844.025	22150
844.162	22002
844.298	22063
844.435	21861
844.571	22002
844.708	21956
844.844	22169
844.98	22242
845.117	22166
845.253	21972
845.389	21816
845.525	22006
845.661	21778
845.798	21633
845.934	21736
846.07	21663
846.206	21709
846.342	21785
846.478	21724
846.614	21610
846.75	21443
846.886	21447
847.022	21523
847.158	21492
847.294	21477
847.429	21553
847.565	21504
847.701	21656
847.837	21199
847.972	21150
848.108	21310
848.244	21252
848.379	21070
848.515	21089
848.65	21001
848.786	21047
848.921	21036
849.057	21173
849.192	20982
849.328	21131
849.463	21013
849.598	21005
849.734	20883
849.869	20861
850.004	20864
850.14	20834
850.275	20788
850.41	20785
850.545	20834
850.68	20811
850.815	20826
850.95	20769
851.085	21001
851.22	20819
851.355	20792
851.49	20746
851.625	20819
851.76	20735
851.895	20765
852.03	20667
852.165	20758
852.299	20754
852.434	20998
852.569	20937
852.703	20640
852.838	20735
852.973	20883
853.107	20891
853.242	20674
853.376	20648
853.511	20514
853.645	20556
853.78	20708
853.914	20629
854.048	20545
854.183	20511
854.317	20568
854.451	20868
854.585	20640
854.72	20408
854.854	20632
854.988	20499
855.122	20606
855.256	20575
855.39	20549
855.524	20484
855.658	20724
855.792	20651
855.926	20674
856.06	20667
856.194	20667
856.327	20667
856.461	20644
856.595	20431
856.729	20556
856.862	20686
856.996	20735
857.13	20667
857.263	20575
857.397	20556
857.53	20526
857.664	20598
857.797	20530
857.931	20667
858.064	20674
858.197	20750
858.331	20488
858.464	20473
858.597	20499
858.731	20579
858.864	20461
858.997	20655
859.13	20556
859.263	20571
859.396	20762
859.529	20545
859.662	20568
859.795	20476
859.928	20590
860.061	20606
860.194	20659
860.327	20739
860.46	20640
860.592	20800
860.725	20712
860.858	20644
860.99	20632
861.123	20556
861.256	20594
861.388	20617
861.521	21173
861.653	20492
861.786	20313
861.918	20438
862.05	20583
862.183	20575
862.315	20556
862.447	20564
862.58	20583
862.712	20343
862.844	20195
862.976	20362
863.108	20286
863.24	20792
863.372	20263
863.504	20301
863.636	20294
863.768	20347
863.9	20218
864.032	20149
864.164	20161
864.296	20195
864.428	20396
864.559	20305
864.691	20358
864.823	20298
864.954	20233
865.086	20271
865.217	20115
865.349	20088
865.48	20225
865.612	20115
865.743	20320
865.875	20126
866.006	20058
866.137	20157
866.269	20157
866.4	20180
866.531	20054
866.662	20008
866.793	20240
866.924	20153
867.055	20233
867.186	20065
867.317	20130
867.448	20027
867.579	20107
867.71	20077
867.841	20024
867.972	20214
868.103	20073
868.233	20001
868.364	20077
868.495	20050
868.625	20294
868.756	20427
868.886	20240
869.017	20313
869.147	20499
869.278	20431
869.408	20454
869.539	20374
869.669	20381
869.799	20427
869.929	20480
870.06	20404
870.19	20667
870.32	20621
870.45	20686
870.58	20678
870.71	20975
870.84	20819
870.97	20632
871.1	20701
871.23	20918
871.36	20876
871.489	20933
871.619	20952
871.749	20979
871.879	20864
872.008	20975
872.138	20929
872.267	20963
872.397	20887
872.526	20785
872.656	20781
872.785	20640
872.915	21066
873.044	20963
873.173	20937
873.303	21036
873.432	21074
873.561	20990
873.69	20906
873.819	20975
873.948	21013
874.077	20853
874.206	20982
874.335	20971
874.464	21176
874.593	21062
874.722	21237
874.851	21233
874.979	21169
875.108	21138
875.237	21226
875.365	21176
875.494	21222
875.623	21256
875.751	21176
875.88	21298
876.008	21363
876.136	21397
876.265	21572
876.393	21675
876.521	21614
876.65	21728
876.778	21500
876.906	21561
877.034	21583
877.162	21424
877.29	21473
877.418	21549
877.546	21576
877.674	21545
877.802	21606
877.93	21534
878.058	21564
878.185	21408
878.313	21496
878.441	21515
878.568	21370
878.696	21545
878.824	21698
878.951	21682
879.079	21679
879.206	21888
879.333	21781
879.461	21622
879.588	21656
879.715	21694
879.842	21892
879.97	21633
880.097	21450
880.224	21275
880.351	21473
880.478	21378
880.605	21408
880.732	21401
880.859	21625
880.986	21599
881.112	21363
881.239	21306
881.366	21108
881.493	21005
881.619	20933
881.746	20960
881.872	21096
881.999	20868
882.125	20880
882.252	21020
882.378	20948
882.505	21066
882.631	20899
882.757	20758
882.883	20731
883.01	20750
883.136	20526
883.262	20629
883.388	20541
883.514	20785
883.64	20743
883.766	20598
883.892	20575
884.018	20526
884.143	20579
884.269	20632
884.395	20408
884.52	20351
884.646	20396
884.772	20324
884.897	20347
885.023	20370
885.148	20488
885.274	20514
885.399	20393
885.524	20385
885.65	20427
885.775	20320
885.9	20290
886.025	20488
886.15	20434
886.275	20362
886.4	20187
886.525	20381
886.65	20377
886.775	20225
886.9	20431
887.025	20602
887.149	20278
887.274	20233
887.399	20126
887.523	20126
887.648	20035
887.773	20111
887.897	20187
888.021	20229
888.146	20008
888.27	20092
888.395	20267
888.519	20115
888.643	20237
888.767	20225
888.891	19986
889.015	19898
889.139	19997
889.263	19986
889.387	20081
889.511	20073
889.635	20012
889.759	19849
889.883	19936
890.006	19955
890.13	20016
890.254	19742
890.377	19913
890.501	19715
890.624	19651
890.748	19696
890.871	19521
890.995	19468
891.118	19350
891.241	19586
891.364	19457
891.488	19590
891.611	19506
891.734	19468
891.857	19578
891.98	19529
892.103	19563
892.226	19453
892.349	19476
892.471	19369
892.594	19358
892.717	19483
892.839	19400
892.962	19407
893.085	19529
893.207	19403
893.33	19358
893.452	19426
893.575	19365
893.697	19327
893.819	19571
893.941	19525
894.064	19563
894.186	19434
894.308	19324
894.43	19396
894.552	19540
894.674	19506
894.796	19316
894.918	19358
895.04	19396
895.161	19533
895.283	19426
895.405	19422
895.526	19460
895.648	19415
895.769	19605
895.891	19472
896.012	19487
896.134	19453
896.255	19438
896.376	19343
896.498	19362
896.619	19533
896.74	19597
896.861	19518
896.982	19731
897.103	19917
897.224	19712
897.345	19753
897.466	19605
897.587	19746
897.708	19685
897.828	19662
897.949	19571
898.07	19529
898.19	19624
898.311	19750
898.431	19480
898.552	19689
898.672	19693
898.792	19639
898.913	19662
899.033	19422
899.153	19521
899.273	19339
899.393	19381
899.513	19400
899.633	19327
899.753	19441
899.873	19274
899.993	19441
900.113	19350
900.232	19304
900.352	19259
900.472	19244
900.591	19168
900.711	19198
900.83	19061
900.95	19263
901.069	19304
901.189	19118
901.308	18802
901.427	18814
901.546	18738
901.665	18856
901.784	18814
901.904	18764
902.023	18555
902.141	18399
902.26	18380
902.379	18308
902.498	18296
902.617	18178
902.735	18414
902.854	18220
902.973	18083
903.091	17904
903.21	17954
903.328	17923
903.446	17824
903.565	17908
903.683	17790
903.801	17710
903.919	17668
904.038	17790
904.156	17558
904.274	17528
904.392	17585
904.51	17509
904.627	17539
904.745	17611
904.863	17547
904.981	17376
905.098	17254
905.216	17170
905.334	17318
905.451	17223
905.569	17265
905.686	17174
905.803	17162
905.921	17018
906.038	17109
906.155	17018
906.272	16976
906.389	16949
906.506	16729
906.623	16675
906.74	16717
906.857	16618
906.974	16637
907.091	16790
907.208	16869
907.324	16820
907.441	16729
907.557	16535
907.674	16493
907.79	16367
907.907	16436
908.023	16504
908.139	16485
908.256	16363
908.372	16265
908.488	16246
908.604	16242
908.72	16150
908.836	16257
908.952	16067
909.068	16196
909.184	16295
909.3	16230
909.415	16196
909.531	16162
909.647	16071
909.762	15918
909.878	15755
909.993	15941
910.108	15930
910.224	15884
910.339	15945
910.454	15778
910.57	15698
910.685	15614
910.8	15869
910.915	15831
911.03	15694
911.145	15526
911.259	15462
911.374	15492
911.489	15329
911.604	15302
911.718	15245
911.833	15226
911.947	15127
912.062	15062
912.176	15207
912.291	15237
912.405	15325
912.519	15310
912.633	15443
912.748	15317
912.862	15252
912.976	15062
913.09	14944
913.204	14982
913.318	15001
913.431	15123
913.545	15093
913.659	15135
913.772	14967
913.886	14906
914	14842
914.113	14975
914.226	14952
914.34	14899
914.453	14746
914.566	14895
914.68	14720
914.793	14830
914.906	14594
915.019	14495
915.132	14450
915.245	14480
915.358	14575
915.47	14526
915.583	14518
915.696	14541
915.809	14659
915.921	14632
916.034	14457
916.146	14495
916.259	14423
916.371	14381
916.483	14461
916.595	14358
916.708	14385
916.82	14381
916.932	14339
917.044	14328
917.156	14347
917.268	14130
917.38	14153
917.491	14153
917.603	14134
917.715	14339
917.826	14278
917.938	14126
918.049	14031
918.161	14153
918.272	14355
918.384	14248
918.495	14161
918.606	13967
918.717	14016
918.828	13986
918.939	13928
919.05	13917
919.161	13959
919.272	13734
919.383	13841
919.494	14084
919.604	14199
919.715	14016
919.826	13875
919.936	13871
920.047	14008
920.157	13955
920.267	14130
920.378	13963
920.488	13890
920.598	14065
920.708	14271
920.818	14107
920.928	13993
921.038	14233
921.148	14191
921.258	13879
921.368	13814
921.477	13662
921.587	13674
921.697	13582
921.806	13742
921.916	13559
922.025	13377
922.134	13304
922.244	13263
922.353	13434
922.462	13244
922.571	13175
922.68	13023
922.789	12970
922.898	13004
923.007	12916
923.116	13019
923.224	13012
923.333	12897
923.442	12814
923.55	12833
923.659	12783
923.767	12859
923.876	12715
923.984	12696
924.092	12776
924.201	12719
924.309	12707
924.417	12753
924.525	12658
924.633	12665
924.741	13415
924.849	12372
924.956	12570
925.064	12517
925.172	12403
925.279	12456
925.387	12418
925.494	12517
925.602	12540
925.709	12414
925.816	12319
925.924	12445
926.031	12369
926.138	12407
926.245	12388
926.352	12296
926.459	12418
926.566	12437
926.673	12300
926.779	12254
926.886	12201
926.993	12060
927.099	12022
927.206	11980
927.312	11939
927.419	12102
927.525	12030
927.631	12053
927.737	11961
927.843	11916
927.95	11813
928.056	11775
928.162	11874
928.267	11901
928.373	12506
928.479	11969
928.585	11627
928.69	11802
928.796	11889
928.901	11745
929.007	11615
929.112	11695
929.218	11737
929.323	11623
929.428	11589
929.533	11691
929.638	11516
929.743	11493
929.848	11573
929.953	11429
930.058	11372
930.163	11280
930.267	11318
930.372	11383
930.477	11197
930.581	11486
930.685	11387
930.79	11147
930.894	11128
930.998	11140
931.103	11239
931.207	10908
931.311	10774
931.415	10721
931.519	10592
931.623	10523
