Data from test_V78500241_3191.txt Node
Date: Fri Mar 25 15:32:04 CST 2022
User: usil
Spectrometer: V785-0024
Trigger mode: 0
Integration Time (sec): 4.000000E-1
Scans to average: 1
Nonlinearity correction enabled: false
Boxcar width: 0
Storing dark spectrum: false
XAxis mode: Wavelengths
Number of Pixels in Spectrum: 1024
>>>>>Begin Spectral Data<<<<<
801.071	27032
801.214	26838
801.356	26552
801.499	26480
801.641	26450
801.783	26495
801.926	26480
802.068	26511
802.211	26412
802.353	26389
802.496	26122
802.638	26005
802.78	25955
802.923	25913
803.065	25936
803.208	26012
803.35	26161
803.492	26210
803.635	26107
803.777	26062
803.919	26172
804.061	26396
804.204	26267
804.346	26084
804.488	26168
804.63	26218
804.773	25970
804.915	26259
805.057	26317
805.199	26077
805.341	26374
805.483	26164
805.626	26259
805.768	26252
805.91	26370
806.052	26271
806.194	26225
806.336	26526
806.478	26275
806.62	26206
806.762	26377
806.904	26469
807.046	26811
807.188	26826
807.33	26686
807.472	26834
807.614	26492
807.756	26739
807.898	26503
808.04	26480
808.182	26518
808.324	26560
808.465	26579
808.607	26735
808.749	26906
808.891	26948
809.033	27017
809.174	26944
809.316	26842
809.458	26933
809.6	26785
809.741	26944
809.883	27024
810.025	27074
810.166	27077
810.308	27192
810.45	27157
810.591	27081
810.733	26967
810.875	26899
811.016	26746
811.158	26731
811.299	26967
811.441	27123
811.582	26929
811.724	26925
811.865	26796
812.007	26819
812.148	26834
812.29	26811
812.431	26952
812.573	27123
812.714	27378
812.855	27355
812.997	27439
813.138	27599
813.279	27462
813.421	27363
813.562	27325
813.703	27218
813.845	27020
813.986	26758
814.127	26609
814.268	26476
814.41	26450
814.551	26473
814.692	26609
814.833	26381
814.974	26431
815.115	26450
815.256	26294
815.397	26377
815.539	26507
815.68	26320
815.821	26157
815.962	26301
816.103	26267
816.244	26199
816.385	26096
816.526	26084
816.666	25814
816.807	25708
816.948	25791
817.089	25864
817.23	25852
817.371	25704
817.512	25715
817.653	25746
817.793	25784
817.934	25712
818.075	25833
818.216	25746
818.356	25670
818.497	25635
818.638	25563
818.778	25415
818.919	25518
819.06	25449
819.2	25601
819.341	25753
819.481	25750
819.622	25940
819.762	25986
819.903	25811
820.043	25830
820.184	25890
820.324	25738
820.465	25894
820.605	25753
820.746	25822
820.886	25723
821.026	25811
821.167	25799
821.307	25761
821.447	25693
821.588	25609
821.728	25495
821.868	25339
822.008	25171
822.149	25228
822.289	25122
822.429	25038
822.569	24837
822.709	24840
822.849	24726
822.99	24684
823.13	24646
823.27	24631
823.41	24601
823.55	24357
823.69	24418
823.83	24391
823.97	24365
824.11	24323
824.25	24266
824.389	24315
824.529	24361
824.669	24369
824.809	24521
824.949	24395
825.089	24502
825.228	24239
825.368	24201
825.508	24201
825.648	24159
825.787	24095
825.927	24338
826.067	24247
826.206	24114
826.346	24289
826.485	24281
826.625	24174
826.765	24308
826.904	24289
827.044	23939
827.183	23927
827.323	23870
827.462	23889
827.601	23904
827.741	23821
827.88	23923
828.02	23840
828.159	23870
828.298	23863
828.437	23988
828.577	23927
828.716	23999
828.855	23893
828.994	23646
829.134	23615
829.273	23657
829.412	23551
829.551	23642
829.69	23638
829.829	23577
829.968	23691
830.107	23695
830.246	23570
830.385	23589
830.524	23505
830.663	23528
830.802	23334
830.941	23288
831.08	23292
831.219	23284
831.357	23212
831.496	23444
831.635	23307
831.774	23246
831.913	23018
832.051	23083
832.19	23071
832.329	22976
832.467	22987
832.606	22835
832.744	22793
832.883	22915
833.022	22862
833.16	22892
833.299	22858
833.437	22786
833.576	22991
833.714	22938
833.852	23056
833.991	22961
834.129	23010
834.267	23124
834.406	22930
834.544	22999
834.682	22984
834.821	22984
834.959	23254
835.097	22869
835.235	22991
835.373	23022
835.511	23018
835.65	22847
835.788	22873
835.926	22736
836.064	22672
836.202	22653
836.34	22862
836.478	22900
836.615	22782
836.753	22850
836.891	22778
837.029	22805
837.167	22763
837.305	22694
837.443	22656
837.58	22679
837.718	22679
837.856	22729
837.993	22691
838.131	22637
838.269	22550
838.406	22542
838.544	22417
838.681	22310
838.819	22428
838.956	22143
839.094	22044
839.231	22177
839.369	22287
839.506	22550
839.643	22246
839.781	22101
839.918	22097
840.055	21994
840.193	22025
840.33	22181
840.467	22051
840.604	22185
840.742	22238
840.879	21983
841.016	22048
841.153	21998
841.29	22158
841.427	22109
841.564	22143
841.701	22067
841.838	21945
841.975	21873
842.112	21975
842.249	21884
842.385	21911
842.522	22067
842.659	22025
842.796	21903
842.933	21865
843.069	21766
843.206	21816
843.343	21854
843.479	21876
843.616	21736
843.752	21618
843.889	21629
844.025	21781
844.162	21576
844.298	21816
844.435	21606
844.571	21542
844.708	21572
844.844	21720
844.98	21766
845.117	21622
845.253	21542
845.389	21625
845.525	21538
845.661	21431
845.798	21393
845.934	21473
846.07	21241
846.206	21351
846.342	21496
846.478	21351
846.614	21173
846.75	21013
846.886	21184
847.022	21214
847.158	21161
847.294	21093
847.429	21096
847.565	21013
847.701	21473
847.837	20815
847.972	20781
848.108	20967
848.244	20941
848.379	20796
848.515	20765
848.65	20773
848.786	20663
848.921	20731
849.057	20804
849.192	20781
849.328	20686
849.463	20716
849.598	20712
849.734	20537
849.869	20507
850.004	20507
850.14	20400
850.275	20377
850.41	20434
850.545	20408
850.68	20336
850.815	20480
850.95	20533
851.085	20613
851.22	20606
851.355	20438
851.49	20503
851.625	20473
851.76	20476
851.895	20393
852.03	20339
852.165	20362
852.299	20396
852.434	20503
852.569	20385
852.703	20389
852.838	20556
852.973	20621
853.107	20629
853.242	20305
853.376	20324
853.511	20244
853.645	20187
853.78	20454
853.914	20271
854.048	20343
854.183	20275
854.317	20377
854.451	20393
854.585	20271
854.72	20233
854.854	20347
854.988	20069
855.122	20275
855.256	20180
855.39	20366
855.524	20339
855.658	20419
855.792	20309
855.926	20298
856.06	20183
856.194	20396
856.327	20309
856.461	20267
856.595	20267
856.729	20267
856.862	20408
856.996	20431
857.13	20309
857.263	20332
857.397	20412
857.53	20191
857.664	20355
857.797	20438
857.931	20362
858.064	20256
858.197	20423
858.331	20225
858.464	20172
858.597	20153
858.731	20408
858.864	20183
858.997	20271
859.13	20305
859.263	20149
859.396	20263
859.529	20271
859.662	20237
859.795	20138
859.928	20210
860.061	20499
860.194	20518
860.327	20396
860.46	20389
860.592	20275
860.725	20343
860.858	20423
860.99	20256
861.123	20229
861.256	20210
861.388	20191
861.521	20979
861.653	20248
861.786	20073
861.918	20138
862.05	20191
862.183	20180
862.315	20267
862.447	20164
862.58	20195
862.712	19989
862.844	19959
862.976	20157
863.108	20062
863.24	20427
863.372	19879
863.504	19951
863.636	19970
863.768	19993
863.9	20008
864.032	19940
864.164	19989
864.296	19974
864.428	20081
864.559	20054
864.691	20107
864.823	20073
864.954	20058
865.086	19917
865.217	19868
865.349	19894
865.48	19932
865.612	19955
865.743	20050
865.875	20062
866.006	19967
866.137	19860
866.269	19898
866.4	19799
866.531	19769
866.662	19936
866.793	19868
866.924	19890
867.055	19974
867.186	19898
867.317	19917
867.448	19887
867.579	19830
867.71	19761
867.841	19799
867.972	19902
868.103	19822
868.233	19906
868.364	19883
868.495	20020
868.625	20081
868.756	20202
868.886	20008
869.017	20111
869.147	20233
869.278	20252
869.408	20183
869.539	20069
869.669	20256
869.799	20180
869.929	20286
870.06	20206
870.19	20450
870.32	20389
870.45	20476
870.58	20522
870.71	20579
870.84	20537
870.97	20533
871.1	20571
871.23	20716
871.36	20613
871.489	20686
871.619	20891
871.749	20659
871.879	20796
872.008	20834
872.138	20758
872.267	20815
872.397	20617
872.526	20530
872.656	20507
872.785	20659
872.915	20792
873.044	20895
873.173	20720
873.303	20769
873.432	20781
873.561	20705
873.69	20682
873.819	20727
873.948	20792
874.077	20762
874.206	20739
874.335	20921
874.464	20838
874.593	20933
874.722	20982
874.851	21116
874.979	21070
875.108	21009
875.237	21009
875.365	20960
875.494	20906
875.623	21089
875.751	20941
875.88	21119
876.008	21157
876.136	21279
876.265	21302
876.393	21447
876.521	21466
876.65	21561
876.778	21458
876.906	21386
877.034	21302
877.162	21325
877.29	21435
877.418	21283
877.546	21492
877.674	21332
877.802	21310
877.93	21230
878.058	21367
878.185	21165
878.313	21310
878.441	21344
878.568	21192
878.696	21218
878.824	21454
878.951	21382
879.079	21542
879.206	21682
879.333	21534
879.461	21401
879.588	21523
879.715	21492
879.842	21526
879.97	21428
880.097	21081
880.224	21135
880.351	21211
880.478	21218
880.605	21218
880.732	21184
880.859	21477
880.986	21142
881.112	21340
881.239	21104
881.366	20921
881.493	20925
881.619	20861
881.746	20895
881.872	20807
881.999	20743
882.125	20807
882.252	20754
882.378	20720
882.505	20785
882.631	20587
882.757	20488
882.883	20537
883.01	20514
883.136	20526
883.262	20278
883.388	20438
883.514	20552
883.64	20564
883.766	20355
883.892	20332
884.018	20271
884.143	20476
884.269	20457
884.395	20278
884.52	20126
884.646	20168
884.772	20138
884.897	20035
885.023	20180
885.148	20142
885.274	20301
885.399	20298
885.524	20199
885.65	20024
885.775	20172
885.9	20069
886.025	20305
886.15	20271
886.275	20046
886.4	20176
886.525	20084
886.65	20054
886.775	20103
886.9	20237
887.025	20252
887.149	20092
887.274	19944
887.399	19947
887.523	19883
887.648	19814
887.773	19830
887.897	20020
888.021	19932
888.146	19845
888.27	20001
888.395	20096
888.519	19932
888.643	19849
888.767	19883
888.891	19868
889.015	19776
889.139	19742
889.263	19693
889.387	19906
889.511	19997
889.635	19822
889.759	19738
889.883	19715
890.006	19803
890.13	19864
890.254	19670
890.377	19628
890.501	19472
890.624	19346
890.748	19510
890.871	19438
890.995	19285
891.118	19240
891.241	19316
891.364	19369
891.488	19518
891.611	19373
891.734	19228
891.857	19449
891.98	19339
892.103	19449
892.226	19251
892.349	19365
892.471	19141
892.594	19255
892.717	19266
892.839	19206
892.962	19285
893.085	19327
893.207	19148
893.33	19164
893.452	19160
893.575	19244
893.697	19202
893.819	19289
893.941	19400
894.064	19415
894.186	19259
894.308	19206
894.43	19407
894.552	19411
894.674	19358
894.796	19156
894.918	19289
895.04	19213
895.161	19369
895.283	19251
895.405	19221
895.526	19209
895.648	19164
895.769	19335
895.891	19263
896.012	19354
896.134	19400
896.255	19274
896.376	19297
896.498	19285
896.619	19301
896.74	19293
896.861	19343
896.982	19559
897.103	19670
897.224	19491
897.345	19495
897.466	19518
897.587	19438
897.708	19616
897.828	19529
897.949	19441
898.07	19308
898.19	19506
898.311	19567
898.431	19468
898.552	19628
898.672	19571
898.792	19578
898.913	19518
899.033	19441
899.153	19354
899.273	19285
899.393	19354
899.513	19247
899.633	19266
899.753	19244
899.873	19179
899.993	19190
900.113	19263
900.232	19316
900.352	19099
900.472	19118
900.591	18943
900.711	19000
900.83	19053
900.95	19110
901.069	19175
901.189	18878
901.308	18673
901.427	18745
901.546	18620
901.665	18551
901.784	18684
901.904	18616
902.023	18589
902.141	18311
902.26	18133
902.379	18254
902.498	18152
902.617	18174
902.735	18133
902.854	18209
902.973	18068
903.091	17889
903.21	17920
903.328	17794
903.446	17786
903.565	17680
903.683	17703
903.801	17493
903.919	17547
904.038	17573
904.156	17440
904.274	17577
904.392	17395
904.51	17440
904.627	17395
904.745	17406
904.863	17543
904.981	17189
905.098	17064
905.216	17090
905.334	17105
905.451	17117
905.569	17181
905.686	17121
905.803	17136
905.921	16934
906.038	17052
906.155	16896
906.272	16797
906.389	16771
906.506	16527
906.623	16656
906.74	16637
906.857	16592
906.974	16538
907.091	16725
907.208	16713
907.324	16710
907.441	16580
907.557	16409
907.674	16356
907.79	16371
907.907	16432
908.023	16371
908.139	16325
908.256	16341
908.372	16280
908.488	16166
908.604	16124
908.72	16029
908.836	16105
908.952	16147
909.068	16128
909.184	16276
909.3	16109
909.415	16181
909.531	16150
909.647	15808
909.762	15831
909.878	15785
909.993	15850
910.108	15827
910.224	15766
910.339	15873
910.454	15762
910.57	15637
910.685	15443
910.8	15854
910.915	15724
911.03	15572
911.145	15439
911.259	15523
911.374	15469
911.489	15374
911.604	15294
911.718	15138
911.833	15112
911.947	15119
912.062	15032
912.176	15192
912.291	15199
912.405	15203
912.519	15397
912.633	15325
912.748	15245
912.862	15169
912.976	14982
913.09	14883
913.204	15112
913.318	15108
913.431	15074
913.545	15165
913.659	15055
913.772	14944
913.886	14777
914	14777
914.113	14796
914.226	14902
914.34	14830
914.453	14674
914.566	14819
914.68	14682
914.793	14629
914.906	14545
915.019	14434
915.132	14450
915.245	14450
915.358	14473
915.47	14465
915.583	14396
915.696	14370
915.809	14503
915.921	14648
916.034	14275
916.146	14431
916.259	14385
916.371	14396
916.483	14362
916.595	14309
916.708	14298
916.82	14351
916.932	14115
917.044	14161
917.156	14256
917.268	14138
917.38	14126
917.491	14058
917.603	14062
917.715	14092
917.826	14153
917.938	14046
918.049	13944
918.161	13993
918.272	14187
918.384	14149
918.495	14008
918.606	14043
918.717	13849
918.828	13967
918.939	13921
919.05	13860
919.161	13818
919.272	13628
919.383	13712
919.494	13955
919.604	14084
919.715	13830
919.826	13761
919.936	13753
920.047	13917
920.157	13932
920.267	13986
920.378	13803
920.488	13841
920.598	14046
920.708	14145
920.818	14054
920.928	13951
921.038	14168
921.148	14096
921.258	13776
921.368	13799
921.477	13674
921.587	13502
921.697	13419
921.806	13693
921.916	13510
922.025	13301
922.134	13285
922.244	13179
922.353	13343
922.462	13190
922.571	13149
922.68	12951
922.789	12947
922.898	12958
923.007	12856
923.116	12905
923.224	12897
923.333	12916
923.442	12772
923.55	12749
923.659	12757
923.767	12829
923.876	12669
923.984	12894
924.092	12658
924.201	12722
924.309	12642
924.417	12597
924.525	12616
924.633	12597
924.741	13571
924.849	12471
924.956	12540
925.064	12414
925.172	12346
925.279	12369
925.387	12429
925.494	12384
925.602	12426
925.709	12483
925.816	12281
925.924	12338
926.031	12376
926.138	12376
926.245	12384
926.352	12171
926.459	12361
926.566	12407
926.673	12251
926.779	12159
926.886	12129
926.993	11954
927.099	12007
927.206	11999
927.312	11931
927.419	11935
927.525	11961
927.631	11927
927.737	11821
927.843	11836
927.95	11699
928.056	11783
928.162	11783
928.267	11813
928.373	12433
928.479	11737
928.585	11543
928.69	11737
928.796	11767
928.901	11608
929.007	11516
929.112	11665
929.218	11592
929.323	11547
929.428	11562
929.533	11741
929.638	11372
929.743	11535
929.848	11551
929.953	11467
930.058	11356
930.163	11204
930.267	11220
930.372	11277
930.477	11242
930.581	11414
930.685	11242
930.79	11132
930.894	11132
930.998	11056
931.103	11151
931.207	10911
931.311	10786
931.415	10767
931.519	10535
931.623	10485
