Data from test_V78500241_1523.txt Node
Date: Fri Mar 25 15:20:27 CST 2022
User: usil
Spectrometer: V785-0024
Trigger mode: 0
Integration Time (sec): 4.000000E-1
Scans to average: 1
Nonlinearity correction enabled: false
Boxcar width: 0
Storing dark spectrum: false
XAxis mode: Wavelengths
Number of Pixels in Spectrum: 1024
>>>>>Begin Spectral Data<<<<<
801.071	28082
801.214	28147
801.356	27766
801.499	27713
801.641	27694
801.783	27701
801.926	27774
802.068	27884
802.211	27591
802.353	27561
802.496	27378
802.638	27317
802.78	27382
802.923	27359
803.065	27291
803.208	27264
803.35	27214
803.492	27530
803.635	27587
803.777	27427
803.919	27637
804.061	27937
804.204	27473
804.346	27591
804.488	27378
804.63	27515
804.773	27511
804.915	27610
805.057	27713
805.199	27572
805.341	27720
805.483	27838
805.626	27728
805.768	27622
805.91	27701
806.052	27694
806.194	27667
806.336	27934
806.478	27739
806.62	27671
806.762	27838
806.904	27994
807.046	28150
807.188	28154
807.33	28162
807.472	28204
807.614	27926
807.756	28006
807.898	27964
808.04	27918
808.182	28025
808.324	28120
808.465	28101
808.607	28276
808.749	28405
808.891	28363
809.033	28573
809.174	28443
809.316	28329
809.458	28310
809.6	28428
809.741	28443
809.883	28584
810.025	28767
810.166	28702
810.308	28675
810.45	28656
810.591	28569
810.733	28291
810.875	28409
811.016	28280
811.158	28284
811.299	28405
811.441	28554
811.582	28527
811.724	28291
811.865	28287
812.007	28356
812.148	28356
812.29	28565
812.431	28459
812.573	28641
812.714	28786
812.855	28976
812.997	28900
813.138	29067
813.279	28995
813.421	29006
813.562	28828
813.703	28729
813.845	28493
813.986	28322
814.127	28177
814.268	28188
814.41	28242
814.551	28090
814.692	28158
814.833	27914
814.974	28150
815.115	28158
815.256	27975
815.397	27876
815.539	27854
815.68	27979
815.821	27797
815.962	27838
816.103	27793
816.244	27793
816.385	27698
816.526	27523
816.666	27618
816.807	27427
816.948	27317
817.089	27473
817.23	27462
817.371	27272
817.512	27317
817.653	27412
817.793	27367
817.934	27416
818.075	27268
818.216	27279
818.356	27169
818.497	27260
818.638	27207
818.778	27146
818.919	26998
819.06	27165
819.2	27408
819.341	27218
819.481	27260
819.622	27504
819.762	27656
819.903	27625
820.043	27629
820.184	27408
820.324	27469
820.465	27648
820.605	27481
820.746	27485
820.886	27294
821.026	27515
821.167	27370
821.307	27572
821.447	27351
821.588	27401
821.728	27249
821.868	26971
822.008	26838
822.149	26750
822.289	26693
822.429	26651
822.569	26461
822.709	26415
822.849	26317
822.99	26385
823.13	26256
823.27	26400
823.41	26271
823.55	25936
823.69	26221
823.83	26267
823.97	26100
824.11	25871
824.25	25875
824.389	25883
824.529	26111
824.669	26035
824.809	26016
824.949	26050
825.089	26077
825.228	26088
825.368	25693
825.508	25757
825.648	25879
825.787	25841
825.927	25887
826.067	25803
826.206	25841
826.346	25898
826.485	25963
826.625	25833
826.765	25947
826.904	25860
827.044	25662
827.183	25742
827.323	25597
827.462	25765
827.601	25495
827.741	25502
827.88	25601
828.02	25430
828.159	25472
828.298	25487
828.437	25662
828.577	25521
828.716	25704
828.855	25430
828.994	25285
829.134	25110
829.273	25228
829.412	25206
829.551	25202
829.69	25187
829.829	25194
829.968	25381
830.107	25278
830.246	25209
830.385	25255
830.524	25118
830.663	25069
830.802	24970
830.941	24806
831.08	24814
831.219	24989
831.357	24916
831.496	25160
831.635	24977
831.774	24863
831.913	24821
832.051	24722
832.19	24574
832.329	24597
832.467	24475
832.606	24551
832.744	24563
832.883	24555
833.022	24521
833.16	24574
833.299	24585
833.437	24528
833.576	24593
833.714	24528
833.852	24585
833.991	24639
834.129	24635
834.267	24791
834.406	24521
834.544	24578
834.682	24631
834.821	24479
834.959	24684
835.097	24517
835.235	24642
835.373	24631
835.511	24532
835.65	24479
835.788	24391
835.926	24205
836.064	24182
836.202	24407
836.34	24422
836.478	24604
836.615	24350
836.753	24334
836.891	24414
837.029	24410
837.167	24350
837.305	24338
837.443	24266
837.58	24262
837.718	24372
837.856	24213
837.993	24266
838.131	24296
838.269	24098
838.406	24273
838.544	24076
838.681	23866
838.819	23878
838.956	23737
839.094	23790
839.231	23745
839.369	23958
839.506	24098
839.643	24007
839.781	23699
839.918	23627
840.055	23672
840.193	23668
840.33	23745
840.467	23535
840.604	23726
840.742	23767
840.879	23512
841.016	23509
841.153	23520
841.29	23752
841.427	23604
841.564	23596
841.701	23490
841.838	23547
841.975	23512
842.112	23596
842.249	23463
842.385	23414
842.522	23520
842.659	23360
842.796	23467
842.933	23349
843.069	23395
843.206	23265
843.343	23334
843.479	23379
843.616	23307
843.752	23071
843.889	23109
844.025	23185
844.162	23029
844.298	23223
844.435	23185
844.571	23136
844.708	23299
844.844	23223
844.98	23204
845.117	23277
845.253	23025
845.389	23079
845.525	23010
845.661	23003
845.798	22946
845.934	23041
846.07	22793
846.206	22930
846.342	22923
846.478	22778
846.614	22622
846.75	22493
846.886	22577
847.022	22538
847.158	22702
847.294	22519
847.429	22634
847.565	22565
847.701	22729
847.837	22405
847.972	22306
848.108	22424
848.244	22470
848.379	22234
848.515	22238
848.65	22070
848.786	22120
848.921	22223
849.057	22284
849.192	22234
849.328	22131
849.463	22299
849.598	22101
849.734	22063
849.869	21987
850.004	22044
850.14	21941
850.275	22166
850.41	21972
850.545	21884
850.68	21869
850.815	21972
850.95	21880
851.085	22131
851.22	21991
851.355	21850
851.49	22044
851.625	22048
851.76	21739
851.895	21899
852.03	21903
852.165	21968
852.299	21926
852.434	22032
852.569	21972
852.703	21956
852.838	22055
852.973	21911
853.107	21994
853.242	21918
853.376	21876
853.511	21610
853.645	21766
853.78	21819
853.914	21846
854.048	21679
854.183	21709
854.317	21755
854.451	22101
854.585	21766
854.72	21819
854.854	21895
854.988	21549
855.122	21857
855.256	21743
855.39	21770
855.524	21846
855.658	21789
855.792	21766
855.926	21835
856.06	21766
856.194	21899
856.327	21625
856.461	21698
856.595	21720
856.729	21739
856.862	21911
856.996	21918
857.13	21854
857.263	21964
857.397	21922
857.53	21819
857.664	21816
857.797	21854
857.931	21884
858.064	21827
858.197	21846
858.331	21751
858.464	21679
858.597	21755
858.731	21720
858.864	21762
858.997	21656
859.13	21686
859.263	21739
859.396	21819
859.529	21724
859.662	21770
859.795	21614
859.928	21759
860.061	21994
860.194	22006
860.327	21808
860.46	21804
860.592	21895
860.725	21968
860.858	21911
860.99	21751
861.123	21717
861.256	21766
861.388	21728
861.521	22538
861.653	21633
861.786	21469
861.918	21637
862.05	21671
862.183	21838
862.315	21759
862.447	21823
862.58	21724
862.712	21504
862.844	21519
862.976	21603
863.108	21538
863.24	21823
863.372	21386
863.504	21523
863.636	21408
863.768	21511
863.9	21511
864.032	21454
864.164	21431
864.296	21534
864.428	21595
864.559	21698
864.691	21488
864.823	21450
864.954	21477
865.086	21389
865.217	21424
865.349	21367
865.48	21545
865.612	21382
865.743	21469
865.875	21367
866.006	21416
866.137	21329
866.269	21272
866.4	21325
866.531	21405
866.662	21298
866.793	21313
866.924	21367
867.055	21412
867.186	21272
867.317	21351
867.448	21241
867.579	21260
867.71	21268
867.841	21157
867.972	21344
868.103	21355
868.233	21374
868.364	21291
868.495	21389
868.625	21401
868.756	21660
868.886	21431
869.017	21526
869.147	21549
869.278	21629
869.408	21572
869.539	21450
869.669	21675
869.799	21580
869.929	21762
870.06	21633
870.19	21759
870.32	21743
870.45	21838
870.58	21934
870.71	22063
870.84	22067
870.97	21846
871.1	21979
871.23	22185
871.36	22074
871.489	22101
871.619	21956
871.749	22116
871.879	22234
872.008	22268
872.138	22021
872.267	22188
872.397	22143
872.526	21892
872.656	22013
872.785	21861
872.915	22120
873.044	22238
873.173	22090
873.303	22265
873.432	22234
873.561	22177
873.69	22185
873.819	22166
873.948	22246
874.077	22124
874.206	22139
874.335	22249
874.464	22303
874.593	22246
874.722	22440
874.851	22371
874.979	22394
875.108	22386
875.237	22421
875.365	22230
875.494	22257
875.623	22474
875.751	22367
875.88	22344
876.008	22462
876.136	22542
876.265	22733
876.393	22923
876.521	22774
876.65	22790
876.778	22687
876.906	22679
877.034	22862
877.162	22672
877.29	22580
877.418	22740
877.546	22702
877.674	22774
877.802	22736
877.93	22706
878.058	22637
878.185	22497
878.313	22687
878.441	22664
878.568	22573
878.696	22725
878.824	22816
878.951	22725
879.079	23003
879.206	23025
879.333	22889
879.461	22588
879.588	22824
879.715	22869
879.842	22923
879.97	22778
880.097	22656
880.224	22531
880.351	22489
880.478	22630
880.605	22390
880.732	22523
880.859	22866
880.986	22485
881.112	22523
881.239	22325
881.366	22371
881.493	22185
881.619	22147
881.746	22063
881.872	22154
881.999	22006
882.125	21983
882.252	22082
882.378	22143
882.505	22192
882.631	21953
882.757	21823
882.883	21945
883.01	21789
883.136	21686
883.262	21724
883.388	21530
883.514	21755
883.64	21827
883.766	21641
883.892	21507
884.018	21637
884.143	21766
884.269	21854
884.395	21447
884.52	21481
884.646	21511
884.772	21447
884.897	21370
885.023	21412
885.148	21561
885.274	21534
885.399	21542
885.524	21382
885.65	21389
885.775	21386
885.9	21397
886.025	21500
886.15	21542
886.275	21302
886.4	21405
886.525	21332
886.65	21386
886.775	21226
886.9	21492
887.025	21656
887.149	21420
887.274	21317
887.399	21233
887.523	21249
887.648	21211
887.773	21108
887.897	21329
888.021	21260
888.146	21176
888.27	21211
888.395	21272
888.519	21116
888.643	21112
888.767	21252
888.891	21264
889.015	21081
889.139	21116
889.263	20921
889.387	21116
889.511	21104
889.635	21127
889.759	21017
889.883	20967
890.006	21024
890.13	21058
890.254	20826
890.377	20819
890.501	20739
890.624	20598
890.748	20876
890.871	20636
890.995	20640
891.118	20503
891.241	20514
891.364	20552
891.488	20632
891.611	20632
891.734	20636
891.857	20651
891.98	20659
892.103	20720
892.226	20598
892.349	20465
892.471	20336
892.594	20511
892.717	20457
892.839	20434
892.962	20511
893.085	20526
893.207	20412
893.33	20332
893.452	20419
893.575	20560
893.697	20507
893.819	20511
893.941	20667
894.064	20568
894.186	20294
894.308	20381
894.43	20564
894.552	20598
894.674	20511
894.796	20309
894.918	20423
895.04	20522
895.161	20568
895.283	20396
895.405	20446
895.526	20442
895.648	20514
895.769	20400
895.891	20473
896.012	20442
896.134	20541
896.255	20427
896.376	20503
896.498	20393
896.619	20469
896.74	20377
896.861	20415
896.982	20670
897.103	20819
897.224	20701
897.345	20629
897.466	20541
897.587	20648
897.708	20804
897.828	20758
897.949	20575
898.07	20514
898.19	20602
898.311	20804
898.431	20522
898.552	20735
898.672	20689
898.792	20651
898.913	20636
899.033	20480
899.153	20473
899.273	20381
899.393	20408
899.513	20324
899.633	20503
899.753	20530
899.873	20324
899.993	20499
900.113	20347
900.232	20393
900.352	20290
900.472	20180
900.591	20161
900.711	20336
900.83	20100
900.95	20313
901.069	20206
901.189	20130
901.308	19849
901.427	19731
901.546	19681
901.665	19715
901.784	19750
901.904	19620
902.023	19548
902.141	19381
902.26	19221
902.379	19369
902.498	19350
902.617	19217
902.735	19263
902.854	19335
902.973	19206
903.091	19042
903.21	18913
903.328	18924
903.446	18760
903.565	18757
903.683	18673
903.801	18612
903.919	18654
904.038	18711
904.156	18418
904.274	18525
904.392	18437
904.51	18479
904.627	18460
904.745	18559
904.863	18517
904.981	18285
905.098	18243
905.216	18247
905.334	18068
905.451	18281
905.569	18060
905.686	18129
905.803	18232
905.921	17859
906.038	18136
906.155	17977
906.272	17756
906.389	17855
906.506	17646
906.623	17668
906.74	17600
906.857	17676
906.974	17619
907.091	17657
907.208	17866
907.324	17691
907.441	17611
907.557	17421
907.674	17471
907.79	17231
907.907	17353
908.023	17425
908.139	17474
908.256	17299
908.372	17326
908.488	17250
908.604	17075
908.72	17056
908.836	17132
908.952	17098
909.068	17193
909.184	17254
909.3	17045
909.415	17174
909.531	17185
909.647	16812
909.762	16767
909.878	16847
909.993	16809
910.108	16831
910.224	16771
910.339	16797
910.454	16649
910.57	16622
910.685	16622
910.8	16866
910.915	16725
911.03	16611
911.145	16379
911.259	16432
911.374	16375
911.489	16379
911.604	16139
911.718	16188
911.833	16162
911.947	15975
912.062	16021
912.176	16051
912.291	16101
912.405	16078
912.519	16306
912.633	16424
912.748	16143
912.862	16067
912.976	16059
913.09	15934
913.204	15915
913.318	16055
913.431	16078
913.545	16036
913.659	16135
913.772	15865
913.886	15816
914	15698
914.113	15823
914.226	15937
914.34	15892
914.453	15576
914.566	15797
914.68	15629
914.793	15652
914.906	15424
915.019	15348
915.132	15332
915.245	15298
915.358	15378
915.47	15439
915.583	15344
915.696	15412
915.809	15454
915.921	15496
916.034	15283
916.146	15340
916.259	15104
916.371	15332
916.483	15287
916.595	15237
916.708	15256
916.82	15199
916.932	15112
917.044	15237
917.156	15062
917.268	15108
917.38	14979
917.491	15074
917.603	15017
917.715	15058
917.826	15055
917.938	14979
918.049	14826
918.161	14902
918.272	14982
918.384	15017
918.495	14971
918.606	14708
918.717	14686
918.828	14735
918.939	14872
919.05	14667
919.161	14807
919.272	14636
919.383	14537
919.494	14800
919.604	14967
919.715	14804
919.826	14640
919.936	14712
920.047	14819
920.157	14750
920.267	14929
920.378	14693
920.488	14632
920.598	14887
920.708	15036
920.818	14861
920.928	14716
921.038	15013
921.148	14982
921.258	14674
921.368	14602
921.477	14499
921.587	14442
921.697	14347
921.806	14404
921.916	14317
922.025	14168
922.134	14172
922.244	14001
922.353	14069
922.462	13982
922.571	13811
922.68	13761
922.789	13704
922.898	13651
923.007	13750
923.116	13708
923.224	13715
923.333	13666
923.442	13521
923.55	13548
923.659	13521
923.767	13689
923.876	13548
923.984	13548
924.092	13464
924.201	13563
924.309	13415
924.417	13491
924.525	13350
924.633	13324
924.741	14126
924.849	13187
924.956	13274
925.064	13122
925.172	13050
925.279	13114
925.387	13076
925.494	13179
925.602	13255
925.709	13145
925.816	13050
925.924	13145
926.031	13164
926.138	13110
926.245	13091
926.352	12943
926.459	13069
926.566	13099
926.673	13042
926.779	12894
926.886	12779
926.993	12814
927.099	12829
927.206	12608
927.312	12635
927.419	12806
927.525	12684
927.631	12696
927.737	12608
927.843	12486
927.95	12395
928.056	12494
928.162	12513
928.267	12563
928.373	13228
928.479	12563
928.585	12365
928.69	12494
928.796	12593
928.901	12361
929.007	12327
929.112	12365
929.218	12262
929.323	12235
929.428	12247
929.533	12342
929.638	12155
929.743	12171
929.848	12239
929.953	12159
930.058	11980
930.163	11870
930.267	11882
930.372	12106
930.477	11840
930.581	12155
930.685	11916
930.79	11783
930.894	11745
930.998	11805
931.103	11973
931.207	11554
931.311	11433
931.415	11395
931.519	11098
931.623	11212
