Data from test_V78500241_647.txt Node
Date: Fri Mar 25 15:14:21 CST 2022
User: usil
Spectrometer: V785-0024
Trigger mode: 0
Integration Time (sec): 4.000000E-1
Scans to average: 1
Nonlinearity correction enabled: false
Boxcar width: 0
Storing dark spectrum: false
XAxis mode: Wavelengths
Number of Pixels in Spectrum: 1024
>>>>>Begin Spectral Data<<<<<
801.071	27507
801.214	27523
801.356	27199
801.499	27199
801.641	27055
801.783	27104
801.926	27184
802.068	26986
802.211	26960
802.353	26819
802.496	26925
802.638	26857
802.78	26777
802.923	26609
803.065	26568
803.208	26590
803.35	26773
803.492	26712
803.635	26849
803.777	26910
803.919	26883
804.061	27154
804.204	26872
804.346	26807
804.488	26868
804.63	26796
804.773	26621
804.915	26982
805.057	27005
805.199	26804
805.341	26925
805.483	27005
805.626	26971
805.768	26948
805.91	26971
806.052	27119
806.194	26857
806.336	27077
806.478	26906
806.62	27127
806.762	27184
806.904	27298
807.046	27355
807.188	27397
807.33	27344
807.472	27488
807.614	27359
807.756	27469
807.898	27218
808.04	27279
808.182	27359
808.324	27306
808.465	27310
808.607	27313
808.749	27545
808.891	27743
809.033	27854
809.174	27728
809.316	27625
809.458	27713
809.6	27542
809.741	27743
809.883	27766
810.025	27934
810.166	27922
810.308	27880
810.45	27922
810.591	27968
810.733	27759
810.875	27504
811.016	27511
811.158	27447
811.299	27561
811.441	27842
811.582	27667
811.724	27660
811.865	27492
812.007	27519
812.148	27720
812.29	27587
812.431	27751
812.573	27930
812.714	28135
812.855	28109
812.997	28337
813.138	28424
813.279	28337
813.421	28200
813.562	28200
813.703	28010
813.845	27785
813.986	27580
814.127	27412
814.268	27374
814.41	27344
814.551	27222
814.692	27412
814.833	27260
814.974	27252
815.115	27336
815.256	27195
815.397	27218
815.539	27184
815.68	27260
815.821	27055
815.962	27161
816.103	26975
816.244	26948
816.385	26944
816.526	26853
816.666	26758
816.807	26556
816.948	26659
817.089	26804
817.23	26800
817.371	26636
817.512	26495
817.653	26495
817.793	26507
817.934	26503
818.075	26530
818.216	26587
818.356	26609
818.497	26560
818.638	26396
818.778	26305
818.919	26328
819.06	26404
819.2	26522
819.341	26549
819.481	26587
819.622	26800
819.762	26830
819.903	26819
820.043	26792
820.184	26754
820.324	26701
820.465	26693
820.605	26697
820.746	26667
820.886	26495
821.026	26880
821.167	26590
821.307	26674
821.447	26670
821.588	26541
821.728	26400
821.868	26267
822.008	26031
822.149	26031
822.289	25951
822.429	25731
822.569	25731
822.709	25727
822.849	25529
822.99	25518
823.13	25540
823.27	25495
823.41	25514
823.55	25289
823.69	25441
823.83	25388
823.97	25297
824.11	25137
824.25	25107
824.389	25190
824.529	25221
824.669	25251
824.809	25362
824.949	25236
825.089	25293
825.228	25266
825.368	25012
825.508	25145
825.648	25091
825.787	25194
825.927	25289
826.067	25031
826.206	25103
826.346	25042
826.485	25137
826.625	24977
826.765	25175
826.904	25103
827.044	24825
827.183	24783
827.323	24707
827.462	24837
827.601	24844
827.741	24810
827.88	24856
828.02	24631
828.159	24848
828.298	24768
828.437	24878
828.577	24730
828.716	24916
828.855	24798
828.994	24513
829.134	24498
829.273	24544
829.412	24369
829.551	24471
829.69	24502
829.829	24445
829.968	24620
830.107	24707
830.246	24563
830.385	24410
830.524	24273
830.663	24342
830.802	24133
830.941	24041
831.08	24106
831.219	24266
831.357	24125
831.496	24254
831.635	24022
831.774	24030
831.913	24095
832.051	23923
832.19	23764
832.329	23980
832.467	23843
832.606	23745
832.744	23923
832.883	23786
833.022	23790
833.16	23821
833.299	23859
833.437	23882
833.576	23874
833.714	23832
833.852	23927
833.991	23809
834.129	23939
834.267	23931
834.406	23779
834.544	23920
834.682	23863
834.821	23878
834.959	23961
835.097	23775
835.235	23942
835.373	23809
835.511	23809
835.65	23908
835.788	23646
835.926	23558
836.064	23467
836.202	23657
836.34	23710
836.478	23707
836.615	23775
836.753	23615
836.891	23805
837.029	23535
837.167	23630
837.305	23551
837.443	23577
837.58	23611
837.718	23646
837.856	23585
837.993	23570
838.131	23573
838.269	23387
838.406	23368
838.544	23349
838.681	23174
838.819	23064
838.956	23071
839.094	22953
839.231	23052
839.369	23090
839.506	23353
839.643	23280
839.781	22934
839.918	22923
840.055	22987
840.193	22991
840.33	23003
840.467	22889
840.604	22957
840.742	23174
840.879	22911
841.016	22790
841.153	22774
841.29	22995
841.427	23029
841.564	23010
841.701	22843
841.838	22850
841.975	22767
842.112	22831
842.249	22801
842.385	22634
842.522	22923
842.659	22759
842.796	22565
842.933	22603
843.069	22679
843.206	22611
843.343	22744
843.479	22805
843.616	22634
843.752	22474
843.889	22447
844.025	22577
844.162	22337
844.298	22512
844.435	22508
844.571	22402
844.708	22538
844.844	22561
844.98	22592
845.117	22618
845.253	22409
845.389	22367
845.525	22344
845.661	22386
845.798	22318
845.934	22196
846.07	22291
846.206	22268
846.342	22230
846.478	22196
846.614	22059
846.75	21915
846.886	22010
847.022	22124
847.158	21987
847.294	21987
847.429	22032
847.565	21781
847.701	22135
847.837	21511
847.972	21736
848.108	21842
848.244	21709
848.379	21671
848.515	21660
848.65	21466
848.786	21538
848.921	21500
849.057	21641
849.192	21625
849.328	21671
849.463	21473
849.598	21466
849.734	21370
849.869	21332
850.004	21272
850.14	21317
850.275	21302
850.41	21085
850.545	21214
850.68	21291
850.815	21374
850.95	21291
851.085	21439
851.22	21317
851.355	21355
851.49	21218
851.625	21241
851.76	21279
851.895	21142
852.03	21264
852.165	21321
852.299	21291
852.434	21317
852.569	21317
852.703	21355
852.838	21367
852.973	21374
853.107	21462
853.242	21287
853.376	21135
853.511	21009
853.645	21127
853.78	21272
853.914	21108
854.048	21131
854.183	21047
854.317	21188
854.451	21428
854.585	21066
854.72	21070
854.854	21188
854.988	20982
855.122	21188
855.256	21039
855.39	21055
855.524	21310
855.658	21207
855.792	21199
855.926	21077
856.06	21138
856.194	21108
856.327	21081
856.461	21005
856.595	21157
856.729	21165
856.862	21249
856.996	21123
857.13	21161
857.263	21184
857.397	21211
857.53	21207
857.664	21096
857.797	21211
857.931	21310
858.064	21093
858.197	21245
858.331	21108
858.464	21020
858.597	21001
858.731	21036
858.864	21154
858.997	21135
859.13	21157
859.263	21199
859.396	21199
859.529	21131
859.662	21017
859.795	21085
859.928	21230
860.061	21157
860.194	21351
860.327	21161
860.46	21142
860.592	21241
860.725	21275
860.858	21279
860.99	21062
861.123	21085
861.256	20979
861.388	21074
861.521	21873
861.653	20963
861.786	20895
861.918	20994
862.05	21005
862.183	21077
862.315	21119
862.447	21074
862.58	21123
862.712	20944
862.844	20838
862.976	21013
863.108	20952
863.24	21321
863.372	20811
863.504	20883
863.636	20769
863.768	20941
863.9	20750
864.032	20693
864.164	20834
864.296	20857
864.428	20941
864.559	20990
864.691	20948
864.823	20925
864.954	20883
865.086	20720
865.217	20655
865.349	20571
865.48	20667
865.612	20830
865.743	20785
865.875	20758
866.006	20686
866.137	20845
866.269	20659
866.4	20712
866.531	20655
866.662	20609
866.793	20682
866.924	20682
867.055	20594
867.186	20636
867.317	20655
867.448	20636
867.579	20636
867.71	20552
867.841	20545
867.972	20545
868.103	20636
868.233	20724
868.364	20708
868.495	20743
868.625	20845
868.756	20979
868.886	20845
869.017	20933
869.147	20963
869.278	21013
869.408	20857
869.539	20781
869.669	21112
869.799	20967
869.929	20929
870.06	20986
870.19	21161
870.32	21279
870.45	21161
870.58	21245
870.71	21283
870.84	21393
870.97	21222
871.1	21340
871.23	21302
871.36	21466
871.489	21488
871.619	21420
871.749	21564
871.879	21477
872.008	21469
872.138	21477
872.267	21355
872.397	21405
872.526	21382
872.656	21382
872.785	21294
872.915	21500
873.044	21507
873.173	21397
873.303	21587
873.432	21629
873.561	21500
873.69	21542
873.819	21466
873.948	21610
874.077	21576
874.206	21435
874.335	21549
874.464	21606
874.593	21736
874.722	21686
874.851	21895
874.979	21865
875.108	21930
875.237	21637
875.365	21629
875.494	21724
875.623	21808
875.751	21759
875.88	21747
876.008	21880
876.136	21998
876.265	22162
876.393	22207
876.521	22131
876.65	22166
876.778	22063
876.906	22063
877.034	22105
877.162	22147
877.29	22032
877.418	22150
877.546	22067
877.674	22090
877.802	22059
877.93	22090
878.058	21953
878.185	21975
878.313	21979
878.441	22051
878.568	21941
878.696	22063
878.824	22090
878.951	22051
879.079	22375
879.206	22344
879.333	22325
879.461	22207
879.588	22169
879.715	22242
879.842	22329
879.97	22188
880.097	21975
880.224	21854
880.351	22002
880.478	21960
880.605	21892
880.732	21835
880.859	22135
880.986	21922
881.112	21876
881.239	21736
881.366	21694
881.493	21572
881.619	21542
881.746	21614
881.872	21473
881.999	21408
882.125	21515
882.252	21572
882.378	21610
882.505	21534
882.631	21317
882.757	21081
882.883	21268
883.01	21348
883.136	21135
883.262	21032
883.388	20986
883.514	21112
883.64	21180
883.766	21081
883.892	21058
884.018	20963
884.143	21161
884.269	21070
884.395	21024
884.52	20895
884.646	20864
884.772	20739
884.897	20868
885.023	20800
885.148	20895
885.274	20887
885.399	21028
885.524	20834
885.65	20853
885.775	20895
885.9	20758
886.025	20883
886.15	20956
886.275	20819
886.4	20781
886.525	20705
886.65	20743
886.775	20743
886.9	21051
887.025	21051
887.149	20750
887.274	20743
887.399	20499
887.523	20640
887.648	20549
887.773	20571
887.897	20560
888.021	20659
888.146	20602
888.27	20640
888.395	20632
888.519	20575
888.643	20651
888.767	20731
888.891	20522
889.015	20374
889.139	20583
889.263	20355
889.387	20533
889.511	20632
889.635	20568
889.759	20438
889.883	20355
890.006	20355
890.13	20450
890.254	20415
890.377	20320
890.501	20142
890.624	20122
890.748	20168
890.871	20077
890.995	20005
891.118	19963
891.241	19974
891.364	20069
891.488	20134
891.611	19917
891.734	20043
891.857	20039
891.98	20043
892.103	20062
892.226	20012
892.349	19879
892.471	19799
892.594	19860
892.717	19997
892.839	19791
892.962	19989
893.085	19970
893.207	19841
893.33	19826
893.452	19845
893.575	19837
893.697	19788
893.819	20031
893.941	20157
894.064	20016
894.186	19772
894.308	19757
894.43	19947
894.552	19997
894.674	20096
894.796	19803
894.918	19860
895.04	19833
895.161	20069
895.283	19921
895.405	19887
895.526	19932
895.648	19776
895.769	19837
895.891	19879
896.012	20031
896.134	19951
896.255	19967
896.376	19887
896.498	19845
896.619	19868
896.74	19959
896.861	20016
896.982	20119
897.103	20355
897.224	20100
897.345	20088
897.466	19993
897.587	20012
897.708	20256
897.828	20054
897.949	20016
898.07	19989
898.19	19993
898.311	20172
898.431	19982
898.552	20176
898.672	20157
898.792	20157
898.913	20145
899.033	20031
899.153	19875
899.273	19879
899.393	19917
899.513	19890
899.633	19955
899.753	19936
899.873	19917
899.993	19822
900.113	19803
900.232	19932
900.352	19898
900.472	19647
900.591	19643
900.711	19769
900.83	19590
900.95	19769
901.069	19712
901.189	19563
901.308	19312
901.427	19247
901.546	19259
901.665	19312
901.784	19297
901.904	19187
902.023	19084
902.141	18703
902.26	18757
902.379	18966
902.498	18703
902.617	18814
902.735	18753
902.854	18833
902.973	18563
903.091	18547
903.21	18426
903.328	18407
903.446	18273
903.565	18357
903.683	18266
903.801	18083
903.919	18186
904.038	18102
904.156	18038
904.274	18026
904.392	17927
904.51	17893
904.627	18171
904.745	18011
904.863	18038
904.981	17866
905.098	17566
905.216	17676
905.334	17885
905.451	17752
905.569	17535
905.686	17714
905.803	17771
905.921	17497
906.038	17539
906.155	17478
906.272	17406
906.389	17345
906.506	17265
906.623	17364
906.74	17143
906.857	17121
906.974	17113
907.091	17376
907.208	17395
907.324	17223
907.441	17162
907.557	16953
907.674	16900
907.79	16854
907.907	16930
908.023	16900
908.139	16934
908.256	16938
908.372	16835
908.488	16858
908.604	16630
908.72	16626
908.836	16740
908.952	16679
909.068	16603
909.184	16725
909.3	16713
909.415	16729
909.531	16660
909.647	16363
909.762	16306
909.878	16455
909.993	16409
910.108	16440
910.224	16287
910.339	16306
910.454	16261
910.57	16177
910.685	16013
910.8	16436
910.915	16325
911.03	16234
911.145	15911
911.259	16002
911.374	15926
911.489	15903
911.604	15892
911.718	15778
911.833	15732
911.947	15762
912.062	15584
912.176	15675
912.291	15663
912.405	15732
912.519	15793
912.633	15876
912.748	15739
912.862	15682
912.976	15606
913.09	15492
913.204	15595
913.318	15477
913.431	15610
913.545	15549
913.659	15637
913.772	15416
913.886	15435
914	15306
914.113	15450
914.226	15443
914.34	15378
914.453	15211
914.566	15355
914.68	15279
914.793	15104
914.906	15039
915.019	15013
915.132	14883
915.245	14868
915.358	14963
915.47	15009
915.583	14982
915.696	14963
915.809	15085
915.921	15051
916.034	15032
916.146	14933
916.259	14956
916.371	14982
916.483	14982
916.595	14769
916.708	14864
916.82	14819
916.932	14864
917.044	14815
917.156	14701
917.268	14655
917.38	14648
917.491	14590
917.603	14552
917.715	14629
917.826	14777
917.938	14556
918.049	14533
918.161	14602
918.272	14682
918.384	14659
918.495	14693
918.606	14454
918.717	14309
918.828	14362
918.939	14419
919.05	14176
919.161	14324
919.272	14221
919.383	14240
919.494	14419
919.604	14617
919.715	14301
919.826	14290
919.936	14343
920.047	14377
920.157	14218
920.267	14530
920.378	14404
920.488	14282
920.598	14511
920.708	14655
920.818	14454
920.928	14503
921.038	14613
921.148	14552
921.258	14393
921.368	14218
921.477	14134
921.587	14088
921.697	14039
921.806	14153
921.916	13932
922.025	13723
922.134	13738
922.244	13742
922.353	13837
922.462	13636
922.571	13544
922.68	13403
922.789	13499
922.898	13422
923.007	13266
923.116	13407
923.224	13335
923.333	13350
923.442	13236
923.55	13206
923.659	13190
923.767	13213
923.876	13225
923.984	13263
924.092	13069
924.201	13072
924.309	13133
924.417	13099
924.525	13015
924.633	13091
924.741	13776
924.849	12825
924.956	13069
925.064	12913
925.172	12730
925.279	12859
925.387	12863
925.494	12776
925.602	12871
925.709	12817
925.816	12719
925.924	12753
926.031	12768
926.138	12684
926.245	12791
926.352	12711
926.459	12768
926.566	12779
926.673	12662
926.779	12589
926.886	12559
926.993	12369
927.099	12418
927.206	12350
927.312	12399
927.419	12395
927.525	12426
927.631	12414
927.737	12201
927.843	12251
927.95	12072
928.056	12133
928.162	12197
928.267	12216
928.373	12905
928.479	12315
928.585	12049
928.69	12148
928.796	12201
928.901	12110
929.007	11893
929.112	12060
929.218	11973
929.323	11965
929.428	11969
929.533	12117
929.638	11805
929.743	11859
929.848	11969
929.953	11904
930.058	11840
930.163	11676
930.267	11596
930.372	11748
930.477	11543
930.581	11824
930.685	11691
930.79	11524
930.894	11547
930.998	11448
931.103	11573
931.207	11269
931.311	11227
931.415	11045
931.519	10942
931.623	10797
