Data from test_V78500241_2056.txt Node
Date: Fri Mar 25 15:24:10 CST 2022
User: usil
Spectrometer: V785-0024
Trigger mode: 0
Integration Time (sec): 4.000000E-1
Scans to average: 1
Nonlinearity correction enabled: false
Boxcar width: 0
Storing dark spectrum: false
XAxis mode: Wavelengths
Number of Pixels in Spectrum: 1024
>>>>>Begin Spectral Data<<<<<
801.071	27709
801.214	27599
801.356	27222
801.499	27332
801.641	27264
801.783	27180
801.926	27188
802.068	27020
802.211	27127
802.353	27100
802.496	26792
802.638	26792
802.78	26826
802.923	26762
803.065	26575
803.208	26838
803.35	26765
803.492	27028
803.635	27017
803.777	26876
803.919	26910
804.061	27412
804.204	26963
804.346	26956
804.488	26956
804.63	27127
804.773	26880
804.915	27074
805.057	27157
805.199	26921
805.341	27180
805.483	27169
805.626	27249
805.768	26994
805.91	27005
806.052	27176
806.194	26982
806.336	27298
806.478	26944
806.62	27096
806.762	27260
806.904	27291
807.046	27682
807.188	27572
807.33	27523
807.472	27599
807.614	27485
807.756	27401
807.898	27393
808.04	27344
808.182	27405
808.324	27447
808.465	27367
808.607	27500
808.749	27736
808.891	27732
809.033	27857
809.174	27781
809.316	27762
809.458	27679
809.6	27778
809.741	27861
809.883	27907
810.025	27899
810.166	27994
810.308	28017
810.45	28067
810.591	27797
810.733	27797
810.875	27724
811.016	27450
811.158	27576
811.299	27732
811.441	27785
811.582	27926
811.724	27622
811.865	27587
812.007	27762
812.148	27736
812.29	27846
812.431	27941
812.573	28044
812.714	28010
812.855	28238
812.997	28261
813.138	28386
813.279	28280
813.421	28234
813.562	28147
813.703	28059
813.845	27880
813.986	27705
814.127	27507
814.268	27496
814.41	27542
814.551	27336
814.692	27397
814.833	27420
814.974	27329
815.115	27431
815.256	27154
815.397	27180
815.539	27336
815.68	27199
815.821	27161
815.962	27188
816.103	27119
816.244	27055
816.385	26998
816.526	26937
816.666	26785
816.807	26590
816.948	26724
817.089	26682
817.23	26746
817.371	26708
817.512	26708
817.653	26629
817.793	26530
817.934	26602
818.075	26720
818.216	26663
818.356	26667
818.497	26488
818.638	26412
818.778	26431
818.919	26347
819.06	26499
819.2	26549
819.341	26636
819.481	26746
819.622	26861
819.762	27062
819.903	26739
820.043	26918
820.184	26697
820.324	26758
820.465	26720
820.605	26864
820.746	26857
820.886	26560
821.026	26731
821.167	26731
821.307	26735
821.447	26667
821.588	26442
821.728	26343
821.868	26206
822.008	26115
822.149	26138
822.289	26077
822.429	25826
822.569	25677
822.709	25788
822.849	25613
822.99	25651
823.13	25540
823.27	25582
823.41	25308
823.55	25415
823.69	25529
823.83	25434
823.97	25362
824.11	25209
824.25	25217
824.389	25190
824.529	25460
824.669	25331
824.809	25259
824.949	25331
825.089	25346
825.228	25358
825.368	25194
825.508	25099
825.648	25312
825.787	25194
825.927	25148
826.067	25065
826.206	25088
826.346	25145
826.485	25110
826.625	25042
826.765	25285
826.904	25259
827.044	24924
827.183	24985
827.323	24817
827.462	24943
827.601	25015
827.741	24848
827.88	24886
828.02	24783
828.159	24711
828.298	24867
828.437	24913
828.577	24711
828.716	24840
828.855	24646
828.994	24669
829.134	24585
829.273	24589
829.412	24669
829.551	24426
829.69	24631
829.829	24654
829.968	24585
830.107	24563
830.246	24517
830.385	24426
830.524	24540
830.663	24399
830.802	24273
830.941	24136
831.08	24087
831.219	24247
831.357	24220
831.496	24357
831.635	24095
831.774	24121
831.913	24049
832.051	24003
832.19	23920
832.329	23916
832.467	23882
832.606	23870
832.744	23752
832.883	23897
833.022	23817
833.16	23764
833.299	23939
833.437	23870
833.576	23912
833.714	23908
833.852	23916
833.991	23927
834.129	24011
834.267	23969
834.406	23859
834.544	23942
834.682	23824
834.821	23885
834.959	24102
835.097	23843
835.235	23752
835.373	23992
835.511	23790
835.65	23699
835.788	23802
835.926	23551
836.064	23558
836.202	23524
836.34	23722
836.478	23847
836.615	23665
836.753	23779
836.891	23855
837.029	23714
837.167	23687
837.305	23726
837.443	23653
837.58	23589
837.718	23661
837.856	23634
837.993	23528
838.131	23570
838.269	23531
838.406	23539
838.544	23421
838.681	23296
838.819	23181
838.956	22961
839.094	23014
839.231	23056
839.369	23220
839.506	23478
839.643	23315
839.781	22984
839.918	23029
840.055	23056
840.193	23044
840.33	22915
840.467	22987
840.604	22854
840.742	23193
840.879	22809
841.016	22790
841.153	22896
841.29	23090
841.427	23014
841.564	22968
841.701	22908
841.838	22900
841.975	22759
842.112	22862
842.249	22831
842.385	22744
842.522	22904
842.659	22911
842.796	22618
842.933	22607
843.069	22603
843.206	22596
843.343	22752
843.479	22790
843.616	22809
843.752	22508
843.889	22508
844.025	22584
844.162	22508
844.298	22573
844.435	22432
844.571	22405
844.708	22489
844.844	22675
844.98	22455
845.117	22577
845.253	22523
845.389	22352
845.525	22322
845.661	22272
845.798	22204
845.934	22261
846.07	22242
846.206	22234
846.342	22284
846.478	22204
846.614	21934
846.75	21949
846.886	21972
847.022	22101
847.158	21918
847.294	21998
847.429	21911
847.565	22086
847.701	22215
847.837	21774
847.972	21743
848.108	21644
848.244	21804
848.379	21641
848.515	21553
848.65	21572
848.786	21481
848.921	21568
849.057	21652
849.192	21660
849.328	21519
849.463	21538
849.598	21542
849.734	21530
849.869	21386
850.004	21287
850.14	21363
850.275	21306
850.41	21127
850.545	21321
850.68	21268
850.815	21367
850.95	21310
851.085	21401
851.22	21515
851.355	21294
851.49	21203
851.625	21245
851.76	21348
851.895	21298
852.03	21275
852.165	21237
852.299	21313
852.434	21340
852.569	21332
852.703	21233
852.838	21336
852.973	21443
853.107	21363
853.242	21332
853.376	21085
853.511	20971
853.645	21100
853.78	21138
853.914	21131
854.048	21032
854.183	21032
854.317	21108
854.451	21279
854.585	21127
854.72	21176
854.854	21199
854.988	20998
855.122	21116
855.256	20975
855.39	20960
855.524	21272
855.658	21131
855.792	21135
855.926	21214
856.06	21218
856.194	21268
856.327	21074
856.461	20956
856.595	21051
856.729	21100
856.862	21256
856.996	21135
857.13	21211
857.263	21264
857.397	21199
857.53	21173
857.664	21119
857.797	21165
857.931	21214
858.064	21047
858.197	21245
858.331	21062
858.464	21077
858.597	21070
858.731	21123
858.864	21020
858.997	21150
859.13	21154
859.263	21108
859.396	21157
859.529	21203
859.662	21138
859.795	21028
859.928	21272
860.061	21237
860.194	21321
860.327	21203
860.46	21055
860.592	21199
860.725	21207
860.858	21256
860.99	21104
861.123	21123
861.256	21058
861.388	21043
861.521	21873
861.653	20956
861.786	20944
861.918	20891
862.05	20944
862.183	21154
862.315	20971
862.447	21131
862.58	21017
862.712	20929
862.844	20849
862.976	20872
863.108	21051
863.24	21237
863.372	20804
863.504	20712
863.636	20758
863.768	20807
863.9	20785
864.032	20826
864.164	20804
864.296	20876
864.428	20948
864.559	20906
864.691	20979
864.823	20845
864.954	20838
865.086	20781
865.217	20845
865.349	20701
865.48	20693
865.612	20655
865.743	20834
865.875	20762
866.006	20735
866.137	20720
866.269	20743
866.4	20674
866.531	20575
866.662	20590
866.793	20640
866.924	20644
867.055	20602
867.186	20629
867.317	20629
867.448	20644
867.579	20648
867.71	20530
867.841	20644
867.972	20701
868.103	20644
868.233	20617
868.364	20632
868.495	20644
868.625	20975
868.756	21013
868.886	20853
869.017	20925
869.147	21096
869.278	20975
869.408	20986
869.539	20777
869.669	21096
869.799	20895
869.929	21009
870.06	21005
870.19	21207
870.32	21161
870.45	21329
870.58	21306
870.71	21272
870.84	21382
870.97	21252
871.1	21275
871.23	21511
871.36	21511
871.489	21405
871.619	21481
871.749	21511
871.879	21485
872.008	21583
872.138	21519
872.267	21466
872.397	21416
872.526	21256
872.656	21420
872.785	21363
872.915	21431
873.044	21625
873.173	21564
873.303	21496
873.432	21492
873.561	21572
873.69	21572
873.819	21504
873.948	21526
874.077	21652
874.206	21504
874.335	21477
874.464	21591
874.593	21694
874.722	21755
874.851	21857
874.979	21751
875.108	21937
875.237	21663
875.365	21690
875.494	21732
875.623	21884
875.751	21610
875.88	21819
876.008	21888
876.136	21964
876.265	22192
876.393	22291
876.521	22131
876.65	22265
876.778	22249
876.906	22188
877.034	21983
877.162	22055
877.29	22025
877.418	22135
877.546	22120
877.674	22097
877.802	22158
877.93	22025
878.058	22139
878.185	21899
878.313	22040
878.441	22090
878.568	21968
878.696	22040
878.824	22211
878.951	22124
879.079	22253
879.206	22432
879.333	22230
879.461	22135
879.588	22249
879.715	22367
879.842	22234
879.97	22154
880.097	22055
880.224	21979
880.351	21979
880.478	21876
880.605	21915
880.732	21880
880.859	22226
880.986	22044
881.112	22017
881.239	21831
881.366	21679
881.493	21603
881.619	21614
881.746	21515
881.872	21523
881.999	21458
882.125	21317
882.252	21534
882.378	21439
882.505	21587
882.631	21298
882.757	21256
882.883	21329
883.01	21165
883.136	21138
883.262	20944
883.388	20994
883.514	21344
883.64	21195
883.766	21119
883.892	20941
884.018	21085
884.143	21104
884.269	21157
884.395	20914
884.52	20952
884.646	20891
884.772	20796
884.897	20804
885.023	20956
885.148	20914
885.274	21043
885.399	21009
885.524	20861
885.65	20826
885.775	20750
885.9	20750
886.025	20963
886.15	20883
886.275	20868
886.4	20636
886.525	20834
886.65	20834
886.775	20701
886.9	20941
887.025	20990
887.149	20838
887.274	20701
887.399	20682
887.523	20606
887.648	20526
887.773	20552
887.897	20514
888.021	20758
888.146	20670
888.27	20617
888.395	20659
888.519	20625
888.643	20800
888.767	20667
888.891	20526
889.015	20362
889.139	20446
889.263	20431
889.387	20533
889.511	20594
889.635	20571
889.759	20309
889.883	20393
890.006	20434
890.13	20446
890.254	20351
890.377	20396
890.501	20199
890.624	20081
890.748	20244
890.871	20122
890.995	20001
891.118	19944
891.241	20062
891.364	20107
891.488	19986
891.611	20024
891.734	19940
891.857	20126
891.98	20149
892.103	20096
892.226	19951
892.349	19932
892.471	19928
892.594	19856
892.717	19925
892.839	19959
892.962	20020
893.085	19982
893.207	19925
893.33	19765
893.452	19761
893.575	19947
893.697	20005
893.819	20058
893.941	20069
894.064	20111
894.186	19818
894.308	19860
894.43	19868
894.552	20096
894.674	20050
894.796	19776
894.918	19925
895.04	19951
895.161	19902
895.283	19898
895.405	19830
895.526	19864
895.648	19921
895.769	19906
895.891	19849
896.012	19932
896.134	19906
896.255	19875
896.376	19852
896.498	19826
896.619	19894
896.74	19959
896.861	20005
896.982	20313
897.103	20355
897.224	20214
897.345	20134
897.466	20069
897.587	20069
897.708	20229
897.828	20153
897.949	20081
898.07	20005
898.19	20115
898.311	20240
898.431	20130
898.552	20081
898.672	20157
898.792	20221
898.913	20138
899.033	19947
899.153	20031
899.273	19917
899.393	19875
899.513	19944
899.633	19837
899.753	19833
899.873	19784
899.993	19959
900.113	19860
900.232	19921
900.352	19833
900.472	19734
900.591	19651
900.711	19765
900.83	19601
900.95	19807
901.069	19742
901.189	19559
901.308	19396
901.427	19152
901.546	19270
901.665	19175
901.784	19194
901.904	19095
902.023	18909
902.141	18863
902.26	18837
902.379	18920
902.498	18768
902.617	18825
902.735	18802
902.854	18730
902.973	18707
903.091	18486
903.21	18399
903.328	18448
903.446	18357
903.565	18285
903.683	18342
903.801	18167
903.919	18220
904.038	18251
904.156	18026
904.274	18167
904.392	18064
904.51	17836
904.627	17988
904.745	18117
904.863	18049
904.981	17809
905.098	17630
905.216	17676
905.334	17821
905.451	17707
905.569	17722
905.686	17684
905.803	17726
905.921	17421
906.038	17539
906.155	17471
906.272	17341
906.389	17364
906.506	17261
906.623	17261
906.74	17170
906.857	17075
906.974	17086
907.091	17208
907.208	17246
907.324	17235
907.441	17052
907.557	16911
907.674	17018
907.79	16942
907.907	16984
908.023	16984
908.139	16850
908.256	16908
908.372	16892
908.488	16824
908.604	16645
908.72	16683
908.836	16683
908.952	16607
909.068	16565
909.184	16687
909.3	16679
909.415	16622
909.531	16656
909.647	16344
909.762	16325
909.878	16337
909.993	16314
910.108	16299
910.224	16272
910.339	16253
910.454	16238
910.57	16158
910.685	16131
910.8	16367
910.915	16325
911.03	16147
911.145	16082
911.259	15918
911.374	15960
911.489	15854
911.604	15819
911.718	15686
911.833	15728
911.947	15439
912.062	15515
912.176	15656
912.291	15644
912.405	15675
912.519	15816
912.633	15785
912.748	15736
912.862	15842
912.976	15545
913.09	15351
913.204	15496
913.318	15496
913.431	15610
913.545	15595
913.659	15648
913.772	15500
913.886	15359
914	15195
914.113	15420
914.226	15363
914.34	15447
914.453	15169
914.566	15317
914.68	15230
914.793	15176
914.906	14994
915.019	14883
915.132	14948
915.245	14921
915.358	14952
915.47	14902
915.583	14937
915.696	14933
915.809	15062
915.921	15017
916.034	14880
916.146	14815
916.259	14777
916.371	14902
916.483	14857
916.595	14811
916.708	14743
916.82	14769
916.932	14769
917.044	14720
917.156	14743
917.268	14621
917.38	14610
917.491	14590
917.603	14575
917.715	14659
917.826	14743
917.938	14533
918.049	14385
918.161	14606
918.272	14659
918.384	14617
918.495	14499
918.606	14431
918.717	14343
918.828	14465
918.939	14377
919.05	14282
919.161	14317
919.272	14107
919.383	14195
919.494	14362
919.604	14560
919.715	14374
919.826	14252
919.936	14358
920.047	14396
920.157	14256
920.267	14530
920.378	14301
920.488	14351
920.598	14507
920.708	14731
920.818	14381
920.928	14419
921.038	14674
921.148	14549
921.258	14282
921.368	14115
921.477	14119
921.587	14008
921.697	14058
921.806	14043
921.916	13932
922.025	13795
922.134	13731
922.244	13556
922.353	13776
922.462	13548
922.571	13597
922.68	13415
922.789	13419
922.898	13297
923.007	13377
923.116	13426
923.224	13343
923.333	13274
923.442	13209
923.55	13133
923.659	13217
923.767	13282
923.876	13133
923.984	13202
924.092	13099
924.201	13175
924.309	13126
924.417	12977
924.525	12973
924.633	12977
924.741	13814
924.849	12856
924.956	12962
925.064	12852
925.172	12776
925.279	12734
925.387	12738
925.494	12779
925.602	12913
925.709	12852
925.816	12760
925.924	12749
926.031	12745
926.138	12734
926.245	12772
926.352	12635
926.459	12749
926.566	12791
926.673	12730
926.779	12574
926.886	12585
926.993	12471
927.099	12350
927.206	12247
927.312	12361
927.419	12327
927.525	12273
927.631	12361
927.737	12178
927.843	12182
927.95	12095
928.056	12129
928.162	12159
928.267	12258
928.373	12791
928.479	12194
928.585	12038
928.69	12133
928.796	12102
928.901	12038
929.007	11874
929.112	12121
929.218	11992
929.323	11889
929.428	11920
929.533	11980
929.638	11901
929.743	11832
929.848	11927
929.953	11843
930.058	11722
930.163	11615
930.267	11539
930.372	11771
930.477	11562
930.581	11809
930.685	11589
930.79	11402
930.894	11482
930.998	11463
931.103	11585
931.207	11311
931.311	11121
931.415	11105
931.519	10911
931.623	10923
