Data from test_V78500241_2994.txt Node
Date: Fri Mar 25 15:30:42 CST 2022
User: usil
Spectrometer: V785-0024
Trigger mode: 0
Integration Time (sec): 4.000000E-1
Scans to average: 1
Nonlinearity correction enabled: false
Boxcar width: 0
Storing dark spectrum: false
XAxis mode: Wavelengths
Number of Pixels in Spectrum: 1024
>>>>>Begin Spectral Data<<<<<
801.071	27294
801.214	27298
801.356	27028
801.499	27020
801.641	26910
801.783	26849
801.926	26880
802.068	26796
802.211	26750
802.353	26663
802.496	26545
802.638	26579
802.78	26579
802.923	26499
803.065	26328
803.208	26294
803.35	26438
803.492	26503
803.635	26674
803.777	26514
803.919	26518
804.061	26804
804.204	26788
804.346	26663
804.488	26564
804.63	26492
804.773	26358
804.915	26727
805.057	26712
805.199	26686
805.341	26701
805.483	26689
805.626	26773
805.768	26712
805.91	26678
806.052	26811
806.194	26655
806.336	26815
806.478	26777
806.62	26708
806.762	26880
806.904	26925
807.046	27173
807.188	27226
807.33	27222
807.472	27214
807.614	27207
807.756	27104
807.898	27039
808.04	26937
808.182	26902
808.324	26914
808.465	27028
808.607	27173
808.749	27427
808.891	27443
809.033	27500
809.174	27302
809.316	27329
809.458	27348
809.6	27275
809.741	27325
809.883	27477
810.025	27644
810.166	27599
810.308	27648
810.45	27637
810.591	27538
810.733	27412
810.875	27336
811.016	27245
811.158	27233
811.299	27416
811.441	27469
811.582	27466
811.724	27275
811.865	27332
812.007	27241
812.148	27294
812.29	27260
812.431	27344
812.573	27660
812.714	27747
812.855	27778
812.997	27968
813.138	28086
813.279	28044
813.421	27827
813.562	27572
813.703	27576
813.845	27443
813.986	27363
814.127	27146
814.268	27043
814.41	27047
814.551	26929
814.692	27047
814.833	26895
814.974	26876
815.115	26956
815.256	26883
815.397	26883
815.539	26811
815.68	26804
815.821	26735
815.962	26629
816.103	26925
816.244	26537
816.385	26533
816.526	26556
816.666	26381
816.807	26240
816.948	26214
817.089	26214
817.23	26130
817.371	26244
817.512	26157
817.653	26202
817.793	26115
817.934	26130
818.075	26259
818.216	26183
818.356	26317
818.497	26202
818.638	26012
818.778	26012
818.919	25928
819.06	26111
819.2	26081
819.341	26214
819.481	26256
819.622	26385
819.762	26667
819.903	26469
820.043	26366
820.184	26290
820.324	26294
820.465	26381
820.605	26256
820.746	26248
820.886	26069
821.026	26313
821.167	26153
821.307	26400
821.447	26237
821.588	26134
821.728	25982
821.868	25909
822.008	25784
822.149	25704
822.289	25677
822.429	25491
822.569	25247
822.709	25464
822.849	25228
822.99	25266
823.13	25126
823.27	25209
823.41	24951
823.55	24954
823.69	25194
823.83	25031
823.97	24840
824.11	24913
824.25	24768
824.389	24867
824.529	24859
824.669	24726
824.809	25015
824.949	25023
825.089	25004
825.228	24943
825.368	24757
825.508	24684
825.648	24779
825.787	24779
825.927	24760
826.067	24688
826.206	24650
826.346	24719
826.485	24730
826.625	24639
826.765	24791
826.904	24753
827.044	24342
827.183	24414
827.323	24369
827.462	24464
827.601	24456
827.741	24376
827.88	24490
828.02	24304
828.159	24201
828.298	24369
828.437	24433
828.577	24270
828.716	24426
828.855	24281
828.994	24167
829.134	24174
829.273	24262
829.412	24053
829.551	23973
829.69	24102
829.829	24068
829.968	24239
830.107	24125
830.246	24155
830.385	24053
830.524	24091
830.663	23824
830.802	23859
830.941	23672
831.08	23653
831.219	23729
831.357	23817
831.496	24022
831.635	23767
831.774	23585
831.913	23573
832.051	23558
832.19	23417
832.329	23379
832.467	23414
832.606	23277
832.744	23292
832.883	23364
833.022	23387
833.16	23410
833.299	23402
833.437	23417
833.576	23429
833.714	23421
833.852	23337
833.991	23433
834.129	23604
834.267	23425
834.406	23322
834.544	23478
834.682	23433
834.821	23414
834.959	23608
835.097	23307
835.235	23250
835.373	23410
835.511	23345
835.65	23242
835.788	23269
835.926	23204
836.064	23105
836.202	23090
836.34	23261
836.478	23353
836.615	23231
836.753	23315
836.891	23326
837.029	23235
837.167	23159
837.305	23117
837.443	23231
837.58	23071
837.718	23231
837.856	23094
837.993	23033
838.131	23052
838.269	23010
838.406	22999
838.544	22991
838.681	22603
838.819	22812
838.956	22489
839.094	22573
839.231	22641
839.369	22698
839.506	22987
839.643	22835
839.781	22546
839.918	22455
840.055	22615
840.193	22508
840.33	22481
840.467	22428
840.604	22573
840.742	22748
840.879	22421
841.016	22478
841.153	22481
841.29	22580
841.427	22504
841.564	22588
841.701	22462
841.838	22440
841.975	22455
842.112	22447
842.249	22329
842.385	22314
842.522	22379
842.659	22440
842.796	22295
842.933	22261
843.069	22299
843.206	22268
843.343	22322
843.479	22246
843.616	22318
843.752	22112
843.889	22078
844.025	22131
844.162	21941
844.298	22173
844.435	21960
844.571	21960
844.708	22078
844.844	22219
844.98	22040
845.117	22147
845.253	21983
845.389	21835
845.525	21911
845.661	21838
845.798	21724
845.934	21854
846.07	21701
846.206	21766
846.342	21972
846.478	21781
846.614	21629
846.75	21561
846.886	21462
847.022	21618
847.158	21591
847.294	21561
847.429	21526
847.565	21447
847.701	21671
847.837	21306
847.972	21192
848.108	21344
848.244	21207
848.379	21173
848.515	21123
848.65	21055
848.786	21116
848.921	21013
849.057	21203
849.192	21184
849.328	21230
849.463	21157
849.598	21051
849.734	20944
849.869	21066
850.004	20883
850.14	20853
850.275	20883
850.41	20971
850.545	20773
850.68	20906
850.815	20864
850.95	20819
851.085	21017
851.22	21009
851.355	20800
851.49	20815
851.625	20857
851.76	20845
851.895	20777
852.03	20785
852.165	20899
852.299	20758
852.434	20918
852.569	20975
852.703	20921
852.838	20864
852.973	20982
853.107	20948
853.242	20792
853.376	20708
853.511	20530
853.645	20625
853.78	20807
853.914	20689
854.048	20598
854.183	20735
854.317	20632
854.451	20910
854.585	20739
854.72	20743
854.854	20811
854.988	20625
855.122	20682
855.256	20613
855.39	20705
855.524	20800
855.658	20807
855.792	20727
855.926	20701
856.06	20754
856.194	20705
856.327	20689
856.461	20617
856.595	20518
856.729	20754
856.862	20830
856.996	20731
857.13	20811
857.263	20754
857.397	20845
857.53	20575
857.664	20670
857.797	20674
857.931	20887
858.064	20727
858.197	20834
858.331	20670
858.464	20667
858.597	20621
858.731	20758
858.864	20670
858.997	20648
859.13	20670
859.263	20724
859.396	20815
859.529	20769
859.662	20629
859.795	20651
859.928	20613
860.061	20845
860.194	20845
860.327	20575
860.46	20689
860.592	20845
860.725	20804
860.858	20796
860.99	20663
861.123	20556
861.256	20629
861.388	20632
861.521	21386
861.653	20549
861.786	20434
861.918	20617
862.05	20438
862.183	20705
862.315	20724
862.447	20735
862.58	20552
862.712	20431
862.844	20499
862.976	20480
863.108	20492
863.24	20834
863.372	20309
863.504	20328
863.636	20381
863.768	20446
863.9	20408
864.032	20351
864.164	20362
864.296	20488
864.428	20587
864.559	20412
864.691	20526
864.823	20514
864.954	20336
865.086	20317
865.217	20240
865.349	20202
865.48	20366
865.612	20195
865.743	20480
865.875	20313
866.006	20259
866.137	20309
866.269	20351
866.4	20267
866.531	20225
866.662	20237
866.793	20218
866.924	20248
867.055	20317
867.186	20347
867.317	20202
867.448	20172
867.579	20134
867.71	20157
867.841	20100
867.972	20183
868.103	20320
868.233	20278
868.364	20278
868.495	20389
868.625	20412
868.756	20602
868.886	20366
869.017	20476
869.147	20564
869.278	20659
869.408	20469
869.539	20484
869.669	20522
869.799	20545
869.929	20533
870.06	20648
870.19	20800
870.32	20853
870.45	20887
870.58	20899
870.71	21028
870.84	21051
870.97	20864
871.1	20910
871.23	21108
871.36	21081
871.489	20960
871.619	21032
871.749	21180
871.879	21028
872.008	21291
872.138	21176
872.267	21199
872.397	20960
872.526	20933
872.656	20891
872.785	20876
872.915	21207
873.044	21150
873.173	21047
873.303	21249
873.432	21207
873.561	21192
873.69	21192
873.819	21157
873.948	21169
874.077	21119
874.206	21020
874.335	21192
874.464	21211
874.593	21359
874.722	21294
874.851	21348
874.979	21374
875.108	21424
875.237	21260
875.365	21294
875.494	21249
875.623	21496
875.751	21378
875.88	21340
876.008	21515
876.136	21507
876.265	21842
876.393	21816
876.521	21797
876.65	21823
876.778	21667
876.906	21778
877.034	21774
877.162	21606
877.29	21717
877.418	21705
877.546	21720
877.674	21778
877.802	21724
877.93	21713
878.058	21622
878.185	21515
878.313	21667
878.441	21698
878.568	21523
878.696	21564
878.824	21667
878.951	21804
879.079	21797
879.206	21922
879.333	21816
879.461	21770
879.588	21808
879.715	21861
879.842	21941
879.97	21835
880.097	21557
880.224	21408
880.351	21545
880.478	21603
880.605	21545
880.732	21583
880.859	21759
880.986	21458
881.112	21629
881.239	21519
881.366	21241
881.493	21195
881.619	21146
881.746	21112
881.872	21104
881.999	21020
882.125	20998
882.252	21100
882.378	21066
882.505	21233
882.631	20933
882.757	20815
882.883	20971
883.01	20773
883.136	20823
883.262	20636
883.388	20651
883.514	20758
883.64	20921
883.766	20678
883.892	20564
884.018	20579
884.143	20724
884.269	20842
884.395	20583
884.52	20332
884.646	20434
884.772	20454
884.897	20362
885.023	20636
885.148	20511
885.274	20625
885.399	20655
885.524	20495
885.65	20465
885.775	20454
885.9	20419
886.025	20457
886.15	20442
886.275	20381
886.4	20332
886.525	20613
886.65	20404
886.775	20404
886.9	20560
887.025	20640
887.149	20465
887.274	20305
887.399	20233
887.523	20214
887.648	20168
887.773	20172
887.897	20328
888.021	20256
888.146	20119
888.27	20305
888.395	20320
888.519	20381
888.643	20317
888.767	20221
888.891	20161
889.015	20054
889.139	20122
889.263	20020
889.387	20214
889.511	20256
889.635	20206
889.759	20046
889.883	19959
890.006	20008
890.13	20111
890.254	19963
890.377	19970
890.501	19776
890.624	19776
890.748	19833
890.871	19647
890.995	19689
891.118	19502
891.241	19704
891.364	19601
891.488	19746
891.611	19605
891.734	19582
891.857	19727
891.98	19677
892.103	19731
892.226	19628
892.349	19525
892.471	19407
892.594	19533
892.717	19499
892.839	19419
892.962	19495
893.085	19556
893.207	19529
893.33	19343
893.452	19540
893.575	19537
893.697	19316
893.819	19791
893.941	19715
894.064	19681
894.186	19491
894.308	19499
894.43	19655
894.552	19677
894.674	19616
894.796	19400
894.918	19552
895.04	19559
895.161	19582
895.283	19578
895.405	19491
895.526	19578
895.648	19624
895.769	19556
895.891	19453
896.012	19620
896.134	19635
896.255	19563
896.376	19563
896.498	19540
896.619	19605
896.74	19499
896.861	19563
896.982	19955
897.103	19932
897.224	19811
897.345	19738
897.466	19655
897.587	19845
897.708	19928
897.828	19689
897.949	19803
898.07	19643
898.19	19734
898.311	19780
898.431	19586
898.552	19757
898.672	19982
898.792	19841
898.913	19776
899.033	19647
899.153	19548
899.273	19506
899.393	19567
899.513	19613
899.633	19529
899.753	19662
899.873	19480
899.993	19502
900.113	19381
900.232	19506
900.352	19552
900.472	19388
900.591	19263
900.711	19422
900.83	19244
900.95	19350
901.069	19411
901.189	19225
901.308	19107
901.427	18852
901.546	18977
901.665	18947
901.784	18973
901.904	18783
902.023	18688
902.141	18464
902.26	18509
902.379	18479
902.498	18559
902.617	18384
902.735	18357
902.854	18502
902.973	18426
903.091	18091
903.21	17973
903.328	18201
903.446	18022
903.565	17893
903.683	17920
903.801	17866
903.919	17901
904.038	17935
904.156	17805
904.274	17718
904.392	17737
904.51	17665
904.627	17710
904.745	17748
904.863	17657
904.981	17486
905.098	17345
905.216	17436
905.334	17421
905.451	17299
905.569	17337
905.686	17436
905.803	17284
905.921	17189
906.038	17315
906.155	17231
906.272	17128
906.389	16980
906.506	16911
906.623	16946
906.74	16873
906.857	16824
906.974	16854
907.091	17045
907.208	16991
907.324	16976
907.441	16858
907.557	16683
907.674	16615
907.79	16546
907.907	16569
908.023	16672
908.139	16733
908.256	16637
908.372	16519
908.488	16466
908.604	16428
908.72	16382
908.836	16356
908.952	16382
909.068	16352
909.184	16493
909.3	16310
909.415	16310
909.531	16314
909.647	16131
909.762	16128
909.878	16048
909.993	16093
910.108	16006
910.224	15934
910.339	15991
910.454	15857
910.57	15835
910.685	15816
910.8	15926
910.915	16059
911.03	15892
911.145	15728
911.259	15614
911.374	15717
911.489	15584
911.604	15428
911.718	15370
911.833	15431
911.947	15279
912.062	15321
912.176	15466
912.291	15401
912.405	15370
912.519	15637
912.633	15686
912.748	15378
912.862	15401
912.976	15336
913.09	15176
913.204	15256
913.318	15211
913.431	15397
913.545	15348
913.659	15306
913.772	15218
913.886	15119
914	15028
914.113	15169
914.226	15047
914.34	15077
914.453	14800
914.566	15100
914.68	15009
914.793	14864
914.906	14762
915.019	14693
915.132	14514
915.245	14575
915.358	14682
915.47	14678
915.583	14613
915.696	14701
915.809	14758
915.921	14842
916.034	14556
916.146	14526
916.259	14594
916.371	14655
916.483	14530
916.595	14503
916.708	14473
916.82	14503
916.932	14427
917.044	14450
917.156	14495
917.268	14339
917.38	14446
917.491	14332
917.603	14336
917.715	14374
917.826	14438
917.938	14332
918.049	14183
918.161	14313
918.272	14347
918.384	14446
918.495	14347
918.606	14069
918.717	14054
918.828	14088
918.939	14111
919.05	13917
919.161	14012
919.272	13887
919.383	13898
919.494	14248
919.604	14290
919.715	14073
919.826	13978
919.936	14111
920.047	14058
920.157	14161
920.267	14259
920.378	14123
920.488	14046
920.598	14313
920.708	14324
920.818	14176
920.928	14096
921.038	14309
921.148	14225
921.258	14081
921.368	13970
921.477	13845
921.587	13727
921.697	13723
921.806	13761
921.916	13761
922.025	13540
922.134	13499
922.244	13400
922.353	13521
922.462	13388
922.571	13316
922.68	13122
922.789	13110
922.898	13145
923.007	13031
923.116	13118
923.224	13019
923.333	13076
923.442	12973
923.55	12863
923.659	12954
923.767	13076
923.876	12890
923.984	13000
924.092	12886
924.201	12966
924.309	12867
924.417	12920
924.525	12806
924.633	12829
924.741	13578
924.849	12612
924.956	12662
925.064	12585
925.172	12544
925.279	12544
925.387	12570
925.494	12612
925.602	12639
925.709	12547
925.816	12502
925.924	12555
926.031	12631
926.138	12570
926.245	12540
926.352	12334
926.459	12570
926.566	12604
926.673	12353
926.779	12323
926.886	12243
926.993	12148
927.099	12235
927.206	12087
927.312	12110
927.419	12228
927.525	12083
927.631	12098
927.737	12083
927.843	11882
927.95	11855
928.056	12007
928.162	11939
928.267	11984
928.373	12650
928.479	12030
928.585	11794
928.69	11859
928.796	11996
928.901	11794
929.007	11634
929.112	11733
929.218	11836
929.323	11691
929.428	11596
929.533	11813
929.638	11596
929.743	11710
929.848	11699
929.953	11585
930.058	11623
930.163	11376
930.267	11440
930.372	11570
930.477	11368
930.581	11615
930.685	11501
930.79	11231
930.894	11280
930.998	11235
931.103	11444
931.207	11033
931.311	10934
931.415	10839
931.519	10714
931.623	10596
