Data from test_V78500241_2173.txt Node
Date: Fri Mar 25 15:24:59 CST 2022
User: usil
Spectrometer: V785-0024
Trigger mode: 0
Integration Time (sec): 4.000000E-1
Scans to average: 1
Nonlinearity correction enabled: false
Boxcar width: 0
Storing dark spectrum: false
XAxis mode: Wavelengths
Number of Pixels in Spectrum: 1024
>>>>>Begin Spectral Data<<<<<
801.071	27701
801.214	27542
801.356	27321
801.499	27408
801.641	27340
801.783	27131
801.926	27264
802.068	27184
802.211	27131
802.353	27074
802.496	26906
802.638	26986
802.78	26777
802.923	26804
803.065	26777
803.208	26842
803.35	26815
803.492	27013
803.635	27005
803.777	27020
803.919	27013
804.061	27226
804.204	27230
804.346	27104
804.488	27058
804.63	27062
804.773	27024
804.915	26982
805.057	27203
805.199	26967
805.341	27142
805.483	27165
805.626	27154
805.768	27036
805.91	27104
806.052	27112
806.194	27036
806.336	27256
806.478	27176
806.62	27241
806.762	27199
806.904	27526
807.046	27774
807.188	27545
807.33	27682
807.472	27705
807.614	27603
807.756	27523
807.898	27469
808.04	27405
808.182	27374
808.324	27458
808.465	27557
808.607	27701
808.749	27759
808.891	28010
809.033	27911
809.174	27800
809.316	27766
809.458	27876
809.6	27854
809.741	27907
809.883	27953
810.025	28044
810.166	28090
810.308	28090
810.45	28120
810.591	27998
810.733	27922
810.875	27892
811.016	27759
811.158	27686
811.299	27736
811.441	27816
811.582	27895
811.724	27892
811.865	27766
812.007	27755
812.148	27808
812.29	27892
812.431	28029
812.573	28090
812.714	28173
812.855	28204
812.997	28417
813.138	28535
813.279	28459
813.421	28204
813.562	28158
813.703	28059
813.845	28021
813.986	27846
814.127	27523
814.268	27481
814.41	27534
814.551	27389
814.692	27534
814.833	27595
814.974	27538
815.115	27572
815.256	27466
815.397	27462
815.539	27431
815.68	27332
815.821	27287
815.962	27287
816.103	27241
816.244	27096
816.385	27108
816.526	26994
816.666	26933
816.807	26701
816.948	26853
817.089	26895
817.23	26876
817.371	26838
817.512	26758
817.653	26682
817.793	26667
817.934	26720
818.075	26819
818.216	26899
818.356	26724
818.497	26655
818.638	26446
818.778	26522
818.919	26438
819.06	26655
819.2	26617
819.341	26746
819.481	26769
819.622	26971
819.762	27150
819.903	27005
820.043	26960
820.184	26902
820.324	27009
820.465	27051
820.605	26876
820.746	26864
820.886	26800
821.026	26929
821.167	26834
821.307	26834
821.447	26739
821.588	26689
821.728	26648
821.868	26252
822.008	26290
822.149	26191
822.289	26195
822.429	26081
822.569	26126
822.709	25928
822.849	25734
822.99	25750
823.13	25689
823.27	25856
823.41	25586
823.55	25514
823.69	25639
823.83	25594
823.97	25563
824.11	25358
824.25	25343
824.389	25327
824.529	25552
824.669	25479
824.809	25400
824.949	25445
825.089	25571
825.228	25381
825.368	25274
825.508	25179
825.648	25175
825.787	25228
825.927	25403
826.067	25107
826.206	25228
826.346	25343
826.485	25270
826.625	25301
826.765	25278
826.904	25312
827.044	25031
827.183	25053
827.323	24981
827.462	24916
827.601	25122
827.741	24920
827.88	24905
828.02	24817
828.159	25015
828.298	24928
828.437	24985
828.577	24962
828.716	24981
828.855	24825
828.994	24715
829.134	24692
829.273	24738
829.412	24696
829.551	24536
829.69	24757
829.829	24722
829.968	24875
830.107	24753
830.246	24661
830.385	24620
830.524	24582
830.663	24528
830.802	24357
830.941	24391
831.08	24205
831.219	24486
831.357	24323
831.496	24483
831.635	24258
831.774	24342
831.913	24254
832.051	24072
832.19	24102
832.329	24144
832.467	24053
832.606	23870
832.744	23901
832.883	23946
833.022	23893
833.16	23916
833.299	24022
833.437	23904
833.576	24034
833.714	23942
833.852	24098
833.991	24102
834.129	24091
834.267	24079
834.406	23958
834.544	24095
834.682	23977
834.821	24064
834.959	24205
835.097	23961
835.235	24041
835.373	24026
835.511	23965
835.65	23790
835.788	23828
835.926	23691
836.064	23562
836.202	23627
836.34	23805
836.478	23935
836.615	23878
836.753	23718
836.891	23863
837.029	23897
837.167	23695
837.305	23638
837.443	23672
837.58	23741
837.718	23661
837.856	23684
837.993	23577
838.131	23604
838.269	23467
838.406	23703
838.544	23547
838.681	23402
838.819	23315
838.956	23162
839.094	23193
839.231	23239
839.369	23250
839.506	23520
839.643	23379
839.781	23025
839.918	23025
840.055	23136
840.193	23193
840.33	23136
840.467	22953
840.604	23071
840.742	23330
840.879	22889
841.016	23010
841.153	22968
841.29	23231
841.427	23075
841.564	22938
841.701	23041
841.838	23098
841.975	22904
842.112	22877
842.249	22820
842.385	22816
842.522	23083
842.659	22881
842.796	22835
842.933	22843
843.069	22797
843.206	22843
843.343	22896
843.479	22862
843.616	22809
843.752	22565
843.889	22561
844.025	22645
844.162	22500
844.298	22736
844.435	22485
844.571	22535
844.708	22721
844.844	22805
844.98	22725
845.117	22592
845.253	22462
845.389	22436
845.525	22485
845.661	22451
845.798	22295
845.934	22405
846.07	22257
846.206	22394
846.342	22512
846.478	22443
846.614	22078
846.75	21998
846.886	21972
847.022	22086
847.158	22032
847.294	22181
847.429	22025
847.565	21953
847.701	22238
847.837	21762
847.972	21808
848.108	21941
848.244	21876
848.379	21663
848.515	21606
848.65	21591
848.786	21679
848.921	21755
849.057	21709
849.192	21686
849.328	21713
849.463	21675
849.598	21496
849.734	21515
849.869	21481
850.004	21443
850.14	21386
850.275	21443
850.41	21450
850.545	21310
850.68	21275
850.815	21504
850.95	21473
851.085	21625
851.22	21542
851.355	21291
851.49	21329
851.625	21317
851.76	21340
851.895	21397
852.03	21146
852.165	21252
852.299	21344
852.434	21538
852.569	21389
852.703	21367
852.838	21454
852.973	21568
853.107	21370
853.242	21355
853.376	21325
853.511	21226
853.645	21081
853.78	21416
853.914	21294
854.048	21195
854.183	21287
854.317	21272
854.451	21393
854.585	21233
854.72	21237
854.854	21325
854.988	21195
855.122	21218
855.256	21116
855.39	21222
855.524	21294
855.658	21329
855.792	21211
855.926	21313
856.06	21188
856.194	21313
856.327	21180
856.461	21112
856.595	21195
856.729	21275
856.862	21241
856.996	21184
857.13	21298
857.263	21226
857.397	21233
857.53	21268
857.664	21256
857.797	21272
857.931	21313
858.064	21218
858.197	21275
858.331	21150
858.464	21157
858.597	21135
858.731	21176
858.864	21138
858.997	21218
859.13	21226
859.263	21123
859.396	21325
859.529	21310
859.662	21192
859.795	21165
859.928	21195
860.061	21291
860.194	21370
860.327	21237
860.46	21222
860.592	21233
860.725	21211
860.858	21211
860.99	21252
861.123	21199
861.256	21199
861.388	21237
861.521	21827
861.653	21116
861.786	21066
861.918	21017
862.05	21108
862.183	21123
862.315	21321
862.447	21272
862.58	21176
862.712	20819
862.844	20861
862.976	20914
863.108	20990
863.24	21405
863.372	20861
863.504	21017
863.636	20815
863.768	20975
863.9	20906
864.032	20849
864.164	20895
864.296	21017
864.428	20956
864.559	20944
864.691	21020
864.823	20979
864.954	20765
865.086	20925
865.217	20944
865.349	20743
865.48	20838
865.612	20868
865.743	20864
865.875	20872
866.006	20857
866.137	20819
866.269	20807
866.4	20842
866.531	20823
866.662	20705
866.793	20720
866.924	20861
867.055	20716
867.186	20735
867.317	20762
867.448	20731
867.579	20697
867.71	20629
867.841	20686
867.972	20765
868.103	20693
868.233	20773
868.364	20762
868.495	20899
868.625	20941
868.756	20986
868.886	20823
869.017	21089
869.147	21100
869.278	21161
869.408	20925
869.539	21055
869.669	20979
869.799	20994
869.929	21157
870.06	21081
870.19	21233
870.32	21176
870.45	21374
870.58	21310
870.71	21545
870.84	21454
870.97	21332
871.1	21458
871.23	21583
871.36	21485
871.489	21431
871.619	21496
871.749	21637
871.879	21675
872.008	21694
872.138	21583
872.267	21485
872.397	21389
872.526	21317
872.656	21340
872.785	21485
872.915	21485
873.044	21675
873.173	21675
873.303	21694
873.432	21591
873.561	21728
873.69	21618
873.819	21663
873.948	21812
874.077	21751
874.206	21519
874.335	21515
874.464	21698
874.593	21838
874.722	21823
874.851	21800
874.979	22032
875.108	21774
875.237	21781
875.365	21713
875.494	21823
875.623	21880
875.751	21778
875.88	21934
876.008	21884
876.136	22093
876.265	22219
876.393	22352
876.521	22200
876.65	22333
876.778	22276
876.906	22181
877.034	22105
877.162	22181
877.29	22082
877.418	22158
877.546	22154
877.674	22162
877.802	22223
877.93	22238
878.058	21968
878.185	22078
878.313	22177
878.441	22185
878.568	21876
878.696	22055
878.824	22238
878.951	22303
879.079	22405
879.206	22474
879.333	22246
879.461	22166
879.588	22325
879.715	22272
879.842	22371
879.97	22276
880.097	22017
880.224	21968
880.351	22093
880.478	22074
880.605	21873
880.732	22025
880.859	22215
880.986	22116
881.112	22010
881.239	21808
881.366	21823
881.493	21572
881.619	21625
881.746	21728
881.872	21534
881.999	21504
882.125	21416
882.252	21595
882.378	21549
882.505	21781
882.631	21466
882.757	21332
882.883	21359
883.01	21241
883.136	21150
883.262	21096
883.388	21165
883.514	21199
883.64	21351
883.766	21222
883.892	21020
884.018	21001
884.143	21252
884.269	21344
884.395	21062
884.52	20925
884.646	20792
884.772	20845
884.897	20853
885.023	20921
885.148	20990
885.274	21180
885.399	21020
885.524	20807
885.65	20994
885.775	20979
885.9	20918
886.025	21131
886.15	20956
886.275	20899
886.4	20861
886.525	20857
886.65	20811
886.775	20876
886.9	20921
887.025	21138
887.149	21001
887.274	20815
887.399	20731
887.523	20632
887.648	20697
887.773	20587
887.897	20845
888.021	20834
888.146	20693
888.27	20861
888.395	20807
888.519	20667
888.643	20819
888.767	20682
888.891	20594
889.015	20469
889.139	20587
889.263	20454
889.387	20450
889.511	20606
889.635	20503
889.759	20381
889.883	20465
890.006	20537
890.13	20552
890.254	20358
890.377	20362
890.501	20282
890.624	20153
890.748	20324
890.871	20183
890.995	20008
891.118	19947
891.241	20062
891.364	20161
891.488	20195
891.611	20035
891.734	20031
891.857	20130
891.98	20092
892.103	20176
892.226	20039
892.349	19940
892.471	19814
892.594	19955
892.717	20043
892.839	19928
892.962	19989
893.085	20008
893.207	19917
893.33	19875
893.452	19940
893.575	20069
893.697	19860
893.819	20214
893.941	20027
894.064	20145
894.186	19928
894.308	20012
894.43	20088
894.552	20065
894.674	20111
894.796	19913
894.918	19864
895.04	19898
895.161	19989
895.283	19986
895.405	19982
895.526	19982
895.648	19898
895.769	20058
895.891	20001
896.012	20012
896.134	20111
896.255	19970
896.376	19822
896.498	19826
896.619	19864
896.74	20001
896.861	19993
896.982	20271
897.103	20457
897.224	20195
897.345	20119
897.466	20069
897.587	20134
897.708	20214
897.828	20126
897.949	20107
898.07	20043
898.19	20077
898.311	20237
898.431	20081
898.552	20248
898.672	20282
898.792	20294
898.913	20218
899.033	20039
899.153	19883
899.273	19963
899.393	19967
899.513	20058
899.633	19955
899.753	19970
899.873	19970
899.993	19947
900.113	19909
900.232	19849
900.352	19879
900.472	19822
900.591	19776
900.711	19712
900.83	19605
900.95	19765
901.069	19795
901.189	19738
901.308	19285
901.427	19225
901.546	19293
901.665	19312
901.784	19285
901.904	19141
902.023	19076
902.141	18954
902.26	18913
902.379	18920
902.498	18867
902.617	18681
902.735	18886
902.854	18817
902.973	18897
903.091	18528
903.21	18635
903.328	18566
903.446	18315
903.565	18357
903.683	18319
903.801	18167
903.919	18346
904.038	18361
904.156	18049
904.274	18049
904.392	18057
904.51	18095
904.627	18060
904.745	17942
904.863	18133
904.981	17832
905.098	17722
905.216	17729
905.334	17722
905.451	17752
905.569	17680
905.686	17737
905.803	17695
905.921	17425
906.038	17615
906.155	17501
906.272	17463
906.389	17528
906.506	17303
906.623	17318
906.74	17258
906.857	17288
906.974	17193
907.091	17349
907.208	17376
907.324	17345
907.441	17200
907.557	17048
907.674	17056
907.79	16946
907.907	16847
908.023	17014
908.139	16995
908.256	16995
908.372	16938
908.488	17003
908.604	16778
908.72	16710
908.836	16771
908.952	16698
909.068	16752
909.184	16854
909.3	16778
909.415	16710
909.531	16615
909.647	16455
909.762	16455
909.878	16306
909.993	16459
910.108	16341
910.224	16386
910.339	16382
910.454	16192
910.57	16276
910.685	16101
910.8	16402
910.915	16318
911.03	16314
911.145	16021
911.259	15979
911.374	16067
911.489	15991
911.604	15918
911.718	15762
911.833	15755
911.947	15553
912.062	15580
912.176	15656
912.291	15736
912.405	15812
912.519	15857
912.633	15972
912.748	15907
912.862	15743
912.976	15671
913.09	15416
913.204	15576
913.318	15492
913.431	15705
913.545	15652
913.659	15618
913.772	15606
913.886	15462
914	15359
914.113	15447
914.226	15500
914.34	15504
914.453	15344
914.566	15447
914.68	15222
914.793	15157
914.906	15062
915.019	14929
915.132	14906
915.245	15017
915.358	15032
915.47	15024
915.583	15074
915.696	15058
915.809	15173
915.921	15138
916.034	14998
916.146	14853
916.259	14902
916.371	14952
916.483	14864
916.595	14845
916.708	14815
916.82	14868
916.932	14705
917.044	14773
917.156	14792
917.268	14682
917.38	14613
917.491	14674
917.603	14651
917.715	14617
917.826	14720
917.938	14590
918.049	14476
918.161	14518
918.272	14602
918.384	14655
918.495	14541
918.606	14438
918.717	14309
918.828	14358
918.939	14320
919.05	14263
919.161	14408
919.272	14195
919.383	14294
919.494	14415
919.604	14659
919.715	14427
919.826	14355
919.936	14290
920.047	14408
920.157	14431
920.267	14556
920.378	14427
920.488	14271
920.598	14507
920.708	14762
920.818	14450
920.928	14427
921.038	14720
921.148	14659
921.258	14362
921.368	14172
921.477	14111
921.587	14145
921.697	13928
921.806	14130
921.916	14008
922.025	13734
922.134	13814
922.244	13746
922.353	13803
922.462	13719
922.571	13567
922.68	13438
922.789	13392
922.898	13354
923.007	13289
923.116	13445
923.224	13358
923.333	13407
923.442	13209
923.55	13187
923.659	13171
923.767	13320
923.876	13156
923.984	13251
924.092	13137
924.201	13069
924.309	13160
924.417	13118
924.525	13088
924.633	12985
924.741	13776
924.849	12878
924.956	13023
925.064	12833
925.172	12776
925.279	12871
925.387	12806
925.494	12909
925.602	12985
925.709	12852
925.816	12726
925.924	12802
926.031	12779
926.138	12741
926.245	12787
926.352	12715
926.459	12764
926.566	12798
926.673	12753
926.779	12540
926.886	12688
926.993	12471
927.099	12471
927.206	12292
927.312	12327
927.419	12407
927.525	12399
927.631	12433
927.737	12300
927.843	12220
927.95	12133
928.056	12209
928.162	12243
928.267	12285
928.373	12802
928.479	12289
928.585	12038
928.69	12285
928.796	12190
928.901	12110
929.007	11920
929.112	12015
929.218	11980
929.323	11885
929.428	11882
929.533	12019
929.638	11904
929.743	11863
929.848	11946
929.953	11821
930.058	11726
930.163	11604
930.267	11665
930.372	11745
930.477	11630
930.581	11863
930.685	11714
930.79	11551
930.894	11585
930.998	11490
931.103	11596
931.207	11216
931.311	11216
931.415	11071
931.519	10930
931.623	10843
