Data from test_V78500241_1044.txt Node
Date: Fri Mar 25 15:17:07 CST 2022
User: usil
Spectrometer: V785-0024
Trigger mode: 0
Integration Time (sec): 4.000000E-1
Scans to average: 1
Nonlinearity correction enabled: false
Boxcar width: 0
Storing dark spectrum: false
XAxis mode: Wavelengths
Number of Pixels in Spectrum: 1024
>>>>>Begin Spectral Data<<<<<
801.071	28405
801.214	28398
801.356	28029
801.499	27941
801.641	27850
801.783	27945
801.926	28036
802.068	27899
802.211	27789
802.353	27759
802.496	27679
802.638	27492
802.78	27622
802.923	27614
803.065	27454
803.208	27583
803.35	27603
803.492	27724
803.635	27713
803.777	27762
803.919	27903
804.061	28078
804.204	27930
804.346	27743
804.488	27671
804.63	27705
804.773	27603
804.915	27884
805.057	27914
805.199	27690
805.341	28044
805.483	27937
805.626	27960
805.768	27846
805.91	27869
806.052	27880
806.194	27766
806.336	27979
806.478	27983
806.62	27861
806.762	28120
806.904	28303
807.046	28436
807.188	28371
807.33	28173
807.472	28466
807.614	28226
807.756	28291
807.898	28352
808.04	28150
808.182	28074
808.324	28219
808.465	28306
808.607	28493
808.749	28554
808.891	28672
809.033	28755
809.174	28489
809.316	28573
809.458	28599
809.6	28656
809.741	28615
809.883	28786
810.025	28854
810.166	28896
810.308	28793
810.45	28923
810.591	28710
810.733	28694
810.875	28713
811.016	28481
811.158	28561
811.299	28618
811.441	28771
811.582	28755
811.724	28653
811.865	28668
812.007	28615
812.148	28774
812.29	28759
812.431	28835
812.573	28911
812.714	28965
812.855	29117
812.997	29117
813.138	29353
813.279	29307
813.421	29315
813.562	29159
813.703	29064
813.845	28930
813.986	28554
814.127	28440
814.268	28272
814.41	28322
814.551	28344
814.692	28428
814.833	28230
814.974	28341
815.115	28341
815.256	28276
815.397	28177
815.539	28249
815.68	28162
815.821	28002
815.962	28139
816.103	28185
816.244	27983
816.385	27956
816.526	27880
816.666	27728
816.807	27549
816.948	27823
817.089	27759
817.23	27739
817.371	27701
817.512	27690
817.653	27561
817.793	27591
817.934	27648
818.075	27755
818.216	27785
818.356	27686
818.497	27549
818.638	27408
818.778	27496
818.919	27435
819.06	27378
819.2	27538
819.341	27698
819.481	27595
819.622	27720
819.762	28044
819.903	27854
820.043	27789
820.184	27781
820.324	27663
820.465	27888
820.605	27739
820.746	27819
820.886	27549
821.026	27816
821.167	27701
821.307	27778
821.447	27656
821.588	27534
821.728	27454
821.868	27245
822.008	27241
822.149	27154
822.289	27032
822.429	26838
822.569	26792
822.709	26769
822.849	26571
822.99	26727
823.13	26640
823.27	26507
823.41	26385
823.55	26377
823.69	26495
823.83	26362
823.97	26358
824.11	26305
824.25	26240
824.389	26256
824.529	26370
824.669	26370
824.809	26374
824.949	26404
825.089	26415
825.228	26400
825.368	26286
825.508	26062
825.648	26206
825.787	26138
825.927	26233
826.067	26119
826.206	26195
826.346	26313
826.485	26309
826.625	26134
826.765	26233
826.904	26149
827.044	25932
827.183	25963
827.323	25864
827.462	26054
827.601	25925
827.741	25894
827.88	25871
828.02	25811
828.159	25928
828.298	25936
828.437	25974
828.577	25932
828.716	26043
828.855	25894
828.994	25799
829.134	25651
829.273	25655
829.412	25559
829.551	25704
829.69	25563
829.829	25818
829.968	25662
830.107	25704
830.246	25616
830.385	25529
830.524	25556
830.663	25441
830.802	25369
830.941	25369
831.08	25240
831.219	25308
831.357	25350
831.496	25651
831.635	25312
831.774	25148
831.913	25152
832.051	25000
832.19	25072
832.329	25057
832.467	24894
832.606	24833
832.744	24882
832.883	24970
833.022	24920
833.16	24954
833.299	25065
833.437	24989
833.576	25065
833.714	25084
833.852	25118
833.991	25080
834.129	25053
834.267	25057
834.406	25099
834.544	25088
834.682	25050
834.821	24973
834.959	25137
835.097	24962
835.235	24996
835.373	24989
835.511	24992
835.65	24909
835.788	24825
835.926	24760
836.064	24654
836.202	24734
836.34	24856
836.478	24920
836.615	24665
836.753	24783
836.891	24981
837.029	24878
837.167	24707
837.305	24814
837.443	24715
837.58	24661
837.718	24852
837.856	24734
837.993	24585
838.131	24578
838.269	24601
838.406	24623
838.544	24547
838.681	24342
838.819	24228
838.956	24136
839.094	24098
839.231	24270
839.369	24475
839.506	24505
839.643	24418
839.781	24201
839.918	24224
840.055	24072
840.193	24095
840.33	24121
840.467	24003
840.604	23942
840.742	24357
840.879	23927
841.016	23984
841.153	23946
841.29	24049
841.427	24091
841.564	24095
841.701	24057
841.838	24136
841.975	23954
842.112	23965
842.249	23836
842.385	23851
842.522	23939
842.659	23828
842.796	23802
842.933	23764
843.069	23764
843.206	23874
843.343	23859
843.479	24011
843.616	23809
843.752	23547
843.889	23581
844.025	23668
844.162	23524
844.298	23672
844.435	23554
844.571	23482
844.708	23699
844.844	23756
844.98	23798
845.117	23592
845.253	23406
845.389	23414
845.525	23455
845.661	23452
845.798	23326
845.934	23353
846.07	23265
846.206	23368
846.342	23414
846.478	23345
846.614	23178
846.75	22987
846.886	22904
847.022	23265
847.158	23094
847.294	22984
847.429	23022
847.565	22946
847.701	23277
847.837	22835
847.972	22797
848.108	22797
848.244	22877
848.379	22748
848.515	22599
848.65	22634
848.786	22637
848.921	22729
849.057	22759
849.192	22668
849.328	22748
849.463	22554
849.598	22630
849.734	22573
849.869	22535
850.004	22306
850.14	22569
850.275	22417
850.41	22398
850.545	22405
850.68	22341
850.815	22459
850.95	22538
851.085	22546
851.22	22409
851.355	22440
851.49	22310
851.625	22329
851.76	22204
851.895	22303
852.03	22185
852.165	22390
852.299	22436
852.434	22455
852.569	22474
852.703	22314
852.838	22470
852.973	22664
853.107	22550
853.242	22306
853.376	22150
853.511	22280
853.645	22131
853.78	22318
853.914	22257
854.048	22139
854.183	22188
854.317	22337
854.451	22405
854.585	22211
854.72	22329
854.854	22348
854.988	22238
855.122	22261
855.256	22086
855.39	22337
855.524	22280
855.658	22242
855.792	22257
855.926	22268
856.06	22329
856.194	22219
856.327	22196
856.461	22219
856.595	22196
856.729	22147
856.862	22421
856.996	22360
857.13	22333
857.263	22284
857.397	22284
857.53	22299
857.664	22287
857.797	22249
857.931	22333
858.064	22295
858.197	22413
858.331	22276
858.464	22067
858.597	22135
858.731	22215
858.864	22128
858.997	22219
859.13	22131
859.263	22147
859.396	22291
859.529	22181
859.662	22147
859.795	22154
859.928	22188
860.061	22382
860.194	22421
860.327	22287
860.46	22284
860.592	22402
860.725	22230
860.858	22447
860.99	22173
861.123	22147
861.256	22128
861.388	22257
861.521	22987
861.653	22090
861.786	22044
861.918	22169
862.05	22086
862.183	22105
862.315	22173
862.447	22303
862.58	22074
862.712	21968
862.844	21770
862.976	22112
863.108	21994
863.24	22356
863.372	21819
863.504	22032
863.636	21918
863.768	21892
863.9	21937
864.032	21823
864.164	21903
864.296	22036
864.428	21979
864.559	21934
864.691	22162
864.823	21941
864.954	21892
865.086	21838
865.217	21819
865.349	21751
865.48	21804
865.612	21846
865.743	22006
865.875	21842
866.006	21789
866.137	21819
866.269	21842
866.4	21850
866.531	21800
866.662	21808
866.793	21641
866.924	21728
867.055	21766
867.186	21709
867.317	21663
867.448	21663
867.579	21625
867.71	21633
867.841	21717
867.972	21736
868.103	21660
868.233	21701
868.364	21701
868.495	21888
868.625	21884
868.756	21983
868.886	21926
869.017	21892
869.147	22032
869.278	22021
869.408	21922
869.539	21880
869.669	22029
869.799	22051
869.929	22112
870.06	22124
870.19	22356
870.32	22211
870.45	22188
870.58	22337
870.71	22386
870.84	22485
870.97	22432
871.1	22398
871.23	22542
871.36	22592
871.489	22462
871.619	22455
871.749	22546
871.879	22561
872.008	22565
872.138	22580
872.267	22542
872.397	22500
872.526	22462
872.656	22440
872.785	22466
872.915	22577
873.044	22603
873.173	22504
873.303	22626
873.432	22672
873.561	22607
873.69	22622
873.819	22455
873.948	22607
874.077	22538
874.206	22580
874.335	22497
874.464	22786
874.593	22797
874.722	22721
874.851	22828
874.979	22698
875.108	22843
875.237	22713
875.365	22736
875.494	22767
875.623	22839
875.751	22713
875.88	22835
876.008	22946
876.136	23060
876.265	23132
876.393	23318
876.521	23261
876.65	23356
876.778	23284
876.906	23143
877.034	23094
877.162	23098
877.29	23075
877.418	23128
877.546	23143
877.674	23185
877.802	23044
877.93	23193
878.058	23060
878.185	23090
878.313	22991
878.441	23098
878.568	22991
878.696	23025
878.824	23071
878.951	23151
879.079	23239
879.206	23379
879.333	23303
879.461	23212
879.588	23265
879.715	23341
879.842	23398
879.97	23132
880.097	23048
880.224	22904
880.351	22972
880.478	22965
880.605	22839
880.732	22949
880.859	23143
880.986	23003
881.112	22911
881.239	22778
881.366	22557
881.493	22615
881.619	22493
881.746	22561
881.872	22478
881.999	22303
882.125	22402
882.252	22485
882.378	22306
882.505	22592
882.631	22402
882.757	22268
882.883	22192
883.01	22242
883.136	22192
883.262	22032
883.388	22124
883.514	22124
883.64	22211
883.766	22120
883.892	22074
884.018	22051
884.143	22128
884.269	22185
884.395	21937
884.52	21823
884.646	21797
884.772	21793
884.897	21766
885.023	21857
885.148	21823
885.274	22070
885.399	21930
885.524	21846
885.65	21789
885.775	21823
885.9	21751
886.025	21774
886.15	21857
886.275	21816
886.4	21793
886.525	21778
886.65	21713
886.775	21694
886.9	21911
887.025	22040
887.149	21770
887.274	21648
887.399	21568
887.523	21618
887.648	21515
887.773	21492
887.897	21641
888.021	21587
888.146	21473
888.27	21747
888.395	21583
888.519	21686
888.643	21648
888.767	21625
888.891	21462
889.015	21386
889.139	21355
889.263	21367
889.387	21595
889.511	21568
889.635	21599
889.759	21264
889.883	21454
890.006	21412
890.13	21431
890.254	21313
890.377	21306
890.501	21135
890.624	21058
890.748	21085
890.871	21043
890.995	21005
891.118	20746
891.241	20944
891.364	20910
891.488	21013
891.611	20899
891.734	20902
891.857	20956
891.98	20998
892.103	20990
892.226	20982
892.349	20864
892.471	20758
892.594	20712
892.717	20853
892.839	20735
892.962	20925
893.085	20815
893.207	20815
893.33	20670
893.452	20769
893.575	20788
893.697	20754
893.819	20891
893.941	21028
894.064	20925
894.186	20720
894.308	20598
894.43	20838
894.552	21001
894.674	20895
894.796	20678
894.918	20670
895.04	20811
895.161	20807
895.283	20819
895.405	20777
895.526	20777
895.648	20781
895.769	20773
895.891	20891
896.012	20933
896.134	20887
896.255	20804
896.376	20864
896.498	20781
896.619	20765
896.74	20773
896.861	20811
896.982	21161
897.103	21245
897.224	21108
897.345	20971
897.466	20918
897.587	21013
897.708	21100
897.828	21066
897.949	21047
898.07	20883
898.19	20956
898.311	21096
898.431	20899
898.552	21005
898.672	21131
898.792	21058
898.913	21017
899.033	20921
899.153	20792
899.273	20663
899.393	20720
899.513	20845
899.633	20735
899.753	20823
899.873	20663
899.993	20853
900.113	20686
900.232	20670
900.352	20518
900.472	20495
900.591	20415
900.711	20564
900.83	20564
900.95	20484
901.069	20621
901.189	20473
901.308	20210
901.427	20069
901.546	20005
901.665	20191
901.784	20111
901.904	19875
902.023	19902
902.141	19723
902.26	19582
902.379	19586
902.498	19620
902.617	19495
902.735	19689
902.854	19567
902.973	19483
903.091	19221
903.21	19263
903.328	19198
903.446	19175
903.565	19088
903.683	19084
903.801	18882
903.919	19065
904.038	19004
904.156	18810
904.274	18928
904.392	18772
904.51	18779
904.627	18783
904.745	18840
904.863	18795
904.981	18601
905.098	18467
905.216	18475
905.334	18490
905.451	18494
905.569	18426
905.686	18490
905.803	18426
905.921	18205
906.038	18285
906.155	18308
906.272	18232
906.389	18224
906.506	17973
906.623	17969
906.74	18030
906.857	17870
906.974	17927
907.091	18053
907.208	18144
907.324	18117
907.441	17946
907.557	17802
907.674	17745
907.79	17661
907.907	17710
908.023	17741
908.139	17672
908.256	17585
908.372	17619
908.488	17665
908.604	17402
908.72	17402
908.836	17444
908.952	17311
909.068	17436
909.184	17448
909.3	17467
909.415	17406
909.531	17414
909.647	17299
909.762	17140
909.878	17117
909.993	17174
910.108	17071
910.224	17022
910.339	17090
910.454	17003
910.57	16980
910.685	16866
910.8	17178
910.915	17121
911.03	16949
911.145	16774
911.259	16736
911.374	16736
911.489	16664
911.604	16653
911.718	16451
911.833	16462
911.947	16295
912.062	16329
912.176	16413
912.291	16504
912.405	16367
912.519	16584
912.633	16599
912.748	16436
912.862	16413
912.976	16287
913.09	16128
913.204	16268
913.318	16291
913.431	16348
913.545	16295
913.659	16322
913.772	16238
913.886	16032
914	16029
914.113	16074
914.226	16063
914.34	16078
914.453	15964
914.566	16116
914.68	15968
914.793	15926
914.906	15724
915.019	15584
915.132	15603
915.245	15778
915.358	15698
915.47	15690
915.583	15690
915.696	15709
915.809	15728
915.921	15701
916.034	15599
916.146	15401
916.259	15557
916.371	15701
916.483	15564
916.595	15443
916.708	15443
916.82	15462
916.932	15382
917.044	15405
917.156	15397
917.268	15378
917.38	15294
917.491	15252
917.603	15306
917.715	15389
917.826	15408
917.938	15283
918.049	15135
918.161	15283
918.272	15344
918.384	15355
918.495	15207
918.606	15017
918.717	15055
918.828	15036
918.939	15062
919.05	14948
919.161	15051
919.272	14807
919.383	14853
919.494	15047
919.604	15116
919.715	15047
919.826	14853
919.936	14944
920.047	15020
920.157	14937
920.267	15081
920.378	14998
920.488	14979
920.598	15062
920.708	15237
920.818	15081
920.928	15043
921.038	15211
921.148	15203
921.258	14925
921.368	14990
921.477	14697
921.587	14720
921.697	14602
921.806	14762
921.916	14602
922.025	14446
922.134	14347
922.244	14305
922.353	14400
922.462	14294
922.571	14103
922.68	13955
922.789	14001
922.898	13963
923.007	13921
923.116	13959
923.224	13928
923.333	13963
923.442	13795
923.55	13772
923.659	13708
923.767	13772
923.876	13788
923.984	13769
924.092	13647
924.201	13738
924.309	13651
924.417	13689
924.525	13632
924.633	13670
924.741	14629
924.849	13430
924.956	13480
925.064	13316
925.172	13369
925.279	13392
925.387	13502
925.494	13400
925.602	13453
925.709	13400
925.816	13251
925.924	13316
926.031	13369
926.138	13354
926.245	13354
926.352	13251
926.459	13285
926.566	13362
926.673	13179
926.779	13133
926.886	13080
926.993	12981
927.099	12943
927.206	12814
927.312	12901
927.419	12954
927.525	12901
927.631	12856
927.737	12776
927.843	12711
927.95	12669
928.056	12795
928.162	12673
928.267	12787
928.373	13107
928.479	12700
928.585	12593
928.69	12662
928.796	12711
928.901	12490
929.007	12407
929.112	12589
929.218	12555
929.323	12460
929.428	12460
929.533	12574
929.638	12403
929.743	12483
929.848	12399
929.953	12464
930.058	12258
930.163	12186
930.267	12125
930.372	12289
930.477	12057
930.581	12384
930.685	12072
930.79	11992
930.894	12053
930.998	12007
931.103	12121
931.207	11722
931.311	11657
931.415	11512
931.519	11364
931.623	11410
