Data from test_V78500241_1146.txt Node
Date: Fri Mar 25 15:17:50 CST 2022
User: usil
Spectrometer: V785-0024
Trigger mode: 0
Integration Time (sec): 4.000000E-1
Scans to average: 1
Nonlinearity correction enabled: false
Boxcar width: 0
Storing dark spectrum: false
XAxis mode: Wavelengths
Number of Pixels in Spectrum: 1024
>>>>>Begin Spectral Data<<<<<
801.071	28272
801.214	28032
801.356	27838
801.499	27644
801.641	27545
801.783	27679
801.926	27667
802.068	27682
802.211	27698
802.353	27466
802.496	27329
802.638	27374
802.78	27374
802.923	27317
803.065	27367
803.208	27336
803.35	27355
803.492	27393
803.635	27549
803.777	27370
803.919	27591
804.061	27816
804.204	27492
804.346	27591
804.488	27473
804.63	27492
804.773	27443
804.915	27637
805.057	27568
805.199	27629
805.341	27778
805.483	27610
805.626	27618
805.768	27587
805.91	27568
806.052	27660
806.194	27583
806.336	27953
806.478	27667
806.62	27663
806.762	27838
806.904	27911
807.046	28169
807.188	28185
807.33	28166
807.472	28181
807.614	27949
807.756	27975
807.898	28078
808.04	28021
808.182	27755
808.324	28090
808.465	27949
808.607	28242
808.749	28337
808.891	28443
809.033	28557
809.174	28329
809.316	28363
809.458	28310
809.6	28219
809.741	28325
809.883	28626
810.025	28664
810.166	28516
810.308	28653
810.45	28565
810.591	28462
810.733	28310
810.875	28379
811.016	28200
811.158	28230
811.299	28436
811.441	28440
811.582	28489
811.724	28352
811.865	28337
812.007	28272
812.148	28211
812.29	28542
812.431	28466
812.573	28569
812.714	28683
812.855	28915
812.997	28984
813.138	29140
813.279	29143
813.421	28953
813.562	28980
813.703	28786
813.845	28516
813.986	28173
814.127	28166
814.268	27934
814.41	28040
814.551	27956
814.692	28063
814.833	27892
814.974	27975
815.115	28086
815.256	27838
815.397	27983
815.539	28006
815.68	27922
815.821	27679
815.962	27975
816.103	27850
816.244	27766
816.385	27686
816.526	27675
816.666	27500
816.807	27348
816.948	27427
817.089	27523
817.23	27279
817.371	27466
817.512	27336
817.653	27382
817.793	27260
817.934	27325
818.075	27545
818.216	27256
818.356	27553
818.497	27348
818.638	27093
818.778	27138
818.919	27058
819.06	27074
819.2	27340
819.341	27321
819.481	27447
819.622	27420
819.762	27812
819.903	27618
820.043	27572
820.184	27549
820.324	27378
820.465	27603
820.605	27523
820.746	27466
820.886	27359
821.026	27397
821.167	27427
821.307	27485
821.447	27382
821.588	27405
821.728	27119
821.868	26990
822.008	26727
822.149	26887
822.289	26838
822.429	26663
822.569	26434
822.709	26453
822.849	26355
822.99	26351
823.13	26290
823.27	26229
823.41	26252
823.55	26043
823.69	26172
823.83	26168
823.97	26035
824.11	26058
824.25	25913
824.389	25887
824.529	26065
824.669	26012
824.809	26115
824.949	26187
825.089	26096
825.228	26001
825.368	25845
825.508	25750
825.648	25780
825.787	25875
825.927	25963
826.067	25833
826.206	25765
826.346	25898
826.485	25936
826.625	25845
826.765	25966
826.904	25894
827.044	25746
827.183	25628
827.323	25582
827.462	25620
827.601	25495
827.741	25571
827.88	25529
828.02	25483
828.159	25727
828.298	25575
828.437	25651
828.577	25548
828.716	25750
828.855	25514
828.994	25350
829.134	25354
829.273	25324
829.412	25259
829.551	25350
829.69	25255
829.829	25525
829.968	25373
830.107	25358
830.246	25308
830.385	25118
830.524	25396
830.663	24943
830.802	25069
830.941	25031
831.08	24909
831.219	25057
831.357	25023
831.496	25171
831.635	24905
831.774	24856
831.913	24977
832.051	24837
832.19	24875
832.329	24776
832.467	24650
832.606	24563
832.744	24631
832.883	24635
833.022	24604
833.16	24555
833.299	24585
833.437	24593
833.576	24745
833.714	24620
833.852	24688
833.991	24779
834.129	24779
834.267	24547
834.406	24574
834.544	24681
834.682	24738
834.821	24620
834.959	24966
835.097	24627
835.235	24791
835.373	24650
835.511	24757
835.65	24551
835.788	24502
835.926	24308
836.064	24410
836.202	24433
836.34	24593
836.478	24525
836.615	24505
836.753	24448
836.891	24547
837.029	24585
837.167	24525
837.305	24445
837.443	24319
837.58	24399
837.718	24418
837.856	24429
837.993	24270
838.131	24292
838.269	24270
838.406	24270
838.544	24220
838.681	24110
838.819	23977
838.956	23832
839.094	23870
839.231	23950
839.369	23843
839.506	24171
839.643	24133
839.781	23748
839.918	23741
840.055	23813
840.193	23783
840.33	23760
840.467	23718
840.604	23908
840.742	24007
840.879	23718
841.016	23619
841.153	23783
841.29	23790
841.427	23741
841.564	23764
841.701	23703
841.838	23695
841.975	23581
842.112	23611
842.249	23497
842.385	23436
842.522	23752
842.659	23554
842.796	23528
842.933	23516
843.069	23459
843.206	23402
843.343	23611
843.479	23379
843.616	23421
843.752	23277
843.889	23307
844.025	23433
844.162	23341
844.298	23372
844.435	23288
844.571	23220
844.708	23402
844.844	23376
844.98	23353
845.117	23341
845.253	23223
845.389	23113
845.525	23128
845.661	23079
845.798	23090
845.934	23067
846.07	23105
846.206	23056
846.342	23033
846.478	23037
846.614	22869
846.75	22645
846.886	22774
847.022	22710
847.158	22687
847.294	22828
847.429	22896
847.565	22691
847.701	22843
847.837	22428
847.972	22341
848.108	22527
848.244	22565
848.379	22474
848.515	22268
848.65	22253
848.786	22211
848.921	22318
849.057	22462
849.192	22367
849.328	22455
849.463	22280
849.598	22177
849.734	22226
849.869	22173
850.004	22101
850.14	22150
850.275	22181
850.41	22021
850.545	22021
850.68	22051
850.815	22109
850.95	22097
851.085	22337
851.22	22291
851.355	22029
851.49	22059
851.625	21998
851.76	22021
851.895	22040
852.03	22006
852.165	22078
852.299	22074
852.434	22131
852.569	22169
852.703	22070
852.838	22112
852.973	22246
853.107	22101
853.242	22147
853.376	21915
853.511	21789
853.645	21739
853.78	21941
853.914	21937
854.048	21850
854.183	21827
854.317	22048
854.451	22013
854.585	21873
854.72	21838
854.854	22017
854.988	21865
855.122	21857
855.256	21808
855.39	21861
855.524	21854
855.658	22040
855.792	21846
855.926	21892
856.06	21922
856.194	22112
856.327	21865
856.461	21975
856.595	21869
856.729	22006
856.862	21930
856.996	21888
857.13	21907
857.263	22101
857.397	22013
857.53	21911
857.664	21960
857.797	22006
857.931	21983
858.064	21903
858.197	22025
858.331	21930
858.464	21880
858.597	21762
858.731	21873
858.864	21876
858.997	21827
859.13	21876
859.263	21968
859.396	21975
859.529	21907
859.662	21884
859.795	21903
859.928	21945
860.061	21922
860.194	22150
860.327	21994
860.46	21941
860.592	22105
860.725	22040
860.858	22090
860.99	21911
861.123	21918
861.256	21937
861.388	21880
861.521	22736
861.653	21774
861.786	21762
861.918	21728
862.05	21854
862.183	21743
862.315	21835
862.447	21892
862.58	21713
862.712	21694
862.844	21701
862.976	21576
863.108	21728
863.24	22032
863.372	21622
863.504	21671
863.636	21473
863.768	21682
863.9	21625
864.032	21526
864.164	21656
864.296	21595
864.428	21705
864.559	21720
864.691	21747
864.823	21530
864.954	21701
865.086	21572
865.217	21523
865.349	21416
865.48	21511
865.612	21511
865.743	21675
865.875	21545
866.006	21477
866.137	21557
866.269	21405
866.4	21462
866.531	21507
866.662	21454
866.793	21412
866.924	21485
867.055	21378
867.186	21401
867.317	21363
867.448	21393
867.579	21321
867.71	21237
867.841	21351
867.972	21443
868.103	21367
868.233	21603
868.364	21481
868.495	21625
868.625	21561
868.756	21781
868.886	21469
869.017	21656
869.147	21728
869.278	21713
869.408	21663
869.539	21705
869.669	21633
869.799	21781
869.929	21869
870.06	21739
870.19	21926
870.32	21945
870.45	21972
870.58	22120
870.71	22211
870.84	22158
870.97	22131
871.1	22048
871.23	22188
871.36	22230
871.489	22234
871.619	22124
871.749	22192
871.879	22188
872.008	22440
872.138	22303
872.267	22306
872.397	22128
872.526	21998
872.656	22097
872.785	22093
872.915	22120
873.044	22306
873.173	22257
873.303	22367
873.432	22344
873.561	22405
873.69	22371
873.819	22223
873.948	22314
874.077	22242
874.206	22223
874.335	22341
874.464	22451
874.593	22474
874.722	22405
874.851	22432
874.979	22535
875.108	22580
875.237	22481
875.365	22333
875.494	22405
875.623	22645
875.751	22489
875.88	22550
876.008	22546
876.136	22653
876.265	22831
876.393	22927
876.521	22866
876.65	23006
876.778	22904
876.906	22797
877.034	22793
877.162	22831
877.29	22858
877.418	22809
877.546	22820
877.674	22805
877.802	22885
877.93	22847
878.058	22721
878.185	22771
878.313	22862
878.441	22778
878.568	22516
878.696	22812
878.824	22919
878.951	22911
879.079	22976
879.206	23041
879.333	23044
879.461	22866
879.588	23025
879.715	22908
879.842	23090
879.97	22938
880.097	22710
880.224	22618
880.351	22778
880.478	22710
880.605	22580
880.732	22618
880.859	22889
880.986	22706
881.112	22611
881.239	22535
881.366	22352
881.493	22295
881.619	22276
881.746	22120
881.872	22177
881.999	22177
882.125	22120
882.252	22295
882.378	22276
882.505	22306
882.631	22093
882.757	21854
882.883	21975
883.01	21964
883.136	21972
883.262	21816
883.388	21743
883.514	21979
883.64	21903
883.766	21838
883.892	21660
884.018	21663
884.143	21888
884.269	21922
884.395	21606
884.52	21633
884.646	21492
884.772	21511
884.897	21534
885.023	21557
885.148	21614
885.274	21633
885.399	21698
885.524	21500
885.65	21622
885.775	21701
885.9	21412
886.025	21625
886.15	21690
886.275	21378
886.4	21431
886.525	21496
886.65	21454
886.775	21561
886.9	21690
887.025	21686
887.149	21534
887.274	21332
887.399	21378
887.523	21291
887.648	21218
887.773	21123
887.897	21389
888.021	21348
888.146	21245
888.27	21473
888.395	21367
888.519	21485
888.643	21218
888.767	21351
888.891	21313
889.015	21184
889.139	21062
889.263	21176
889.387	21249
889.511	21325
889.635	21222
889.759	21051
889.883	21028
890.006	21176
890.13	21218
890.254	21039
890.377	20990
890.501	20853
890.624	20861
890.748	20925
890.871	20758
890.995	20701
891.118	20594
891.241	20693
891.364	20648
891.488	20967
891.611	20678
891.734	20701
891.857	20830
891.98	20804
892.103	20663
892.226	20731
892.349	20644
892.471	20556
892.594	20541
892.717	20632
892.839	20648
892.962	20686
893.085	20739
893.207	20613
893.33	20476
893.452	20549
893.575	20583
893.697	20495
893.819	20636
893.941	20804
894.064	20785
894.186	20640
894.308	20484
894.43	20632
894.552	20716
894.674	20617
894.796	20533
894.918	20590
895.04	20629
895.161	20571
895.283	20629
895.405	20434
895.526	20587
895.648	20648
895.769	20533
895.891	20644
896.012	20625
896.134	20712
896.255	20598
896.376	20511
896.498	20606
896.619	20609
896.74	20560
896.861	20644
896.982	20853
897.103	21093
897.224	20853
897.345	20861
897.466	20674
897.587	20842
897.708	20967
897.828	20845
897.949	20693
898.07	20533
898.19	20712
898.311	20796
898.431	20697
898.552	20682
898.672	20857
898.792	20777
898.913	20864
899.033	20499
899.153	20602
899.273	20518
899.393	20625
899.513	20613
899.633	20549
899.753	20602
899.873	20530
899.993	20590
900.113	20404
900.232	20454
900.352	20480
900.472	20290
900.591	20332
900.711	20328
900.83	20275
900.95	20389
901.069	20457
901.189	20210
901.308	20027
901.427	19978
901.546	19845
901.665	19841
901.784	19852
901.904	19776
902.023	19693
902.141	19518
902.26	19438
902.379	19483
902.498	19373
902.617	19377
902.735	19457
902.854	19392
902.973	19282
903.091	19038
903.21	19046
903.328	18935
903.446	18943
903.565	18848
903.683	18886
903.801	18741
903.919	18871
904.038	18810
904.156	18631
904.274	18768
904.392	18574
904.51	18448
904.627	18616
904.745	18715
904.863	18612
904.981	18388
905.098	18270
905.216	18273
905.334	18346
905.451	18357
905.569	18258
905.686	18281
905.803	18289
905.921	18045
906.038	18277
906.155	18106
906.272	18007
906.389	18022
906.506	17786
906.623	17828
906.74	17718
906.857	17699
906.974	17733
907.091	17821
907.208	17965
907.324	17874
907.441	17642
907.557	17551
907.674	17505
907.79	17417
907.907	17600
908.023	17512
908.139	17524
908.256	17391
908.372	17379
908.488	17364
908.604	17250
908.72	17265
908.836	17170
908.952	17178
909.068	17360
909.184	17318
909.3	17239
909.415	17258
909.531	17212
909.647	17071
909.762	16961
909.878	16946
909.993	16953
910.108	16991
910.224	16999
910.339	16839
910.454	16812
910.57	16812
910.685	16596
910.8	16896
910.915	16976
911.03	16706
911.145	16451
911.259	16455
911.374	16599
911.489	16436
911.604	16474
911.718	16257
911.833	16230
911.947	16200
912.062	16181
912.176	16299
912.291	16226
912.405	16219
912.519	16390
912.633	16421
912.748	16257
912.862	16253
912.976	16219
913.09	16086
913.204	16071
913.318	16078
913.431	16131
913.545	16090
913.659	16192
913.772	16162
913.886	16063
914	15945
914.113	15949
914.226	15953
914.34	15892
914.453	15778
914.566	15937
914.68	15793
914.793	15747
914.906	15515
915.019	15564
915.132	15500
915.245	15439
915.358	15561
915.47	15462
915.583	15458
915.696	15496
915.809	15603
915.921	15580
916.034	15386
916.146	15473
916.259	15405
916.371	15405
916.483	15405
916.595	15374
916.708	15325
916.82	15291
916.932	15283
917.044	15203
917.156	15192
917.268	15157
917.38	15157
917.491	15150
917.603	15089
917.715	15150
917.826	15138
917.938	15051
918.049	14925
918.161	14998
918.272	15081
918.384	15100
918.495	15020
918.606	14918
918.717	14807
918.828	14895
918.939	14933
919.05	14743
919.161	14944
919.272	14682
919.383	14754
919.494	14811
919.604	15169
919.715	14777
919.826	14708
919.936	14819
920.047	14899
920.157	14781
920.267	14982
920.378	14864
920.488	14769
920.598	15032
920.708	15108
920.818	14971
920.928	14906
921.038	15055
921.148	15032
921.258	14792
921.368	14613
921.477	14583
921.587	14469
921.697	14469
921.806	14503
921.916	14438
922.025	14218
922.134	14161
922.244	14149
922.353	14142
922.462	14157
922.571	14062
922.68	13898
922.789	13898
922.898	13803
923.007	13776
923.116	13890
923.224	13814
923.333	13864
923.442	13613
923.55	13666
923.659	13708
923.767	13712
923.876	13575
923.984	13677
924.092	13533
924.201	13540
924.309	13571
924.417	13552
924.525	13495
924.633	13559
924.741	14415
924.849	13289
924.956	13434
925.064	13270
925.172	13209
925.279	13301
925.387	13244
925.494	13179
925.602	13331
925.709	13297
925.816	13099
925.924	13072
926.031	13255
926.138	13221
926.245	13278
926.352	13099
926.459	13206
926.566	13175
926.673	13053
926.779	13012
926.886	12935
926.993	12806
927.099	12817
927.206	12757
927.312	12719
927.419	12863
927.525	12734
927.631	12772
927.737	12627
927.843	12570
927.95	12475
928.056	12608
928.162	12616
928.267	12688
928.373	13221
928.479	12696
928.585	12551
928.69	12635
928.796	12555
928.901	12486
929.007	12296
929.112	12407
929.218	12395
929.323	12353
929.428	12289
929.533	12407
929.638	12247
929.743	12205
929.848	12426
929.953	12235
930.058	12209
930.163	12011
930.267	11973
930.372	12053
930.477	11954
930.581	12167
930.685	12133
930.79	11878
930.894	11931
930.998	11855
931.103	11958
931.207	11615
931.311	11627
931.415	11459
931.519	11280
931.623	11349
