Data from test_V78500241_3540.txt Node
Date: Fri Mar 25 15:34:30 CST 2022
User: usil
Spectrometer: V785-0024
Trigger mode: 0
Integration Time (sec): 4.000000E-1
Scans to average: 1
Nonlinearity correction enabled: false
Boxcar width: 0
Storing dark spectrum: false
XAxis mode: Wavelengths
Number of Pixels in Spectrum: 1024
>>>>>Begin Spectral Data<<<<<
801.071	27142
801.214	27135
801.356	26872
801.499	26868
801.641	26785
801.783	26773
801.926	26933
802.068	26845
802.211	26682
802.353	26541
802.496	26499
802.638	26507
802.78	26290
802.923	26252
803.065	26324
803.208	26415
803.35	26480
803.492	26594
803.635	26632
803.777	26446
803.919	26552
804.061	26845
804.204	26701
804.346	26423
804.488	26446
804.63	26514
804.773	26587
804.915	26552
805.057	26716
805.199	26571
805.341	26705
805.483	26655
805.626	26781
805.768	26560
805.91	26583
806.052	26651
806.194	26640
806.336	26800
806.478	26648
806.62	26644
806.762	26750
806.904	26921
807.046	27108
807.188	27119
807.33	26963
807.472	27081
807.614	27108
807.756	27062
807.898	26872
808.04	26990
808.182	26891
808.324	26891
808.465	26921
808.607	27161
808.749	27291
808.891	27363
809.033	27367
809.174	27382
809.316	27245
809.458	27142
809.6	27096
809.741	27435
809.883	27488
810.025	27507
810.166	27496
810.308	27526
810.45	27477
810.591	27553
810.733	27321
810.875	27306
811.016	27070
811.158	27252
811.299	27382
811.441	27298
811.582	27450
811.724	27233
811.865	27272
812.007	27150
812.148	27226
812.29	27348
812.431	27420
812.573	27614
812.714	27751
812.855	27751
812.997	27835
813.138	27983
813.279	27808
813.421	27819
813.562	27774
813.703	27564
813.845	27553
813.986	27195
814.127	27055
814.268	26872
814.41	26998
814.551	26960
814.692	26956
814.833	26895
814.974	26838
815.115	26948
815.256	26724
815.397	26777
815.539	26918
815.68	26609
815.821	26511
815.962	26746
816.103	26648
816.244	26598
816.385	26347
816.526	26400
816.666	26301
816.807	26244
816.948	26210
817.089	26172
817.23	26206
817.371	26164
817.512	26134
817.653	26119
817.793	26020
817.934	26058
818.075	26069
818.216	26168
818.356	26081
818.497	25947
818.638	25944
818.778	25845
818.919	25966
819.06	25887
819.2	26016
819.341	26168
819.481	26119
819.622	26305
819.762	26495
819.903	26434
820.043	26214
820.184	26278
820.324	26233
820.465	26324
820.605	26301
820.746	26309
820.886	26149
821.026	26317
821.167	26259
821.307	26240
821.447	26161
821.588	26043
821.728	25868
821.868	25674
822.008	25616
822.149	25761
822.289	25616
822.429	25365
822.569	25297
822.709	25362
822.849	25304
822.99	25099
823.13	25110
823.27	25034
823.41	25008
823.55	24776
823.69	24951
823.83	25076
823.97	24913
824.11	24863
824.25	24722
824.389	24688
824.529	24897
824.669	24700
824.809	25015
824.949	24810
825.089	24757
825.228	24795
825.368	24616
825.508	24597
825.648	24635
825.787	24745
825.927	24684
826.067	24623
826.206	24757
826.346	24753
826.485	24719
826.625	24620
826.765	24753
826.904	24722
827.044	24403
827.183	24429
827.323	24342
827.462	24369
827.601	24395
827.741	24365
827.88	24350
828.02	24053
828.159	24380
828.298	24350
828.437	24338
828.577	24243
828.716	24410
828.855	24277
828.994	24152
829.134	24133
829.273	24140
829.412	24007
829.551	24015
829.69	24011
829.829	23961
829.968	24155
830.107	24087
830.246	24053
830.385	24095
830.524	24015
830.663	23885
830.802	23836
830.941	23714
831.08	23623
831.219	23794
831.357	23866
831.496	23840
831.635	23779
831.774	23608
831.913	23596
832.051	23482
832.19	23539
832.329	23554
832.467	23372
832.606	23349
832.744	23440
832.883	23356
833.022	23364
833.16	23410
833.299	23505
833.437	23425
833.576	23497
833.714	23539
833.852	23558
833.991	23531
834.129	23551
834.267	23592
834.406	23471
834.544	23558
834.682	23554
834.821	23414
834.959	23592
835.097	23250
835.235	23501
835.373	23395
835.511	23383
835.65	23242
835.788	23284
835.926	23185
836.064	23117
836.202	23143
836.34	23239
836.478	23326
836.615	23307
836.753	23254
836.891	23383
837.029	23383
837.167	23132
837.305	23159
837.443	23185
837.58	23083
837.718	23147
837.856	23181
837.993	23094
838.131	23204
838.269	23067
838.406	23029
838.544	22957
838.681	22782
838.819	22858
838.956	22668
839.094	22672
839.231	22653
839.369	22858
839.506	23079
839.643	22843
839.781	22596
839.918	22603
840.055	22725
840.193	22588
840.33	22584
840.467	22481
840.604	22660
840.742	22854
840.879	22379
841.016	22596
841.153	22462
841.29	22656
841.427	22516
841.564	22584
841.701	22569
841.838	22573
841.975	22470
842.112	22424
842.249	22489
842.385	22337
842.522	22466
842.659	22466
842.796	22413
842.933	22333
843.069	22223
843.206	22310
843.343	22344
843.479	22356
843.616	22341
843.752	22135
843.889	22143
844.025	22238
844.162	22139
844.298	22211
844.435	22234
844.571	22147
844.708	22226
844.844	22242
844.98	22242
845.117	22192
845.253	22078
845.389	21991
845.525	21960
845.661	21964
845.798	21888
845.934	21903
846.07	21842
846.206	21842
846.342	21968
846.478	21827
846.614	21663
846.75	21545
846.886	21492
847.022	21660
847.158	21606
847.294	21504
847.429	21599
847.565	21553
847.701	21819
847.837	21363
847.972	21291
848.108	21424
848.244	21310
848.379	21264
848.515	21138
848.65	21123
848.786	21150
848.921	21146
849.057	21188
849.192	21237
849.328	21161
849.463	21176
849.598	21127
849.734	21085
849.869	20982
850.004	20952
850.14	20929
850.275	21001
850.41	20853
850.545	20925
850.68	20876
850.815	20986
850.95	20937
851.085	21074
851.22	21039
851.355	20902
851.49	20895
851.625	20838
851.76	20861
851.895	20914
852.03	20819
852.165	20929
852.299	20925
852.434	20990
852.569	20998
852.703	20921
852.838	21013
852.973	20910
853.107	20933
853.242	20739
853.376	20864
853.511	20670
853.645	20724
853.78	20895
853.914	20777
854.048	20777
854.183	20746
854.317	20811
854.451	21062
854.585	20868
854.72	20625
854.854	20796
854.988	20682
855.122	20781
855.256	20602
855.39	20826
855.524	20883
855.658	20872
855.792	20807
855.926	20838
856.06	20769
856.194	20861
856.327	20602
856.461	20651
856.595	20807
856.729	20731
856.862	20845
856.996	20800
857.13	20746
857.263	20895
857.397	20902
857.53	20788
857.664	20845
857.797	20845
857.931	20777
858.064	20864
858.197	20811
858.331	20758
858.464	20617
858.597	20663
858.731	20708
858.864	20769
858.997	20739
859.13	20651
859.263	20716
859.396	21013
859.529	20705
859.662	20838
859.795	20651
859.928	20861
860.061	20925
860.194	20941
860.327	20800
860.46	20819
860.592	20899
860.725	20990
860.858	20811
860.99	20716
861.123	20571
861.256	20678
861.388	20777
861.521	21572
861.653	20670
861.786	20587
861.918	20636
862.05	20670
862.183	20587
862.315	20693
862.447	20769
862.58	20720
862.712	20499
862.844	20438
862.976	20552
863.108	20606
863.24	20834
863.372	20499
863.504	20526
863.636	20415
863.768	20423
863.9	20552
864.032	20442
864.164	20400
864.296	20507
864.428	20480
864.559	20579
864.691	20568
864.823	20556
864.954	20522
865.086	20503
865.217	20389
865.349	20332
865.48	20393
865.612	20389
865.743	20393
865.875	20309
866.006	20343
866.137	20389
866.269	20374
866.4	20187
866.531	20244
866.662	20195
866.793	20343
866.924	20278
867.055	20332
867.186	20404
867.317	20225
867.448	20206
867.579	20294
867.71	20248
867.841	20313
867.972	20370
868.103	20218
868.233	20374
868.364	20278
868.495	20492
868.625	20499
868.756	20644
868.886	20537
869.017	20495
869.147	20621
869.278	20564
869.408	20514
869.539	20556
869.669	20674
869.799	20602
869.929	20640
870.06	20724
870.19	20853
870.32	20769
870.45	20868
870.58	20967
870.71	21127
870.84	21108
870.97	20826
871.1	20979
871.23	21203
871.36	21173
871.489	21013
871.619	21093
871.749	21077
871.879	21184
872.008	21317
872.138	21317
872.267	21157
872.397	21116
872.526	21055
872.656	21009
872.785	21123
872.915	21199
873.044	21313
873.173	21294
873.303	21176
873.432	21260
873.561	21119
873.69	21226
873.819	21260
873.948	21291
874.077	21199
874.206	21093
874.335	21188
874.464	21306
874.593	21420
874.722	21386
874.851	21355
874.979	21397
875.108	21412
875.237	21435
875.365	21332
875.494	21515
875.623	21363
875.751	21450
875.88	21416
876.008	21599
876.136	21656
876.265	21789
876.393	22021
876.521	21915
876.65	21838
876.778	21762
876.906	21835
877.034	21793
877.162	21850
877.29	21808
877.418	21774
877.546	21781
877.674	21819
877.802	21720
877.93	21823
878.058	21835
878.185	21667
878.313	21698
878.441	21751
878.568	21587
878.696	21755
878.824	21861
878.951	21808
879.079	21983
879.206	21953
879.333	21975
879.461	21888
879.588	21884
879.715	21972
879.842	22090
879.97	21922
880.097	21686
880.224	21610
880.351	21694
880.478	21667
880.605	21515
880.732	21679
880.859	21876
880.986	21667
881.112	21656
881.239	21504
881.366	21260
881.493	21214
881.619	21214
881.746	21241
881.872	21157
881.999	21199
882.125	21032
882.252	21245
882.378	21104
882.505	21287
882.631	21028
882.757	20979
882.883	21070
883.01	20902
883.136	20781
883.262	20807
883.388	20769
883.514	20933
883.64	20895
883.766	20838
883.892	20708
884.018	20701
884.143	20883
884.269	20971
884.395	20670
884.52	20594
884.646	20629
884.772	20564
884.897	20404
885.023	20541
885.148	20708
885.274	20697
885.399	20663
885.524	20583
885.65	20556
885.775	20492
885.9	20530
886.025	20667
886.15	20708
886.275	20552
886.4	20339
886.525	20412
886.65	20655
886.775	20480
886.9	20727
887.025	20716
887.149	20629
887.274	20404
887.399	20393
887.523	20309
887.648	20164
887.773	20199
887.897	20298
888.021	20377
888.146	20320
888.27	20309
888.395	20358
888.519	20343
888.643	20423
888.767	20419
888.891	20218
889.015	20180
889.139	20119
889.263	20130
889.387	20199
889.511	20317
889.635	20214
889.759	20191
889.883	20115
890.006	20008
890.13	20119
890.254	20164
890.377	19932
890.501	19936
890.624	19818
890.748	20046
890.871	19841
890.995	19685
891.118	19643
891.241	19719
891.364	19693
891.488	19799
891.611	19715
891.734	19761
891.857	19830
891.98	19693
892.103	19731
892.226	19837
892.349	19571
892.471	19495
892.594	19578
892.717	19662
892.839	19616
892.962	19502
893.085	19700
893.207	19548
893.33	19487
893.452	19567
893.575	19719
893.697	19556
893.819	19849
893.941	19826
894.064	19765
894.186	19472
894.308	19552
894.43	19757
894.552	19750
894.674	19750
894.796	19506
894.918	19696
895.04	19605
895.161	19708
895.283	19635
895.405	19529
895.526	19613
895.648	19605
895.769	19677
895.891	19601
896.012	19651
896.134	19586
896.255	19681
896.376	19647
896.498	19597
896.619	19655
896.74	19700
896.861	19651
896.982	19913
897.103	20054
897.224	19856
897.345	19955
897.466	19837
897.587	19898
897.708	20107
897.828	19864
897.949	19719
898.07	19586
898.19	19674
898.311	19909
898.431	19833
898.552	19845
898.672	19913
898.792	19837
898.913	19845
899.033	19738
899.153	19761
899.273	19597
899.393	19616
899.513	19666
899.633	19590
899.753	19632
899.873	19502
899.993	19571
900.113	19445
900.232	19601
900.352	19480
900.472	19441
900.591	19339
900.711	19339
900.83	19403
900.95	19510
901.069	19510
901.189	19350
901.308	19004
901.427	19053
901.546	19027
901.665	18951
901.784	19034
901.904	18867
902.023	18772
902.141	18585
902.26	18528
902.379	18528
902.498	18471
902.617	18494
902.735	18528
902.854	18570
902.973	18353
903.091	18235
903.21	18201
903.328	18182
903.446	18049
903.565	17935
903.683	18011
903.801	17855
903.919	18007
904.038	17939
904.156	17745
904.274	17893
904.392	17764
904.51	17745
904.627	17737
904.745	17779
904.863	17847
904.981	17608
905.098	17330
905.216	17512
905.334	17387
905.451	17395
905.569	17406
905.686	17414
905.803	17368
905.921	17292
906.038	17345
906.155	17250
906.272	17189
906.389	17193
906.506	17071
906.623	17041
906.74	17003
906.857	16793
906.974	16923
907.091	17037
907.208	17056
907.324	16999
907.441	16892
907.557	16664
907.674	16683
907.79	16615
907.907	16725
908.023	16721
908.139	16771
908.256	16641
908.372	16615
908.488	16508
908.604	16455
908.72	16367
908.836	16432
908.952	16375
909.068	16516
909.184	16478
909.3	16485
909.415	16527
909.531	16500
909.647	16276
909.762	16169
909.878	16215
909.993	16150
910.108	16101
910.224	16044
910.339	16078
910.454	15994
910.57	15991
910.685	15770
910.8	16074
910.915	16040
911.03	15926
911.145	15736
911.259	15694
911.374	15698
911.489	15568
911.604	15641
911.718	15462
911.833	15534
911.947	15340
912.062	15340
912.176	15466
912.291	15595
912.405	15515
912.519	15732
912.633	15610
912.748	15477
912.862	15511
912.976	15279
913.09	15245
913.204	15283
913.318	15378
913.431	15454
913.545	15374
913.659	15416
913.772	15306
913.886	15157
914	15169
914.113	15173
914.226	15241
914.34	15089
914.453	15009
914.566	15138
914.68	14944
914.793	14925
914.906	14785
915.019	14743
915.132	14674
915.245	14678
915.358	14731
915.47	14731
915.583	14826
915.696	14705
915.809	14838
915.921	14876
916.034	14670
916.146	14731
916.259	14648
916.371	14667
916.483	14705
916.595	14564
916.708	14602
916.82	14648
916.932	14625
917.044	14533
917.156	14530
917.268	14366
917.38	14514
917.491	14415
917.603	14362
917.715	14419
917.826	14434
917.938	14320
918.049	14195
918.161	14320
918.272	14507
918.384	14408
918.495	14301
918.606	14199
918.717	14149
918.828	14180
918.939	14229
919.05	14050
919.161	14183
919.272	13982
919.383	13970
919.494	14195
919.604	14336
919.715	14157
919.826	14008
919.936	14084
920.047	14202
920.157	14210
920.267	14328
920.378	14107
920.488	14107
920.598	14294
920.708	14438
920.818	14267
920.928	14256
921.038	14438
921.148	14347
921.258	14100
921.368	13989
921.477	13944
921.587	13856
921.697	13746
921.806	13898
921.916	13738
922.025	13628
922.134	13578
922.244	13502
922.353	13670
922.462	13480
922.571	13453
922.68	13217
922.789	13171
922.898	13149
923.007	13072
923.116	13145
923.224	13228
923.333	13179
923.442	13050
923.55	12981
923.659	13072
923.767	13179
923.876	12920
923.984	12962
924.092	12939
924.201	12924
924.309	12932
924.417	12905
924.525	12806
924.633	12878
924.741	13636
924.849	12772
924.956	12753
925.064	12707
925.172	12544
925.279	12608
925.387	12593
925.494	12559
925.602	12707
925.709	12623
925.816	12498
925.924	12585
926.031	12696
926.138	12570
926.245	12582
926.352	12490
926.459	12688
926.566	12623
926.673	12585
926.779	12399
926.886	12395
926.993	12209
927.099	12114
927.206	12072
927.312	12110
927.419	12262
927.525	12140
927.631	12262
927.737	12133
927.843	12068
927.95	11885
928.056	11927
928.162	12045
928.267	12098
928.373	12547
928.479	12011
928.585	11866
928.69	11984
928.796	12083
928.901	11923
929.007	11794
929.112	11946
929.218	11764
929.323	11824
929.428	11688
929.533	11939
929.638	11752
929.743	11684
929.848	11703
929.953	11729
930.058	11608
930.163	11482
930.267	11463
930.372	11615
930.477	11334
930.581	11604
930.685	11482
930.79	11334
930.894	11406
930.998	11341
931.103	11395
931.207	11079
931.311	10946
931.415	10976
931.519	10835
931.623	10687
