Data from test_V78500241_3478.txt Node
Date: Fri Mar 25 15:34:04 CST 2022
User: usil
Spectrometer: V785-0024
Trigger mode: 0
Integration Time (sec): 4.000000E-1
Scans to average: 1
Nonlinearity correction enabled: false
Boxcar width: 0
Storing dark spectrum: false
XAxis mode: Wavelengths
Number of Pixels in Spectrum: 1024
>>>>>Begin Spectral Data<<<<<
801.071	27332
801.214	27329
801.356	27058
801.499	27051
801.641	26868
801.783	26853
801.926	26701
802.068	26845
802.211	26857
802.353	26636
802.496	26545
802.638	26507
802.78	26381
802.923	26526
803.065	26427
803.208	26476
803.35	26450
803.492	26602
803.635	26606
803.777	26644
803.919	26750
804.061	27039
804.204	26625
804.346	26590
804.488	26750
804.63	26644
804.773	26522
804.915	26682
805.057	26693
805.199	26560
805.341	26655
805.483	26712
805.626	26727
805.768	26708
805.91	26659
806.052	26678
806.194	26727
806.336	26952
806.478	26765
806.62	26792
806.762	26868
806.904	26998
807.046	27332
807.188	27188
807.33	27055
807.472	27024
807.614	27051
807.756	27108
807.898	26986
808.04	26929
808.182	26891
808.324	26975
808.465	27066
808.607	27123
808.749	27321
808.891	27329
809.033	27370
809.174	27469
809.316	27378
809.458	27329
809.6	27291
809.741	27439
809.883	27416
810.025	27667
810.166	27774
810.308	27713
810.45	27553
810.591	27603
810.733	27298
810.875	27344
811.016	27241
811.158	27203
811.299	27401
811.441	27481
811.582	27549
811.724	27344
811.865	27264
812.007	27389
812.148	27492
812.29	27367
812.431	27344
812.573	27625
812.714	27599
812.855	27793
812.997	27835
813.138	27953
813.279	27854
813.421	27865
813.562	27827
813.703	27595
813.845	27344
813.986	27359
814.127	27131
814.268	26937
814.41	27009
814.551	26952
814.692	27104
814.833	26910
814.974	26861
815.115	26952
815.256	26762
815.397	26842
815.539	26845
815.68	26823
815.821	26807
815.962	26765
816.103	26644
816.244	26686
816.385	26492
816.526	26507
816.666	26320
816.807	26237
816.948	26328
817.089	26473
817.23	26290
817.371	26183
817.512	26271
817.653	26214
817.793	26115
817.934	26298
818.075	26278
818.216	26187
818.356	26256
818.497	26111
818.638	25913
818.778	25955
818.919	25883
819.06	26016
819.2	26210
819.341	26290
819.481	26267
819.622	26415
819.762	26549
819.903	26583
820.043	26404
820.184	26465
820.324	26240
820.465	26374
820.605	26393
820.746	26301
820.886	26263
821.026	26476
821.167	26237
821.307	26286
821.447	26149
821.588	26214
821.728	26012
821.868	25784
822.008	25761
822.149	25761
822.289	25677
822.429	25563
822.569	25308
822.709	25434
822.849	25339
822.99	25015
823.13	25160
823.27	25175
823.41	24947
823.55	24795
823.69	25110
823.83	25076
823.97	24970
824.11	24806
824.25	24753
824.389	24951
824.529	24821
824.669	24897
824.809	24935
824.949	24928
825.089	24939
825.228	24935
825.368	24677
825.508	24574
825.648	24760
825.787	24730
825.927	24829
826.067	24776
826.206	24547
826.346	24776
826.485	24745
826.625	24738
826.765	24795
826.904	24745
827.044	24585
827.183	24509
827.323	24319
827.462	24467
827.601	24437
827.741	24448
827.88	24563
828.02	24235
828.159	24319
828.298	24426
828.437	24456
828.577	24315
828.716	24479
828.855	24357
828.994	24190
829.134	24079
829.273	24095
829.412	24049
829.551	24155
829.69	24129
829.829	24239
829.968	24174
830.107	24220
830.246	24167
830.385	24068
830.524	24064
830.663	23923
830.802	23843
830.941	23840
831.08	23638
831.219	23779
831.357	23893
831.496	24007
831.635	23710
831.774	23687
831.913	23638
832.051	23627
832.19	23551
832.329	23478
832.467	23509
832.606	23425
832.744	23269
832.883	23463
833.022	23414
833.16	23440
833.299	23417
833.437	23368
833.576	23566
833.714	23531
833.852	23516
833.991	23699
834.129	23577
834.267	23554
834.406	23691
834.544	23512
834.682	23444
834.821	23543
834.959	23710
835.097	23471
835.235	23562
835.373	23573
835.511	23512
835.65	23334
835.788	23330
835.926	23227
836.064	23071
836.202	23117
836.34	23315
836.478	23337
836.615	23349
836.753	23220
836.891	23326
837.029	23311
837.167	23383
837.305	23197
837.443	23151
837.58	23121
837.718	23356
837.856	23227
837.993	23242
838.131	23216
838.269	23128
838.406	23128
838.544	23117
838.681	22869
838.819	22847
838.956	22649
839.094	22706
839.231	22873
839.369	22809
839.506	23090
839.643	22904
839.781	22763
839.918	22637
840.055	22649
840.193	22767
840.33	22611
840.467	22546
840.604	22694
840.742	22877
840.879	22615
841.016	22489
841.153	22462
841.29	22672
841.427	22683
841.564	22702
841.701	22584
841.838	22607
841.975	22497
842.112	22440
842.249	22466
842.385	22344
842.522	22596
842.659	22516
842.796	22440
842.933	22478
843.069	22261
843.206	22219
843.343	22504
843.479	22375
843.616	22447
843.752	22101
843.889	22200
844.025	22363
844.162	22086
844.298	22325
844.435	22105
844.571	22192
844.708	22223
844.844	22242
844.98	22356
845.117	22265
845.253	22105
845.389	21979
845.525	22105
845.661	21987
845.798	21819
845.934	21964
846.07	21838
846.206	22025
846.342	22048
846.478	21941
846.614	21701
846.75	21709
846.886	21610
847.022	21755
847.158	21625
847.294	21667
847.429	21606
847.565	21496
847.701	21964
847.837	21462
847.972	21450
848.108	21412
848.244	21469
848.379	21237
848.515	21184
848.65	21287
848.786	21135
848.921	21264
849.057	21161
849.192	21237
849.328	21275
849.463	21169
849.598	21207
849.734	21211
849.869	21131
850.004	20990
850.14	21055
850.275	20906
850.41	20948
850.545	21051
850.68	20880
850.815	21055
850.95	21116
851.085	21119
851.22	21085
851.355	20982
851.49	20941
851.625	20952
851.76	20963
851.895	20982
852.03	21024
852.165	20986
852.299	21131
852.434	21047
852.569	21081
852.703	20998
852.838	20998
852.973	21089
853.107	21226
853.242	20986
853.376	20960
853.511	20708
853.645	20750
853.78	20982
853.914	20785
854.048	20796
854.183	20861
854.317	20838
854.451	21070
854.585	20849
854.72	20765
854.854	20975
854.988	20781
855.122	20845
855.256	20705
855.39	20781
855.524	20914
855.658	20921
855.792	20872
855.926	20804
856.06	20819
856.194	20785
856.327	20807
856.461	20845
856.595	20781
856.729	20819
856.862	20902
856.996	20845
857.13	20960
857.263	20902
857.397	20876
857.53	20800
857.664	20853
857.797	20804
857.931	20872
858.064	20815
858.197	20933
858.331	20792
858.464	20815
858.597	20590
858.731	20769
858.864	20872
858.997	20781
859.13	20876
859.263	20838
859.396	20785
859.529	20686
859.662	20765
859.795	20826
859.928	20872
860.061	20990
860.194	21020
860.327	20861
860.46	20864
860.592	20876
860.725	20982
860.858	20963
860.99	20830
861.123	20796
861.256	20765
861.388	20891
861.521	21534
861.653	20686
861.786	20564
861.918	20644
862.05	20796
862.183	20689
862.315	20739
862.447	20883
862.58	20746
862.712	20511
862.844	20556
862.976	20746
863.108	20594
863.24	20941
863.372	20537
863.504	20549
863.636	20594
863.768	20564
863.9	20465
864.032	20480
864.164	20454
864.296	20587
864.428	20693
864.559	20625
864.691	20533
864.823	20480
864.954	20526
865.086	20454
865.217	20492
865.349	20275
865.48	20374
865.612	20469
865.743	20579
865.875	20495
866.006	20370
866.137	20457
866.269	20431
866.4	20400
866.531	20473
866.662	20309
866.793	20370
866.924	20412
867.055	20434
867.186	20412
867.317	20362
867.448	20343
867.579	20381
867.71	20282
867.841	20183
867.972	20484
868.103	20389
868.233	20351
868.364	20259
868.495	20552
868.625	20579
868.756	20609
868.886	20651
869.017	20735
869.147	20667
869.278	20724
869.408	20651
869.539	20708
869.669	20765
869.799	20693
869.929	20743
870.06	20811
870.19	20956
870.32	20921
870.45	21009
870.58	21024
870.71	21131
870.84	21135
870.97	20960
871.1	20975
871.23	21119
871.36	21188
871.489	21184
871.619	21230
871.749	21192
871.879	21329
872.008	21370
872.138	21329
872.267	21256
872.397	21104
872.526	20963
872.656	21017
872.785	21127
872.915	21211
873.044	21348
873.173	21184
873.303	21287
873.432	21283
873.561	21268
873.69	21218
873.819	21226
873.948	21351
874.077	21154
874.206	21283
874.335	21218
874.464	21386
874.593	21542
874.722	21412
874.851	21530
874.979	21591
875.108	21511
875.237	21606
875.365	21481
875.494	21511
875.623	21591
875.751	21481
875.88	21507
876.008	21679
876.136	21633
876.265	21842
876.393	21941
876.521	21998
876.65	22044
876.778	21903
876.906	21770
877.034	21804
877.162	21819
877.29	21755
877.418	21964
877.546	21873
877.674	21816
877.802	21895
877.93	21823
878.058	21720
878.185	21827
878.313	21755
878.441	21781
878.568	21587
878.696	21739
878.824	21751
878.951	22013
879.079	21941
879.206	22246
879.333	21991
879.461	21865
879.588	21941
879.715	22002
879.842	22131
879.97	21979
880.097	21713
880.224	21728
880.351	21728
880.478	21724
880.605	21641
880.732	21641
880.859	21907
880.986	21633
881.112	21751
881.239	21576
881.366	21355
881.493	21298
881.619	21416
881.746	21317
881.872	21264
881.999	21252
882.125	21226
882.252	21256
882.378	21184
882.505	21443
882.631	21104
882.757	20979
882.883	20979
883.01	20975
883.136	20804
883.262	20918
883.388	20735
883.514	21009
883.64	21017
883.766	20868
883.892	20712
884.018	20845
884.143	20914
884.269	20960
884.395	20686
884.52	20632
884.646	20602
884.772	20499
884.897	20552
885.023	20731
885.148	20651
885.274	20777
885.399	20594
885.524	20655
885.65	20556
885.775	20579
885.9	20533
886.025	20708
886.15	20648
886.275	20545
886.4	20438
886.525	20537
886.65	20492
886.775	20556
886.9	20606
887.025	20750
887.149	20568
887.274	20492
887.399	20473
887.523	20336
887.648	20271
887.773	20218
887.897	20347
888.021	20465
888.146	20278
888.27	20514
888.395	20552
888.519	20457
888.643	20336
888.767	20332
888.891	20332
889.015	20172
889.139	20225
889.263	20176
889.387	20317
889.511	20347
889.635	20412
889.759	20195
889.883	20164
890.006	20153
890.13	20309
890.254	20134
890.377	20107
890.501	19993
890.624	19890
890.748	19963
890.871	19791
890.995	19814
891.118	19738
891.241	19788
891.364	19849
891.488	19879
891.611	19765
891.734	19769
891.857	19772
891.98	19811
892.103	19875
892.226	19887
892.349	19620
892.471	19559
892.594	19799
892.717	19746
892.839	19624
892.962	19563
893.085	19849
893.207	19681
893.33	19578
893.452	19582
893.575	19738
893.697	19696
893.819	19822
893.941	19868
894.064	19814
894.186	19681
894.308	19590
894.43	19761
894.552	19799
894.674	19700
894.796	19643
894.918	19632
895.04	19647
895.161	19799
895.283	19791
895.405	19632
895.526	19723
895.648	19590
895.769	19658
895.891	19772
896.012	19761
896.134	19719
896.255	19689
896.376	19632
896.498	19723
896.619	19590
896.74	19693
896.861	19578
896.982	20050
897.103	20187
897.224	19932
897.345	19932
897.466	19902
897.587	19841
897.708	20039
897.828	19978
897.949	19826
898.07	19753
898.19	19849
898.311	20027
898.431	19864
898.552	19894
898.672	20001
898.792	20027
898.913	19902
899.033	19887
899.153	19746
899.273	19601
899.393	19689
899.513	19586
899.633	19712
899.753	19693
899.873	19738
899.993	19765
900.113	19731
900.232	19548
900.352	19590
900.472	19453
900.591	19476
900.711	19518
900.83	19377
900.95	19533
901.069	19518
901.189	19346
901.308	19053
901.427	18970
901.546	19000
901.665	19027
901.784	19168
901.904	18760
902.023	18798
902.141	18673
902.26	18532
902.379	18528
902.498	18631
902.617	18456
902.735	18734
902.854	18593
902.973	18471
903.091	18136
903.21	18186
903.328	18289
903.446	18155
903.565	18034
903.683	18034
903.801	17889
903.919	17950
904.038	17969
904.156	17802
904.274	17904
904.392	17722
904.51	17733
904.627	17775
904.745	17878
904.863	17863
904.981	17687
905.098	17630
905.216	17539
905.334	17379
905.451	17448
905.569	17330
905.686	17547
905.803	17490
905.921	17200
906.038	17315
906.155	17181
906.272	17151
906.389	17121
906.506	17025
906.623	16919
906.74	17006
906.857	16831
906.974	16965
907.091	17102
907.208	17147
907.324	16999
907.441	16995
907.557	16828
907.674	16664
907.79	16694
907.907	16721
908.023	16733
908.139	16733
908.256	16729
908.372	16649
908.488	16634
908.604	16466
908.72	16565
908.836	16508
908.952	16329
909.068	16516
909.184	16599
909.3	16432
909.415	16474
909.531	16432
909.647	16230
909.762	16230
909.878	16185
909.993	16150
910.108	16147
910.224	16105
910.339	16105
910.454	15994
910.57	15915
910.685	15903
910.8	16207
910.915	16154
911.03	15907
911.145	15770
911.259	15736
911.374	15793
911.489	15648
911.604	15637
911.718	15622
911.833	15542
911.947	15488
912.062	15401
912.176	15538
912.291	15557
912.405	15610
912.519	15667
912.633	15732
912.748	15557
912.862	15458
912.976	15416
913.09	15268
913.204	15279
913.318	15348
913.431	15462
913.545	15313
913.659	15435
913.772	15321
913.886	15192
914	15192
914.113	15169
914.226	15233
914.34	15214
914.453	15036
914.566	15226
914.68	15036
914.793	14986
914.906	14735
915.019	14842
915.132	14686
915.245	14674
915.358	14807
915.47	14682
915.583	14689
915.696	14750
915.809	14929
915.921	14853
916.034	14769
916.146	14648
916.259	14731
916.371	14815
916.483	14731
916.595	14613
916.708	14499
916.82	14640
916.932	14621
917.044	14560
917.156	14511
917.268	14377
917.38	14423
917.491	14351
917.603	14400
917.715	14465
917.826	14549
917.938	14370
918.049	14328
918.161	14431
918.272	14503
918.384	14552
918.495	14408
918.606	14259
918.717	14161
918.828	14256
918.939	14206
919.05	14103
919.161	14123
919.272	13932
919.383	14043
919.494	14286
919.604	14343
919.715	14180
919.826	14077
919.936	14191
920.047	14225
920.157	14229
920.267	14374
920.378	14180
920.488	14069
920.598	14385
920.708	14419
920.818	14336
920.928	14355
921.038	14408
921.148	14362
921.258	14206
921.368	14081
921.477	13986
921.587	13959
921.697	13742
921.806	13909
921.916	13803
922.025	13529
922.134	13537
922.244	13548
922.353	13590
922.462	13464
922.571	13438
922.68	13236
922.789	13217
922.898	13259
923.007	13175
923.116	13244
923.224	13168
923.333	13133
923.442	13019
923.55	12951
923.659	13012
923.767	13103
923.876	12970
923.984	13145
924.092	12920
924.201	13004
924.309	12943
924.417	12916
924.525	12973
924.633	12909
924.741	13655
924.849	12639
924.956	12802
925.064	12681
925.172	12627
925.279	12650
925.387	12612
925.494	12650
925.602	12783
925.709	12688
925.816	12601
925.924	12597
926.031	12623
926.138	12517
926.245	12551
926.352	12525
926.459	12646
926.566	12673
926.673	12464
926.779	12460
926.886	12395
926.993	12247
927.099	12334
927.206	12235
927.312	12155
927.419	12281
927.525	12353
927.631	12220
927.737	12155
927.843	12114
927.95	12068
928.056	12022
928.162	12030
928.267	12057
928.373	12540
928.479	12076
928.585	11870
928.69	12045
928.796	12083
928.901	11832
929.007	11688
929.112	11927
929.218	11897
929.323	11745
929.428	11817
929.533	11908
929.638	11752
929.743	11809
929.848	11680
929.953	11729
930.058	11665
930.163	11429
930.267	11482
930.372	11665
930.477	11414
930.581	11611
930.685	11516
930.79	11391
930.894	11387
930.998	11292
931.103	11474
931.207	11105
931.311	11083
931.415	11003
931.519	10790
931.623	10706
