Data from test_V78500241_1966.txt Node
Date: Fri Mar 25 15:23:32 CST 2022
User: usil
Spectrometer: V785-0024
Trigger mode: 0
Integration Time (sec): 4.000000E-1
Scans to average: 1
Nonlinearity correction enabled: false
Boxcar width: 0
Storing dark spectrum: false
XAxis mode: Wavelengths
Number of Pixels in Spectrum: 1024
>>>>>Begin Spectral Data<<<<<
801.071	27892
801.214	27618
801.356	27504
801.499	27214
801.641	27279
801.783	27302
801.926	27287
802.068	27203
802.211	27272
802.353	27104
802.496	26956
802.638	27058
802.78	26940
802.923	26914
803.065	26800
803.208	26819
803.35	26902
803.492	27081
803.635	27211
803.777	27066
803.919	27199
804.061	27370
804.204	27157
804.346	26967
804.488	27024
804.63	27058
804.773	27108
804.915	27062
805.057	27108
805.199	26998
805.341	27142
805.483	27351
805.626	27332
805.768	27104
805.91	27230
806.052	27245
806.194	27233
806.336	27492
806.478	27279
806.62	27291
806.762	27416
806.904	27443
807.046	27648
807.188	27671
807.33	27709
807.472	27667
807.614	27530
807.756	27580
807.898	27492
808.04	27504
808.182	27477
808.324	27545
808.465	27637
808.607	27732
808.749	27781
808.891	27937
809.033	28128
809.174	27979
809.316	27831
809.458	27728
809.6	27876
809.741	28002
809.883	27922
810.025	28181
810.166	28356
810.308	28173
810.45	28032
810.591	28128
810.733	27888
810.875	27914
811.016	27827
811.158	27720
811.299	27934
811.441	27998
811.582	27922
811.724	27854
811.865	27880
812.007	27770
812.148	27850
812.29	27842
812.431	28025
812.573	28226
812.714	28310
812.855	28291
812.997	28386
813.138	28668
813.279	28481
813.421	28390
813.562	28230
813.703	28059
813.845	28029
813.986	27785
814.127	27675
814.268	27572
814.41	27755
814.551	27553
814.692	27603
814.833	27545
814.974	27526
815.115	27466
815.256	27458
815.397	27427
815.539	27485
815.68	27374
815.821	27424
815.962	27466
816.103	27393
816.244	27150
816.385	27161
816.526	26956
816.666	26914
816.807	26773
816.948	26921
817.089	26880
817.23	26845
817.371	26800
817.512	26876
817.653	26864
817.793	26727
817.934	26880
818.075	26895
818.216	26792
818.356	26918
818.497	26724
818.638	26541
818.778	26590
818.919	26587
819.06	26598
819.2	26686
819.341	26857
819.481	26807
819.622	26902
819.762	27108
819.903	27119
820.043	27093
820.184	27047
820.324	26868
820.465	26952
820.605	26849
820.746	26864
820.886	26815
821.026	26880
821.167	26868
821.307	26948
821.447	26933
821.588	26693
821.728	26617
821.868	26465
822.008	26370
822.149	26469
822.289	26305
822.429	26073
822.569	26031
822.709	25974
822.849	25685
822.99	25852
823.13	25791
823.27	25871
823.41	25674
823.55	25624
823.69	25731
823.83	25757
823.97	25559
824.11	25400
824.25	25426
824.389	25369
824.529	25518
824.669	25453
824.809	25632
824.949	25415
825.089	25571
825.228	25563
825.368	25232
825.508	25255
825.648	25301
825.787	25213
825.927	25441
826.067	25270
826.206	25285
826.346	25270
826.485	25221
826.625	25289
826.765	25312
826.904	25400
827.044	25168
827.183	25069
827.323	24973
827.462	25095
827.601	25099
827.741	25084
827.88	24981
828.02	24935
828.159	25038
828.298	24954
828.437	24989
828.577	24916
828.716	25019
828.855	24814
828.994	24745
829.134	24760
829.273	24715
829.412	24772
829.551	24604
829.69	24779
829.829	24875
829.968	24875
830.107	24787
830.246	24665
830.385	24601
830.524	24616
830.663	24661
830.802	24475
830.941	24418
831.08	24369
831.219	24334
831.357	24308
831.496	24544
831.635	24407
831.774	24323
831.913	24304
832.051	24228
832.19	24300
832.329	24186
832.467	24140
832.606	23965
832.744	23999
832.883	24117
833.022	23916
833.16	24041
833.299	24003
833.437	24140
833.576	24083
833.714	24220
833.852	24148
833.991	24098
834.129	24152
834.267	24155
834.406	24167
834.544	24095
834.682	24174
834.821	24083
834.959	24254
835.097	24106
835.235	24110
835.373	24136
835.511	24098
835.65	23977
835.788	24072
835.926	23843
836.064	23726
836.202	23794
836.34	23996
836.478	24190
836.615	23882
836.753	23908
836.891	23923
837.029	23965
837.167	23904
837.305	23901
837.443	23657
837.58	23836
837.718	23870
837.856	23878
837.993	23604
838.131	23680
838.269	23676
838.406	23821
838.544	23581
838.681	23444
838.819	23433
838.956	23258
839.094	23250
839.231	23311
839.369	23395
839.506	23611
839.643	23448
839.781	23402
839.918	23170
840.055	23299
840.193	23178
840.33	23220
840.467	23220
840.604	23159
840.742	23307
840.879	23048
841.016	22972
841.153	23044
841.29	23284
841.427	23162
841.564	23170
841.701	23094
841.838	23022
841.975	23147
842.112	23102
842.249	22957
842.385	22965
842.522	23029
842.659	22987
842.796	22869
842.933	22904
843.069	22805
843.206	22793
843.343	22839
843.479	22946
843.616	22892
843.752	22687
843.889	22744
844.025	22816
844.162	22694
844.298	22809
844.435	22710
844.571	22622
844.708	22748
844.844	22927
844.98	22915
845.117	22835
845.253	22691
845.389	22531
845.525	22702
845.661	22569
845.798	22394
845.934	22409
846.07	22390
846.206	22500
846.342	22618
846.478	22565
846.614	22299
846.75	22185
846.886	22135
847.022	22257
847.158	22188
847.294	22253
847.429	22181
847.565	22246
847.701	22284
847.837	21949
847.972	21915
848.108	22055
848.244	21998
848.379	21797
848.515	21743
848.65	21656
848.786	21698
848.921	21739
849.057	21861
849.192	21854
849.328	21759
849.463	21625
849.598	21690
849.734	21679
849.869	21523
850.004	21545
850.14	21500
850.275	21496
850.41	21374
850.545	21447
850.68	21466
850.815	21549
850.95	21534
851.085	21686
851.22	21523
851.355	21530
851.49	21348
851.625	21450
851.76	21523
851.895	21477
852.03	21507
852.165	21519
852.299	21504
852.434	21629
852.569	21504
852.703	21496
852.838	21583
852.973	21515
853.107	21591
853.242	21549
853.376	21378
853.511	21226
853.645	21329
853.78	21488
853.914	21340
854.048	21332
854.183	21283
854.317	21302
854.451	21534
854.585	21359
854.72	21370
854.854	21310
854.988	21222
855.122	21260
855.256	21142
855.39	21405
855.524	21473
855.658	21435
855.792	21348
855.926	21325
856.06	21344
856.194	21370
856.327	21291
856.461	21233
856.595	21336
856.729	21310
856.862	21439
856.996	21367
857.13	21310
857.263	21397
857.397	21393
857.53	21374
857.664	21279
857.797	21374
857.931	21408
858.064	21401
858.197	21363
858.331	21313
858.464	21294
858.597	21123
858.731	21389
858.864	21249
858.997	21287
859.13	21329
859.263	21351
859.396	21458
859.529	21344
859.662	21283
859.795	21252
859.928	21329
860.061	21534
860.194	21580
860.327	21363
860.46	21443
860.592	21389
860.725	21519
860.858	21443
860.99	21336
861.123	21230
861.256	21230
861.388	21321
861.521	21983
861.653	21180
861.786	21165
861.918	21100
862.05	21180
862.183	21173
862.315	21176
862.447	21363
862.58	21256
862.712	21001
862.844	21032
862.976	21055
863.108	21074
863.24	21492
863.372	21112
863.504	21005
863.636	21055
863.768	21135
863.9	21005
864.032	20937
864.164	21009
864.296	21077
864.428	21127
864.559	21058
864.691	21077
864.823	21146
864.954	21036
865.086	20998
865.217	20941
865.349	20842
865.48	20849
865.612	21039
865.743	21055
865.875	20887
866.006	20883
866.137	20891
866.269	20880
866.4	20937
866.531	20895
866.662	20944
866.793	20777
866.924	20769
867.055	20914
867.186	20861
867.317	20864
867.448	20727
867.579	20910
867.71	20724
867.841	20689
867.972	20914
868.103	20777
868.233	20994
868.364	20811
868.495	20819
868.625	21058
868.756	21272
868.886	21039
869.017	21165
869.147	21195
869.278	21218
869.408	21096
869.539	21207
869.669	21233
869.799	21203
869.929	21340
870.06	21157
870.19	21443
870.32	21435
870.45	21488
870.58	21488
870.71	21515
870.84	21671
870.97	21408
871.1	21576
871.23	21595
871.36	21743
871.489	21618
871.619	21557
871.749	21785
871.879	21663
872.008	21819
872.138	21842
872.267	21682
872.397	21561
872.526	21481
872.656	21557
872.785	21595
872.915	21717
873.044	21747
873.173	21747
873.303	21671
873.432	21865
873.561	21819
873.69	21736
873.819	21629
873.948	21736
874.077	21705
874.206	21663
874.335	21679
874.464	21785
874.593	21975
874.722	21869
874.851	22010
874.979	22032
875.108	22036
875.237	21926
875.365	21762
875.494	21930
875.623	21998
875.751	21812
875.88	22017
876.008	22188
876.136	22040
876.265	22466
876.393	22584
876.521	22436
876.65	22443
876.778	22417
876.906	22344
877.034	22333
877.162	22318
877.29	22196
877.418	22219
877.546	22284
877.674	22303
877.802	22261
877.93	22204
878.058	22257
878.185	22200
878.313	22204
878.441	22272
878.568	22139
878.696	22196
878.824	22280
878.951	22280
879.079	22512
879.206	22592
879.333	22478
879.461	22261
879.588	22371
879.715	22481
879.842	22580
879.97	22390
880.097	22188
880.224	22177
880.351	22185
880.478	22097
880.605	22029
880.732	22147
880.859	22272
880.986	22158
881.112	22070
881.239	22010
881.366	21766
881.493	21835
881.619	21736
881.746	21610
881.872	21842
881.999	21587
882.125	21652
882.252	21694
882.378	21656
882.505	21736
882.631	21610
882.757	21401
882.883	21507
883.01	21306
883.136	21355
883.262	21336
883.388	21184
883.514	21332
883.64	21458
883.766	21321
883.892	21108
884.018	21176
884.143	21351
884.269	21336
884.395	21184
884.52	21112
884.646	21085
884.772	21055
884.897	20868
885.023	21013
885.148	21135
885.274	21165
885.399	21142
885.524	20956
885.65	21096
885.775	21252
885.9	21001
886.025	21226
886.15	21131
886.275	21096
886.4	20880
886.525	21081
886.65	20941
886.775	20971
886.9	21066
887.025	21325
887.149	20998
887.274	20811
887.399	20716
887.523	20910
887.648	20655
887.773	20777
887.897	20933
888.021	20864
888.146	20819
888.27	20963
888.395	20849
888.519	20849
888.643	20765
888.767	20777
888.891	20663
889.015	20575
889.139	20686
889.263	20659
889.387	20663
889.511	20807
889.635	20845
889.759	20689
889.883	20606
890.006	20663
890.13	20674
890.254	20461
890.377	20526
890.501	20507
890.624	20191
890.748	20298
890.871	20305
890.995	20191
891.118	20035
891.241	20210
891.364	20172
891.488	20358
891.611	20229
891.734	20206
891.857	20157
891.98	20218
892.103	20081
892.226	20252
892.349	20081
892.471	20035
892.594	20126
892.717	20073
892.839	20164
892.962	20035
893.085	20130
893.207	20126
893.33	19947
893.452	20088
893.575	20073
893.697	20027
893.819	20199
893.941	20290
894.064	20218
894.186	20111
894.308	19932
894.43	20119
894.552	20229
894.674	20210
894.796	19986
894.918	19993
895.04	20096
895.161	20202
895.283	20081
895.405	20005
895.526	20107
895.648	20058
895.769	20012
895.891	20050
896.012	20172
896.134	20130
896.255	20027
896.376	20107
896.498	20081
896.619	20202
896.74	20043
896.861	20138
896.982	20389
897.103	20488
897.224	20366
897.345	20263
897.466	20187
897.587	20343
897.708	20423
897.828	20408
897.949	20244
898.07	20065
898.19	20225
898.311	20415
898.431	20237
898.552	20168
898.672	20267
898.792	20396
898.913	20358
899.033	20237
899.153	20126
899.273	19947
899.393	20069
899.513	20100
899.633	20050
899.753	20176
899.873	19989
899.993	20046
900.113	19932
900.232	20039
900.352	19982
900.472	19906
900.591	19750
900.711	19833
900.83	19674
900.95	19879
901.069	19807
901.189	19582
901.308	19537
901.427	19339
901.546	19388
901.665	19327
901.784	19483
901.904	19316
902.023	19179
902.141	18966
902.26	19012
902.379	18909
902.498	18913
902.617	19000
902.735	18897
902.854	18795
902.973	18787
903.091	18627
903.21	18623
903.328	18669
903.446	18506
903.565	18418
903.683	18330
903.801	18266
903.919	18281
904.038	18422
904.156	18171
904.274	18239
904.392	18136
904.51	18190
904.627	18144
904.745	18133
904.863	18254
904.981	17923
905.098	17836
905.216	17889
905.334	17927
905.451	17836
905.569	17809
905.686	17893
905.803	17824
905.921	17691
906.038	17672
906.155	17589
906.272	17505
906.389	17532
906.506	17471
906.623	17421
906.74	17322
906.857	17200
906.974	17299
907.091	17444
907.208	17356
907.324	17478
907.441	17277
907.557	17109
907.674	17067
907.79	16965
907.907	17014
908.023	17079
908.139	17014
908.256	16938
908.372	16961
908.488	17029
908.604	16866
908.72	16702
908.836	16850
908.952	16729
909.068	16790
909.184	16968
909.3	16744
909.415	16793
909.531	16740
909.647	16577
909.762	16630
909.878	16527
909.993	16554
910.108	16527
910.224	16489
910.339	16462
910.454	16455
910.57	16329
910.685	16325
910.8	16531
910.915	16508
911.03	16348
911.145	16242
911.259	16158
911.374	16059
911.489	15953
911.604	16032
911.718	15835
911.833	15816
911.947	15698
912.062	15709
912.176	15903
912.291	15907
912.405	15762
912.519	15983
912.633	16059
912.748	15873
912.862	15823
912.976	15591
913.09	15542
913.204	15698
913.318	15751
913.431	15755
913.545	15713
913.659	15679
913.772	15625
913.886	15504
914	15473
914.113	15507
914.226	15637
914.34	15557
914.453	15294
914.566	15477
914.68	15389
914.793	15275
914.906	15123
915.019	15154
915.132	14960
915.245	15085
915.358	15112
915.47	15116
915.583	15062
915.696	15157
915.809	15184
915.921	15116
916.034	15066
916.146	14979
916.259	15047
916.371	15062
916.483	14994
916.595	14910
916.708	14918
916.82	14883
916.932	14811
917.044	14826
917.156	14853
917.268	14762
917.38	14769
917.491	14708
917.603	14746
917.715	14727
917.826	14796
917.938	14590
918.049	14579
918.161	14697
918.272	14712
918.384	14807
918.495	14617
918.606	14476
918.717	14419
918.828	14461
918.939	14533
919.05	14362
919.161	14488
919.272	14309
919.383	14244
919.494	14438
919.604	14629
919.715	14495
919.826	14366
919.936	14427
920.047	14495
920.157	14400
920.267	14545
920.378	14495
920.488	14419
920.598	14648
920.708	14746
920.818	14495
920.928	14495
921.038	14815
921.148	14651
921.258	14434
921.368	14290
921.477	14115
921.587	14107
921.697	14103
921.806	14191
921.916	14020
922.025	13936
922.134	13795
922.244	13738
922.353	13909
922.462	13742
922.571	13613
922.68	13518
922.789	13495
922.898	13487
923.007	13411
923.116	13499
923.224	13445
923.333	13388
923.442	13263
923.55	13312
923.659	13373
923.767	13365
923.876	13289
923.984	13308
924.092	13209
924.201	13247
924.309	13247
924.417	13259
924.525	13126
924.633	13152
924.741	13936
924.849	12973
924.956	13133
925.064	12897
925.172	12768
925.279	12829
925.387	12920
925.494	12848
925.602	13012
925.709	12981
925.816	12768
925.924	12848
926.031	12905
926.138	12829
926.245	12909
926.352	12741
926.459	12844
926.566	12951
926.673	12787
926.779	12669
926.886	12627
926.993	12490
927.099	12494
927.206	12388
927.312	12414
927.419	12490
927.525	12388
927.631	12456
927.737	12365
927.843	12266
927.95	12205
928.056	12327
928.162	12403
928.267	12330
928.373	12924
928.479	12357
928.585	12186
928.69	12270
928.796	12342
928.901	12076
929.007	11954
929.112	12190
929.218	12026
929.323	12019
929.428	12064
929.533	12197
929.638	11939
929.743	11984
929.848	11950
929.953	11984
930.058	11809
930.163	11653
930.267	11707
930.372	11809
930.477	11733
930.581	11824
930.685	11726
930.79	11623
930.894	11554
930.998	11562
931.103	11710
931.207	11372
931.311	11288
931.415	11128
931.519	11048
931.623	10961
