Data from test_V78500241_843.txt Node
Date: Fri Mar 25 15:15:43 CST 2022
User: usil
Spectrometer: V785-0024
Trigger mode: 0
Integration Time (sec): 4.000000E-1
Scans to average: 1
Nonlinearity correction enabled: false
Boxcar width: 0
Storing dark spectrum: false
XAxis mode: Wavelengths
Number of Pixels in Spectrum: 1024
>>>>>Begin Spectral Data<<<<<
801.071	28276
801.214	28299
801.356	28021
801.499	28040
801.641	27766
801.783	27778
801.926	27827
802.068	27827
802.211	27572
802.353	27450
802.496	27576
802.638	27427
802.78	27534
802.923	27462
803.065	27458
803.208	27477
803.35	27477
803.492	27549
803.635	27698
803.777	27523
803.919	27625
804.061	28055
804.204	27618
804.346	27739
804.488	27542
804.63	27606
804.773	27580
804.915	27739
805.057	27865
805.199	27736
805.341	27819
805.483	27743
805.626	28029
805.768	27800
805.91	27918
806.052	27869
806.194	27755
806.336	27964
806.478	27892
806.62	28013
806.762	27964
806.904	28200
807.046	28352
807.188	28234
807.33	28234
807.472	28409
807.614	28188
807.756	28284
807.898	28310
808.04	28143
808.182	28242
808.324	28150
808.465	28158
808.607	28527
808.749	28497
808.891	28630
809.033	28626
809.174	28535
809.316	28599
809.458	28653
809.6	28508
809.741	28668
809.883	28790
810.025	28763
810.166	28767
810.308	28888
810.45	28904
810.591	28767
810.733	28535
810.875	28443
811.016	28352
811.158	28398
811.299	28550
811.441	28885
811.582	28713
811.724	28481
811.865	28527
812.007	28504
812.148	28375
812.29	28618
812.431	28675
812.573	28797
812.714	29044
812.855	29132
812.997	29235
813.138	29383
813.279	29079
813.421	29155
813.562	29162
813.703	28900
813.845	28862
813.986	28577
814.127	28375
814.268	28272
814.41	28261
814.551	28215
814.692	28485
814.833	28306
814.974	28200
815.115	28249
815.256	28147
815.397	28169
815.539	28333
815.68	28097
815.821	27979
815.962	28109
816.103	28067
816.244	27907
816.385	27857
816.526	27873
816.666	27701
816.807	27637
816.948	27633
817.089	27876
817.23	27641
817.371	27667
817.512	27610
817.653	27538
817.793	27606
817.934	27549
818.075	27629
818.216	27641
818.356	27530
818.497	27492
818.638	27378
818.778	27264
818.919	27317
819.06	27412
819.2	27477
819.341	27545
819.481	27534
819.622	27679
819.762	27911
819.903	27895
820.043	27736
820.184	27698
820.324	27614
820.465	27804
820.605	27838
820.746	27759
820.886	27599
821.026	27705
821.167	27614
821.307	27622
821.447	27538
821.588	27542
821.728	27329
821.868	27218
822.008	27066
822.149	26998
822.289	27043
822.429	26708
822.569	26727
822.709	26826
822.849	26617
822.99	26659
823.13	26568
823.27	26545
823.41	26332
823.55	26313
823.69	26309
823.83	26358
823.97	26218
824.11	26046
824.25	26206
824.389	26153
824.529	26309
824.669	26168
824.809	26370
824.949	26374
825.089	26294
825.228	26343
825.368	26119
825.508	26092
825.648	26206
825.787	26100
825.927	26191
826.067	26153
826.206	26039
826.346	26031
826.485	26027
826.625	26084
826.765	26168
826.904	26157
827.044	25989
827.183	25890
827.323	25719
827.462	25845
827.601	25887
827.741	25811
827.88	25932
828.02	25799
828.159	25856
828.298	25890
828.437	25795
828.577	25803
828.716	26012
828.855	25666
828.994	25731
829.134	25460
829.273	25510
829.412	25479
829.551	25476
829.69	25616
829.829	25563
829.968	25586
830.107	25529
830.246	25426
830.385	25476
830.524	25479
830.663	25476
830.802	25209
830.941	25110
831.08	24992
831.219	25152
831.357	25088
831.496	25479
831.635	25190
831.774	24935
831.913	24996
832.051	24924
832.19	25061
832.329	24970
832.467	24833
832.606	24833
832.744	24791
832.883	24821
833.022	24623
833.16	24760
833.299	24848
833.437	24719
833.576	24882
833.714	24897
833.852	24913
833.991	24871
834.129	24894
834.267	24863
834.406	24894
834.544	24806
834.682	24905
834.821	24859
834.959	24951
835.097	24981
835.235	24856
835.373	24783
835.511	24791
835.65	24776
835.788	24795
835.926	24623
836.064	24513
836.202	24464
836.34	24764
836.478	24681
836.615	24745
836.753	24711
836.891	24703
837.029	24711
837.167	24707
837.305	24661
837.443	24726
837.58	24658
837.718	24559
837.856	24597
837.993	24467
838.131	24441
838.269	24464
838.406	24262
838.544	24426
838.681	24194
838.819	24140
838.956	24098
839.094	24030
839.231	24045
839.369	24186
839.506	24384
839.643	24365
839.781	23942
839.918	23824
840.055	24106
840.193	23863
840.33	23958
840.467	23733
840.604	23847
840.742	24121
840.879	23737
841.016	23794
841.153	23764
841.29	23980
841.427	23836
841.564	23840
841.701	23893
841.838	23859
841.975	23745
842.112	23843
842.249	23745
842.385	23589
842.522	23866
842.659	23718
842.796	23695
842.933	23623
843.069	23611
843.206	23634
843.343	23668
843.479	23684
843.616	23611
843.752	23410
843.889	23459
844.025	23497
844.162	23376
844.298	23535
844.435	23387
844.571	23353
844.708	23589
844.844	23402
844.98	23600
845.117	23657
845.253	23337
845.389	23311
845.525	23379
845.661	23250
845.798	23083
845.934	23254
846.07	23162
846.206	23102
846.342	23132
846.478	23086
846.614	22946
846.75	22797
846.886	22824
847.022	22858
847.158	22930
847.294	22972
847.429	22774
847.565	22896
847.701	23155
847.837	22622
847.972	22485
848.108	22759
848.244	22694
848.379	22478
848.515	22485
848.65	22588
848.786	22462
848.921	22550
849.057	22630
849.192	22519
849.328	22500
849.463	22485
849.598	22398
849.734	22436
849.869	22341
850.004	22226
850.14	22280
850.275	22333
850.41	22303
850.545	22185
850.68	22249
850.815	22280
850.95	22246
851.085	22531
851.22	22405
851.355	22188
851.49	22417
851.625	22257
851.76	22120
851.895	22238
852.03	22173
852.165	22219
852.299	22318
852.434	22310
852.569	22261
852.703	22261
852.838	22230
852.973	22360
853.107	22390
853.242	22169
853.376	22059
853.511	21876
853.645	22032
853.78	22131
853.914	22105
854.048	22029
854.183	22032
854.317	22078
854.451	22162
854.585	22101
854.72	21998
854.854	22219
854.988	21956
855.122	22082
855.256	21926
855.39	21941
855.524	22067
855.658	22131
855.792	22010
855.926	22131
856.06	22017
856.194	22204
856.327	22128
856.461	22040
856.595	21994
856.729	22078
856.862	22147
856.996	22162
857.13	22097
857.263	22166
857.397	22139
857.53	22048
857.664	22124
857.797	22192
857.931	22200
858.064	21979
858.197	22177
858.331	21968
858.464	22017
858.597	21835
858.731	22040
858.864	21930
858.997	22048
859.13	21991
859.263	22040
859.396	22166
859.529	21915
859.662	22067
859.795	22025
859.928	22086
860.061	22207
860.194	22257
860.327	22124
860.46	22070
860.592	22188
860.725	22158
860.858	22200
860.99	22109
861.123	21918
861.256	22044
861.388	21934
861.521	22843
861.653	21979
861.786	21854
861.918	21926
862.05	21922
862.183	21888
862.315	21956
862.447	21979
862.58	21972
862.712	21804
862.844	21842
862.976	21793
863.108	21797
863.24	22116
863.372	21766
863.504	21751
863.636	21785
863.768	21743
863.9	21717
864.032	21526
864.164	21671
864.296	21682
864.428	21812
864.559	21854
864.691	21854
864.823	21762
864.954	21637
865.086	21713
865.217	21686
865.349	21622
865.48	21553
865.612	21679
865.743	21755
865.875	21637
866.006	21614
866.137	21751
866.269	21618
866.4	21739
866.531	21511
866.662	21454
866.793	21568
866.924	21561
867.055	21568
867.186	21553
867.317	21557
867.448	21424
867.579	21504
867.71	21591
867.841	21431
867.972	21561
868.103	21568
868.233	21629
868.364	21701
868.495	21698
868.625	21785
868.756	21865
868.886	21625
869.017	21759
869.147	21838
869.278	21876
869.408	21781
869.539	21785
869.669	21800
869.799	21865
869.929	22048
870.06	21918
870.19	22086
870.32	22048
870.45	22086
870.58	22063
870.71	22219
870.84	22257
870.97	22211
871.1	22143
871.23	22299
871.36	22352
871.489	22238
871.619	22299
871.749	22382
871.879	22367
872.008	22508
872.138	22432
872.267	22394
872.397	22257
872.526	22116
872.656	22246
872.785	22230
872.915	22299
873.044	22500
873.173	22417
873.303	22447
873.432	22516
873.561	22489
873.69	22451
873.819	22375
873.948	22402
874.077	22474
874.206	22322
874.335	22363
874.464	22546
874.593	22698
874.722	22577
874.851	22626
874.979	22656
875.108	22710
875.237	22660
875.365	22508
875.494	22596
875.623	22702
875.751	22615
875.88	22660
876.008	22744
876.136	22881
876.265	23052
876.393	23159
876.521	23064
876.65	23048
876.778	22968
876.906	22965
877.034	22961
877.162	22999
877.29	22976
877.418	23018
877.546	23037
877.674	22866
877.802	22869
877.93	22942
878.058	22892
878.185	22759
878.313	22946
878.441	22946
878.568	22831
878.696	22923
878.824	23044
878.951	23014
879.079	23067
879.206	23322
879.333	23140
879.461	23022
879.588	22892
879.715	23113
879.842	23143
879.97	22980
880.097	22801
880.224	22774
880.351	22790
880.478	22656
880.605	22660
880.732	22805
880.859	22919
880.986	22626
881.112	22771
881.239	22721
881.366	22538
881.493	22402
881.619	22352
881.746	22440
881.872	22325
881.999	22257
882.125	22246
882.252	22421
882.378	22409
882.505	22413
882.631	22234
882.757	22162
882.883	22143
883.01	21991
883.136	21903
883.262	21903
883.388	21781
883.514	22086
883.64	22017
883.766	21880
883.892	21895
884.018	21743
884.143	22013
884.269	21953
884.395	21789
884.52	21701
884.646	21743
884.772	21675
884.897	21542
885.023	21713
885.148	21781
885.274	21762
885.399	21831
885.524	21705
885.65	21781
885.775	21606
885.9	21660
886.025	21739
886.15	21804
886.275	21595
886.4	21694
886.525	21625
886.65	21553
886.775	21656
886.9	21770
887.025	21774
887.149	21500
887.274	21488
887.399	21397
887.523	21466
887.648	21397
887.773	21256
887.897	21587
888.021	21439
888.146	21329
888.27	21568
888.395	21564
888.519	21401
888.643	21435
888.767	21485
888.891	21401
889.015	21237
889.139	21340
889.263	21272
889.387	21302
889.511	21389
889.635	21256
889.759	21218
889.883	21298
890.006	21131
890.13	21226
890.254	21226
890.377	21104
890.501	21085
890.624	20914
890.748	20990
890.871	20834
890.995	20762
891.118	20701
891.241	20906
891.364	20746
891.488	20956
891.611	20838
891.734	20769
891.857	20845
891.98	20902
892.103	20815
892.226	20796
892.349	20796
892.471	20537
892.594	20712
892.717	20598
892.839	20632
892.962	20720
893.085	20678
893.207	20765
893.33	20564
893.452	20621
893.575	20648
893.697	20621
893.819	20872
893.941	20918
894.064	20731
894.186	20530
894.308	20617
894.43	20788
894.552	20682
894.674	20701
894.796	20495
894.918	20568
895.04	20674
895.161	20705
895.283	20735
895.405	20537
895.526	20758
895.648	20556
895.769	20693
895.891	20590
896.012	20720
896.134	20560
896.255	20609
896.376	20549
896.498	20625
896.619	20667
896.74	20735
896.861	20746
896.982	20929
897.103	21039
897.224	20861
897.345	20986
897.466	20777
897.587	20815
897.708	20956
897.828	20925
897.949	20899
898.07	20750
898.19	20769
898.311	20929
898.431	20792
898.552	20769
898.672	20857
898.792	20910
898.913	20895
899.033	20667
899.153	20629
899.273	20526
899.393	20670
899.513	20663
899.633	20678
899.753	20636
899.873	20556
899.993	20495
900.113	20533
900.232	20564
900.352	20533
900.472	20328
900.591	20286
900.711	20400
900.83	20278
900.95	20324
901.069	20362
901.189	20396
901.308	20081
901.427	20012
901.546	19906
901.665	19940
901.784	19997
901.904	19879
902.023	19780
902.141	19449
902.26	19540
902.379	19613
902.498	19449
902.617	19487
902.735	19529
902.854	19403
902.973	19483
903.091	19126
903.21	19072
903.328	19145
903.446	19145
903.565	19000
903.683	18802
903.801	18901
903.919	18897
904.038	18829
904.156	18787
904.274	18837
904.392	18623
904.51	18627
904.627	18597
904.745	18745
904.863	18696
904.981	18570
905.098	18327
905.216	18334
905.334	18460
905.451	18361
905.569	18311
905.686	18414
905.803	18380
905.921	18155
906.038	18323
906.155	18148
906.272	18102
906.389	18026
906.506	17836
906.623	17851
906.74	17885
906.857	17760
906.974	17779
907.091	17931
907.208	17916
907.324	17851
907.441	17748
907.557	17771
907.674	17642
907.79	17532
907.907	17577
908.023	17623
908.139	17600
908.256	17532
908.372	17440
908.488	17376
908.604	17284
908.72	17280
908.836	17265
908.952	17326
909.068	17364
909.184	17452
909.3	17273
909.415	17299
909.531	17258
909.647	17014
909.762	17045
909.878	16904
909.993	16968
910.108	16991
910.224	16900
910.339	16957
910.454	16850
910.57	16816
910.685	16717
910.8	16949
910.915	16999
911.03	16790
911.145	16645
911.259	16596
911.374	16596
911.489	16512
911.604	16508
911.718	16322
911.833	16318
911.947	16318
912.062	16162
912.176	16325
912.291	16356
912.405	16280
912.519	16592
912.633	16462
912.748	16405
912.862	16284
912.976	16204
913.09	16040
913.204	16124
913.318	16177
913.431	16272
913.545	16120
913.659	16169
913.772	16150
913.886	15949
914	15987
914.113	16090
914.226	15979
914.34	15934
914.453	15869
914.566	15934
914.68	15892
914.793	15793
914.906	15622
915.019	15507
915.132	15481
915.245	15572
915.358	15545
915.47	15576
915.583	15481
915.696	15526
915.809	15660
915.921	15606
916.034	15496
916.146	15405
916.259	15439
916.371	15477
916.483	15553
916.595	15458
916.708	15370
916.82	15386
916.932	15348
917.044	15306
917.156	15211
917.268	15233
917.38	15294
917.491	15207
917.603	15256
917.715	15252
917.826	15283
917.938	15062
918.049	15009
918.161	15207
918.272	15291
918.384	15169
918.495	15142
918.606	15005
918.717	14804
918.828	15039
918.939	14960
919.05	14861
919.161	14944
919.272	14644
919.383	14788
919.494	14986
919.604	15066
919.715	14963
919.826	14872
919.936	14845
920.047	14956
920.157	14960
920.267	15077
920.378	14819
920.488	14796
920.598	15020
920.708	15199
920.818	14986
920.928	14944
921.038	15112
921.148	15180
921.258	14800
921.368	14731
921.477	14651
921.587	14511
921.697	14469
921.806	14579
921.916	14400
922.025	14396
922.134	14252
922.244	14206
922.353	14237
922.462	14084
922.571	14134
922.68	13883
922.789	13917
922.898	13963
923.007	13769
923.116	13913
923.224	13936
923.333	13784
923.442	13727
923.55	13769
923.659	13738
923.767	13715
923.876	13586
923.984	13772
924.092	13613
924.201	13662
924.309	13628
924.417	13666
924.525	13502
924.633	13567
924.741	14385
924.849	13312
924.956	13449
925.064	13392
925.172	13274
925.279	13232
925.387	13320
925.494	13232
925.602	13403
925.709	13285
925.816	13168
925.924	13270
926.031	13285
926.138	13293
926.245	13232
926.352	13080
926.459	13285
926.566	13373
926.673	13046
926.779	13012
926.886	13042
926.993	12848
927.099	12837
927.206	12795
927.312	12783
927.419	12894
927.525	12795
927.631	12871
927.737	12639
927.843	12684
927.95	12513
928.056	12654
928.162	12715
928.267	12738
928.373	13190
928.479	12772
928.585	12486
928.69	12582
928.796	12601
928.901	12521
929.007	12353
929.112	12483
929.218	12467
929.323	12456
929.428	12460
929.533	12486
929.638	12315
929.743	12308
929.848	12338
929.953	12365
930.058	12235
930.163	12114
930.267	12007
930.372	12205
930.477	12015
930.581	12194
930.685	12098
930.79	11901
930.894	11977
930.998	11973
931.103	12091
931.207	11729
931.311	11619
931.415	11547
931.519	11322
931.623	11227
