Data from test_V78500241_562.txt Node
Date: Fri Mar 25 15:13:46 CST 2022
User: usil
Spectrometer: V785-0024
Trigger mode: 0
Integration Time (sec): 4.000000E-1
Scans to average: 1
Nonlinearity correction enabled: false
Boxcar width: 0
Storing dark spectrum: false
XAxis mode: Wavelengths
Number of Pixels in Spectrum: 1024
>>>>>Begin Spectral Data<<<<<
801.071	26408
801.214	26613
801.356	26286
801.499	26252
801.641	26031
801.783	26005
801.926	26107
802.068	26043
802.211	25833
802.353	25883
802.496	25666
802.638	25662
802.78	25651
802.923	25635
803.065	25544
803.208	25605
803.35	25620
803.492	25780
803.635	25906
803.777	25552
803.919	25738
804.061	25986
804.204	25715
804.346	25769
804.488	25624
804.63	25875
804.773	25712
804.915	25761
805.057	26016
805.199	25826
805.341	25833
805.483	25875
805.626	25708
805.768	25765
805.91	25784
806.052	25742
806.194	25742
806.336	25917
806.478	25868
806.62	25795
806.762	26058
806.904	26115
807.046	26252
807.188	26263
807.33	26225
807.472	26347
807.614	26115
807.756	26157
807.898	26043
808.04	26035
808.182	26020
808.324	26073
808.465	25940
808.607	26259
808.749	26263
808.891	26556
809.033	26636
809.174	26488
809.316	26530
809.458	26442
809.6	26221
809.741	26556
809.883	26499
810.025	26659
810.166	26621
810.308	26663
810.45	26636
810.591	26682
810.733	26545
810.875	26263
811.016	26248
811.158	26221
811.299	26499
811.441	26609
811.582	26549
811.724	26275
811.865	26355
812.007	26442
812.148	26423
812.29	26427
812.431	26583
812.573	26762
812.714	26777
812.855	26906
812.997	27051
813.138	27195
813.279	27085
813.421	26864
813.562	27009
813.703	26743
813.845	26636
813.986	26267
814.127	26206
814.268	25963
814.41	26088
814.551	25974
814.692	26073
814.833	26039
814.974	26065
815.115	25955
815.256	25894
815.397	25894
815.539	26005
815.68	25837
815.821	25788
815.962	25845
816.103	25811
816.244	25597
816.385	25689
816.526	25544
816.666	25362
816.807	25293
816.948	25377
817.089	25514
817.23	25369
817.371	25316
817.512	25187
817.653	25301
817.793	25255
817.934	25365
818.075	25426
818.216	25251
818.356	25419
818.497	25084
818.638	25171
818.778	24992
818.919	25053
819.06	24954
819.2	25202
819.341	25316
819.481	25331
819.622	25415
819.762	25666
819.903	25449
820.043	25460
820.184	25335
820.324	25373
820.465	25586
820.605	25377
820.746	25384
820.886	25270
821.026	25293
821.167	25495
821.307	25392
821.447	25335
821.588	25369
821.728	25095
821.868	24890
822.008	24764
822.149	24673
822.289	24578
822.429	24593
822.569	24456
822.709	24456
822.849	24361
822.99	24327
823.13	24289
823.27	24155
823.41	24045
823.55	23843
823.69	24163
823.83	23977
823.97	24197
824.11	23897
824.25	23954
824.389	23885
824.529	23912
824.669	23851
824.809	23889
824.949	24015
825.089	23897
825.228	23878
825.368	23714
825.508	23608
825.648	23741
825.787	23726
825.927	23756
826.067	23714
826.206	23783
826.346	23843
826.485	23893
826.625	23707
826.765	23836
826.904	23832
827.044	23657
827.183	23448
827.323	23509
827.462	23528
827.601	23531
827.741	23402
827.88	23406
828.02	23421
828.159	23433
828.298	23528
828.437	23539
828.577	23364
828.716	23516
828.855	23383
828.994	23140
829.134	23220
829.273	23326
829.412	23147
829.551	23113
829.69	23181
829.829	23223
829.968	23299
830.107	23334
830.246	23193
830.385	23189
830.524	23075
830.663	23018
830.802	22869
830.941	22778
831.08	22755
831.219	22908
831.357	22881
831.496	23079
831.635	22866
831.774	22706
831.913	22744
832.051	22569
832.19	22500
832.329	22641
832.467	22554
832.606	22398
832.744	22375
832.883	22538
833.022	22394
833.16	22413
833.299	22554
833.437	22573
833.576	22694
833.714	22683
833.852	22596
833.991	22660
834.129	22694
834.267	22584
834.406	22527
834.544	22584
834.682	22592
834.821	22531
834.959	22736
835.097	22459
835.235	22565
835.373	22516
835.511	22516
835.65	22405
835.788	22322
835.926	22261
836.064	22306
836.202	22128
836.34	22360
836.478	22516
836.615	22333
836.753	22390
836.891	22379
837.029	22371
837.167	22276
837.305	22344
837.443	22303
837.58	22207
837.718	22306
837.856	22147
837.993	22242
838.131	22299
838.269	22101
838.406	22131
838.544	22207
838.681	21915
838.819	21930
838.956	21698
839.094	21709
839.231	21842
839.369	21743
839.506	22090
839.643	21960
839.781	21713
839.918	21671
840.055	21747
840.193	21739
840.33	21618
840.467	21717
840.604	21637
840.742	21972
840.879	21545
841.016	21610
841.153	21526
841.29	21770
841.427	21576
841.564	21587
841.701	21656
841.838	21500
841.975	21572
842.112	21656
842.249	21507
842.385	21447
842.522	21656
842.659	21393
842.796	21332
842.933	21412
843.069	21382
843.206	21378
843.343	21454
843.479	21393
843.616	21405
843.752	21195
843.889	21222
844.025	21447
844.162	21062
844.298	21256
844.435	21142
844.571	21100
844.708	21123
844.844	21389
844.98	21344
845.117	21230
845.253	21161
845.389	21089
845.525	21135
845.661	20937
845.798	20902
845.934	20994
846.07	20826
846.206	20998
846.342	20998
846.478	20864
846.614	20705
846.75	20731
846.886	20625
847.022	20819
847.158	20883
847.294	20686
847.429	20727
847.565	20743
847.701	20895
847.837	20511
847.972	20381
848.108	20530
848.244	20465
848.379	20370
848.515	20176
848.65	20347
848.786	20290
848.921	20278
849.057	20294
849.192	20381
849.328	20450
849.463	20328
849.598	20248
849.734	20237
849.869	20084
850.004	20100
850.14	20191
850.275	20172
850.41	19890
850.545	19947
850.68	20035
850.815	20073
850.95	20058
851.085	20199
851.22	20164
851.355	19989
851.49	20046
851.625	20001
851.76	20012
851.895	19947
852.03	19989
852.165	19963
852.299	20035
852.434	20046
852.569	20084
852.703	19928
852.838	20103
852.973	20187
853.107	20252
853.242	20043
853.376	20027
853.511	19890
853.645	19925
853.78	20065
853.914	19936
854.048	19822
854.183	19906
854.317	19890
854.451	20145
854.585	19803
854.72	19807
854.854	19902
854.988	19906
855.122	19947
855.256	19719
855.39	19883
855.524	19887
855.658	19906
855.792	19871
855.926	19982
856.06	19906
856.194	19947
856.327	19875
856.461	19799
856.595	19731
856.729	19871
856.862	20001
856.996	20031
857.13	19936
857.263	19993
857.397	19925
857.53	19898
857.664	19864
857.797	20001
857.931	19925
858.064	19925
858.197	20024
858.331	19871
858.464	19830
858.597	19719
858.731	19913
858.864	19818
858.997	19875
859.13	19841
859.263	19932
859.396	19940
859.529	19921
859.662	19776
859.795	19799
859.928	19909
860.061	20031
860.194	20050
860.327	19997
860.46	19890
860.592	20035
860.725	20012
860.858	19959
860.99	19856
861.123	19826
861.256	19769
861.388	19902
861.521	20667
861.653	19693
861.786	19655
861.918	19624
862.05	19780
862.183	19803
862.315	19845
862.447	19856
862.58	19807
862.712	19556
862.844	19590
862.976	19651
863.108	19780
863.24	19947
863.372	19559
863.504	19662
863.636	19548
863.768	19613
863.9	19613
864.032	19552
864.164	19609
864.296	19643
864.428	19670
864.559	19628
864.691	19616
864.823	19666
864.954	19586
865.086	19575
865.217	19586
865.349	19506
865.48	19540
865.612	19544
865.743	19647
865.875	19518
866.006	19384
866.137	19578
866.269	19605
866.4	19483
866.531	19434
866.662	19434
866.793	19350
866.924	19480
867.055	19525
867.186	19422
867.317	19499
867.448	19312
867.579	19373
867.71	19377
867.841	19400
867.972	19502
868.103	19544
868.233	19464
868.364	19453
868.495	19499
868.625	19700
868.756	19719
868.886	19700
869.017	19616
869.147	19830
869.278	19742
869.408	19784
869.539	19731
869.669	19742
869.799	19708
869.929	19742
870.06	19917
870.19	20050
870.32	20012
870.45	20020
870.58	20065
870.71	20176
870.84	20096
870.97	20138
871.1	20073
871.23	20358
871.36	20336
871.489	20161
871.619	20176
871.749	20362
871.879	20374
872.008	20476
872.138	20328
872.267	20324
872.397	20081
872.526	19997
872.656	20100
872.785	20130
872.915	20434
873.044	20393
873.173	20248
873.303	20347
873.432	20317
873.561	20454
873.69	20480
873.819	20415
873.948	20324
874.077	20400
874.206	20286
874.335	20328
874.464	20377
874.593	20480
874.722	20480
874.851	20686
874.979	20526
875.108	20594
875.237	20606
875.365	20457
875.494	20583
875.623	20632
875.751	20598
875.88	20571
876.008	20598
876.136	20644
876.265	20941
876.393	21043
876.521	21055
876.65	21051
876.778	20982
876.906	20887
877.034	20861
877.162	20872
877.29	20925
877.418	20910
877.546	20956
877.674	20880
877.802	20925
877.93	20895
878.058	20872
878.185	20925
878.313	20902
878.441	20906
878.568	20826
878.696	20811
878.824	20929
878.951	20956
879.079	21081
879.206	21260
879.333	21100
879.461	20960
879.588	21020
879.715	21058
879.842	21249
879.97	20994
880.097	20765
880.224	20727
880.351	20849
880.478	20659
880.605	20659
880.732	20625
880.859	21013
880.986	20785
881.112	20720
881.239	20526
881.366	20541
881.493	20450
881.619	20427
881.746	20454
881.872	20301
881.999	20263
882.125	20134
882.252	20415
882.378	20355
882.505	20488
882.631	20218
882.757	20103
882.883	20161
883.01	20027
883.136	19940
883.262	19875
883.388	19811
883.514	20058
883.64	20050
883.766	19970
883.892	19845
884.018	19921
884.143	20027
884.269	20027
884.395	19753
884.52	19772
884.646	19784
884.772	19655
884.897	19563
885.023	19795
885.148	19807
885.274	19906
885.399	19856
885.524	19864
885.65	19666
885.775	19757
885.9	19681
886.025	19772
886.15	19852
886.275	19605
886.4	19552
886.525	19723
886.65	19685
886.775	19590
886.9	19814
887.025	19947
887.149	19791
887.274	19518
887.399	19544
887.523	19472
887.648	19464
887.773	19476
887.897	19613
888.021	19639
888.146	19502
888.27	19708
888.395	19445
888.519	19586
888.643	19582
888.767	19658
888.891	19476
889.015	19415
889.139	19384
889.263	19339
889.387	19422
889.511	19502
889.635	19556
889.759	19274
889.883	19266
890.006	19282
890.13	19403
890.254	19320
890.377	19301
890.501	19171
890.624	19091
890.748	19027
890.871	19107
890.995	18954
891.118	18848
891.241	18966
891.364	18973
891.488	18970
891.611	19012
891.734	18996
891.857	18947
891.98	18817
892.103	18916
892.226	18977
892.349	18920
892.471	18722
892.594	18840
892.717	18886
892.839	18833
892.962	18905
893.085	18882
893.207	18806
893.33	18734
893.452	18726
893.575	18901
893.697	18798
893.819	18901
893.941	18954
894.064	18935
894.186	18795
894.308	18802
894.43	18928
894.552	19004
894.674	18935
894.796	18745
894.918	18783
895.04	18810
895.161	18913
895.283	18894
895.405	18814
895.526	18856
895.648	18783
895.769	18817
895.891	18859
896.012	18905
896.134	18939
896.255	18825
896.376	18871
896.498	18871
896.619	18817
896.74	18886
896.861	18932
896.982	19255
897.103	19297
897.224	19133
897.345	19057
897.466	19034
897.587	19164
897.708	19221
897.828	19080
897.949	19012
898.07	18958
898.19	19050
898.311	19259
898.431	19023
898.552	19091
898.672	19312
898.792	19168
898.913	19076
899.033	18973
899.153	18798
899.273	18825
899.393	18909
899.513	18837
899.633	18878
899.753	18954
899.873	18795
899.993	18867
900.113	18882
900.232	18878
900.352	18734
900.472	18688
900.591	18661
900.711	18859
900.83	18627
900.95	18772
901.069	18730
901.189	18559
901.308	18308
901.427	18285
901.546	18266
901.665	18350
901.784	18281
901.904	18098
902.023	17969
902.141	17805
902.26	17745
902.379	17870
902.498	17798
902.617	17779
902.735	17866
902.854	17748
902.973	17646
903.091	17406
903.21	17486
903.328	17528
903.446	17383
903.565	17383
903.683	17299
903.801	17235
903.919	17318
904.038	17200
904.156	16984
904.274	17067
904.392	17006
904.51	17037
904.627	17025
904.745	17189
904.863	17048
904.981	16820
905.098	16793
905.216	16725
905.334	16771
905.451	16850
905.569	16885
905.686	16812
905.803	16793
905.921	16550
906.038	16717
906.155	16565
906.272	16436
906.389	16432
906.506	16322
906.623	16280
906.74	16352
906.857	16162
906.974	16188
907.091	16390
907.208	16462
907.324	16272
907.441	16226
907.557	15998
907.674	16131
907.79	15964
907.907	16078
908.023	16116
908.139	16040
908.256	15972
908.372	15850
908.488	15857
908.604	15804
908.72	15656
908.836	15793
908.952	15717
909.068	15778
909.184	15880
909.3	15622
909.415	15766
909.531	15736
909.647	15435
909.762	15412
909.878	15534
909.993	15523
910.108	15386
910.224	15374
910.339	15428
910.454	15389
910.57	15256
910.685	15268
910.8	15481
910.915	15458
911.03	15389
911.145	15062
911.259	15104
911.374	14979
911.489	15013
911.604	14982
911.718	14887
911.833	14762
911.947	14724
912.062	14648
912.176	14765
912.291	14838
912.405	14777
912.519	15077
912.633	15051
912.748	14880
912.862	14819
912.976	14678
913.09	14674
913.204	14533
913.318	14720
913.431	14705
913.545	14682
913.659	14777
913.772	14621
913.886	14541
914	14526
914.113	14549
914.226	14560
914.34	14473
914.453	14370
914.566	14610
914.68	14438
914.793	14343
914.906	14206
915.019	14256
915.132	13978
915.245	14123
915.358	14180
915.47	14107
915.583	14069
915.696	14183
915.809	14221
915.921	14275
916.034	14088
916.146	14149
916.259	13982
916.371	14115
916.483	14065
916.595	13944
916.708	13986
916.82	13879
916.932	13970
917.044	13925
917.156	13955
917.268	13856
917.38	13803
917.491	13811
917.603	13871
917.715	13811
917.826	13894
917.938	13776
918.049	13647
918.161	13803
918.272	13860
918.384	13951
918.495	13712
918.606	13613
918.717	13559
918.828	13696
918.939	13685
919.05	13411
919.161	13525
919.272	13460
919.383	13407
919.494	13636
919.604	13807
919.715	13571
919.826	13563
919.936	13514
920.047	13628
920.157	13476
920.267	13795
920.378	13632
920.488	13605
920.598	13727
920.708	13978
920.818	13753
920.928	13689
921.038	13814
921.148	13837
921.258	13548
921.368	13449
921.477	13343
921.587	13301
921.697	13225
921.806	13354
921.916	13251
922.025	13072
922.134	12981
922.244	12943
922.353	13023
922.462	12935
922.571	12722
922.68	12753
922.789	12684
922.898	12635
923.007	12616
923.116	12669
923.224	12658
923.333	12574
923.442	12513
923.55	12452
923.659	12532
923.767	12593
923.876	12486
923.984	12460
924.092	12376
924.201	12441
924.309	12365
924.417	12391
924.525	12369
924.633	12300
924.741	13000
924.849	12133
924.956	12308
925.064	12155
925.172	12098
925.279	12106
925.387	12136
925.494	12041
925.602	12296
925.709	12190
925.816	12098
925.924	12019
926.031	12129
926.138	12076
926.245	12095
926.352	12034
926.459	12045
926.566	12159
926.673	11958
926.779	11935
926.886	11809
926.993	11767
927.099	11779
927.206	11676
927.312	11672
927.419	11866
927.525	11699
927.631	11726
927.737	11558
927.843	11581
927.95	11497
928.056	11581
928.162	11558
928.267	11699
928.373	12243
928.479	11695
928.585	11337
928.69	11528
928.796	11467
928.901	11398
929.007	11280
929.112	11410
929.218	11311
929.323	11307
929.428	11318
929.533	11368
929.638	11296
929.743	11368
929.848	11311
929.953	11284
930.058	11178
930.163	11006
930.267	11090
930.372	11189
930.477	10999
930.581	11185
930.685	11052
930.79	10942
930.894	10949
930.998	10839
931.103	11060
931.207	10615
931.311	10611
931.415	10542
931.519	10287
931.623	10371
