Data from test_V78500241_1829.txt Node
Date: Fri Mar 25 15:22:35 CST 2022
User: usil
Spectrometer: V785-0024
Trigger mode: 0
Integration Time (sec): 4.000000E-1
Scans to average: 1
Nonlinearity correction enabled: false
Boxcar width: 0
Storing dark spectrum: false
XAxis mode: Wavelengths
Number of Pixels in Spectrum: 1024
>>>>>Begin Spectral Data<<<<<
801.071	27755
801.214	27778
801.356	27614
801.499	27317
801.641	27412
801.783	27306
801.926	27462
802.068	27348
802.211	27310
802.353	27268
802.496	26982
802.638	26986
802.78	27013
802.923	26998
803.065	26891
803.208	27017
803.35	26956
803.492	27123
803.635	27207
803.777	27093
803.919	27272
804.061	27530
804.204	27363
804.346	27108
804.488	27066
804.63	27222
804.773	27131
804.915	27116
805.057	27203
805.199	27195
805.341	27272
805.483	27443
805.626	27340
805.768	27218
805.91	27374
806.052	27351
806.194	27249
806.336	27538
806.478	27222
806.62	27272
806.762	27397
806.904	27682
807.046	27903
807.188	27720
807.33	27705
807.472	27804
807.614	27629
807.756	27751
807.898	27595
808.04	27603
808.182	27538
808.324	27587
808.465	27861
808.607	27808
808.749	28055
808.891	27953
809.033	28078
809.174	28021
809.316	27968
809.458	27941
809.6	27994
809.741	27972
809.883	28093
810.025	28154
810.166	28169
810.308	28074
810.45	28097
810.591	28025
810.733	28097
810.875	27785
811.016	27857
811.158	27827
811.299	28025
811.441	28131
811.582	28112
811.724	27975
811.865	27945
812.007	27922
812.148	27781
812.29	27975
812.431	27972
812.573	28234
812.714	28413
812.855	28500
812.997	28421
813.138	28542
813.279	28470
813.421	28436
813.562	28447
813.703	28253
813.845	28207
813.986	27808
814.127	27686
814.268	27542
814.41	27675
814.551	27553
814.692	27694
814.833	27553
814.974	27530
815.115	27629
815.256	27526
815.397	27523
815.539	27485
815.68	27466
815.821	27245
815.962	27435
816.103	27370
816.244	27306
816.385	27199
816.526	27104
816.666	26948
816.807	26940
816.948	27013
817.089	27074
817.23	26990
817.371	27001
817.512	26887
817.653	26857
817.793	26800
817.934	26933
818.075	26940
818.216	26842
818.356	26921
818.497	26750
818.638	26705
818.778	26739
818.919	26655
819.06	26754
819.2	26796
819.341	26823
819.481	26769
819.622	26986
819.762	27138
819.903	27055
820.043	27165
820.184	27058
820.324	27013
820.465	27150
820.605	26937
820.746	27146
820.886	26902
821.026	27009
821.167	26979
821.307	27055
821.447	26975
821.588	26883
821.728	26708
821.868	26480
822.008	26438
822.149	26423
822.289	26408
822.429	26240
822.569	26016
822.709	26183
822.849	25936
822.99	25833
823.13	25940
823.27	25795
823.41	25772
823.55	25772
823.69	25753
823.83	25727
823.97	25662
824.11	25559
824.25	25548
824.389	25453
824.529	25795
824.669	25594
824.809	25563
824.949	25635
825.089	25601
825.228	25647
825.368	25464
825.508	25339
825.648	25381
825.787	25521
825.927	25590
826.067	25362
826.206	25339
826.346	25487
826.485	25472
826.625	25479
826.765	25499
826.904	25369
827.044	25354
827.183	25232
827.323	25152
827.462	25141
827.601	25206
827.741	25099
827.88	25156
828.02	25015
828.159	24989
828.298	25168
828.437	25126
828.577	24954
828.716	25301
828.855	25031
828.994	24878
829.134	24909
829.273	25008
829.412	24719
829.551	24806
829.69	24719
829.829	24844
829.968	24913
830.107	24802
830.246	24970
830.385	24913
830.524	24783
830.663	24661
830.802	24555
830.941	24460
831.08	24391
831.219	24502
831.357	24441
831.496	24703
831.635	24547
831.774	24403
831.913	24422
832.051	24273
832.19	24304
832.329	24258
832.467	24254
832.606	24053
832.744	24102
832.883	24247
833.022	24152
833.16	24068
833.299	24121
833.437	24133
833.576	24220
833.714	24239
833.852	24186
833.991	24292
834.129	24292
834.267	24194
834.406	24319
834.544	24292
834.682	24178
834.821	24129
834.959	24190
835.097	24026
835.235	24144
835.373	24117
835.511	24285
835.65	24079
835.788	23996
835.926	23885
836.064	23741
836.202	23927
836.34	24049
836.478	24152
836.615	24022
836.753	24045
836.891	24041
837.029	24171
837.167	23901
837.305	23977
837.443	23927
837.58	23939
837.718	23870
837.856	23889
837.993	23904
838.131	23965
838.269	23889
838.406	23813
838.544	23680
838.681	23619
838.819	23551
838.956	23379
839.094	23372
839.231	23395
839.369	23589
839.506	23847
839.643	23627
839.781	23299
839.918	23216
840.055	23349
840.193	23391
840.33	23376
840.467	23227
840.604	23398
840.742	23509
840.879	23105
841.016	23162
841.153	23151
841.29	23570
841.427	23204
841.564	23318
841.701	23277
841.838	23140
841.975	23189
842.112	23246
842.249	23124
842.385	23067
842.522	23212
842.659	23151
842.796	23132
842.933	22995
843.069	23041
843.206	22991
843.343	23128
843.479	23064
843.616	23052
843.752	22809
843.889	22816
844.025	22900
844.162	22877
844.298	22976
844.435	22843
844.571	22694
844.708	22847
844.844	22999
844.98	22828
845.117	22953
845.253	22759
845.389	22596
845.525	22866
845.661	22653
845.798	22630
845.934	22516
846.07	22535
846.206	22618
846.342	22660
846.478	22481
846.614	22379
846.75	22131
846.886	22421
847.022	22519
847.158	22306
847.294	22337
847.429	22287
847.565	22226
847.701	22481
847.837	21922
847.972	21953
848.108	22188
848.244	22234
848.379	21941
848.515	21770
848.65	21816
848.786	21873
848.921	21876
849.057	22097
849.192	22048
849.328	21968
849.463	21831
849.598	21774
849.734	21743
849.869	21690
850.004	21648
850.14	21781
850.275	21610
850.41	21549
850.545	21603
850.68	21694
850.815	21671
850.95	21580
851.085	21873
851.22	21793
851.355	21629
851.49	21675
851.625	21595
851.76	21549
851.895	21511
852.03	21561
852.165	21614
852.299	21641
852.434	21701
852.569	21713
852.703	21557
852.838	21675
852.973	21778
853.107	21743
853.242	21580
853.376	21561
853.511	21458
853.645	21447
853.78	21622
853.914	21504
854.048	21443
854.183	21477
854.317	21519
854.451	21481
854.585	21519
854.72	21477
854.854	21523
854.988	21363
855.122	21507
855.256	21321
855.39	21416
855.524	21481
855.658	21557
855.792	21393
855.926	21526
856.06	21587
856.194	21458
856.327	21450
856.461	21405
856.595	21351
856.729	21447
856.862	21568
856.996	21561
857.13	21504
857.263	21622
857.397	21606
857.53	21428
857.664	21523
857.797	21595
857.931	21595
858.064	21466
858.197	21652
858.331	21477
858.464	21466
858.597	21378
858.731	21507
858.864	21389
858.997	21401
859.13	21405
859.263	21386
859.396	21568
859.529	21428
859.662	21382
859.795	21424
859.928	21443
860.061	21648
860.194	21656
860.327	21538
860.46	21542
860.592	21686
860.725	21523
860.858	21580
860.99	21469
861.123	21359
861.256	21515
861.388	21447
861.521	22112
861.653	21291
861.786	21260
861.918	21325
862.05	21230
862.183	21332
862.315	21382
862.447	21302
862.58	21355
862.712	21256
862.844	21131
862.976	21199
863.108	21207
863.24	21542
863.372	21017
863.504	21150
863.636	21104
863.768	21252
863.9	21123
864.032	21039
864.164	21051
864.296	21100
864.428	21203
864.559	21123
864.691	21272
864.823	21230
864.954	21138
865.086	21192
865.217	21074
865.349	20857
865.48	21001
865.612	21039
865.743	21264
865.875	21062
866.006	21001
866.137	21085
866.269	21112
866.4	21051
866.531	21043
866.662	21028
866.793	20937
866.924	20910
867.055	20975
867.186	21020
867.317	20899
867.448	20906
867.579	20990
867.71	20876
867.841	20933
867.972	21074
868.103	20899
868.233	20948
868.364	21093
868.495	21138
868.625	21184
868.756	21370
868.886	21100
869.017	21268
869.147	21321
869.278	21283
869.408	21211
869.539	21264
869.669	21378
869.799	21252
869.929	21355
870.06	21420
870.19	21599
870.32	21523
870.45	21454
870.58	21629
870.71	21774
870.84	21663
870.97	21599
871.1	21682
871.23	21854
871.36	21915
871.489	21720
871.619	21797
871.749	21751
871.879	21819
872.008	21945
872.138	21812
872.267	21797
872.397	21819
872.526	21648
872.656	21648
872.785	21534
872.915	21975
873.044	21865
873.173	21816
873.303	21983
873.432	22063
873.561	21930
873.69	21903
873.819	21915
873.948	21895
874.077	21873
874.206	21922
874.335	21778
874.464	21911
874.593	22051
874.722	22105
874.851	22067
874.979	22169
875.108	22143
875.237	22040
875.365	22002
875.494	22029
875.623	22147
875.751	22032
875.88	22246
876.008	22223
876.136	22344
876.265	22459
876.393	22565
876.521	22519
876.65	22691
876.778	22599
876.906	22478
877.034	22314
877.162	22371
877.29	22428
877.418	22382
877.546	22314
877.674	22466
877.802	22489
877.93	22455
878.058	22386
878.185	22341
878.313	22402
878.441	22303
878.568	22230
878.696	22329
878.824	22470
878.951	22554
879.079	22550
879.206	22873
879.333	22535
879.461	22478
879.588	22725
879.715	22656
879.842	22748
879.97	22596
880.097	22405
880.224	22215
880.351	22303
880.478	22421
880.605	22238
880.732	22185
880.859	22424
880.986	22253
881.112	22287
881.239	22101
881.366	21983
881.493	21937
881.619	21941
881.746	21934
881.872	21816
881.999	21850
882.125	21892
882.252	21930
882.378	21838
882.505	21953
882.631	21705
882.757	21534
882.883	21766
883.01	21549
883.136	21545
883.262	21401
883.388	21492
883.514	21538
883.64	21557
883.766	21389
883.892	21268
884.018	21488
884.143	21576
884.269	21599
884.395	21344
884.52	21252
884.646	21256
884.772	21157
884.897	21100
885.023	21070
885.148	21268
885.274	21401
885.399	21329
885.524	21230
885.65	21245
885.775	21317
885.9	21116
886.025	21123
886.15	21279
886.275	21176
886.4	21058
886.525	21096
886.65	21047
886.775	20982
886.9	21306
887.025	21374
887.149	21260
887.274	21028
887.399	20910
887.523	20899
887.648	20876
887.773	20834
887.897	21070
888.021	20990
888.146	20891
888.27	20960
888.395	21119
888.519	20998
888.643	21066
888.767	20990
888.891	20910
889.015	20804
889.139	20807
889.263	20621
889.387	20864
889.511	20975
889.635	20895
889.759	20769
889.883	20845
890.006	20887
890.13	20792
890.254	20644
890.377	20648
890.501	20503
890.624	20457
890.748	20617
890.871	20362
890.995	20336
891.118	20324
891.241	20339
891.364	20362
891.488	20522
891.611	20347
891.734	20320
891.857	20366
891.98	20195
892.103	20377
892.226	20328
892.349	20286
892.471	20100
892.594	20168
892.717	20225
892.839	20180
892.962	20210
893.085	20336
893.207	20122
893.33	20107
893.452	20176
893.575	20218
893.697	20252
893.819	20324
893.941	20351
894.064	20377
894.186	20157
894.308	20107
894.43	20374
894.552	20427
894.674	20408
894.796	20218
894.918	20191
895.04	20199
895.161	20309
895.283	20263
895.405	20115
895.526	20225
895.648	20103
895.769	20218
895.891	20294
896.012	20210
896.134	20218
896.255	20275
896.376	20172
896.498	20157
896.619	20271
896.74	20103
896.861	20191
896.982	20438
897.103	20625
897.224	20503
897.345	20415
897.466	20339
897.587	20419
897.708	20613
897.828	20362
897.949	20362
898.07	20278
898.19	20339
898.311	20457
898.431	20400
898.552	20355
898.672	20533
898.792	20568
898.913	20355
899.033	20259
899.153	20119
899.273	20054
899.393	20221
899.513	20111
899.633	20271
899.753	20172
899.873	20168
899.993	20081
900.113	20077
900.232	20107
900.352	19974
900.472	19967
900.591	19894
900.711	20008
900.83	19811
900.95	20134
901.069	20035
901.189	19887
901.308	19738
901.427	19460
901.546	19438
901.665	19510
901.784	19472
901.904	19362
902.023	19354
902.141	19118
902.26	19053
902.379	19034
902.498	19034
902.617	18996
902.735	18989
902.854	18947
902.973	18954
903.091	18779
903.21	18779
903.328	18745
903.446	18627
903.565	18456
903.683	18525
903.801	18327
903.919	18452
904.038	18437
904.156	18285
904.274	18319
904.392	18262
904.51	18258
904.627	18399
904.745	18289
904.863	18304
904.981	18057
905.098	17980
905.216	17961
905.334	17973
905.451	17927
905.569	17912
905.686	17980
905.803	17836
905.921	17684
906.038	17935
906.155	17805
906.272	17714
906.389	17703
906.506	17554
906.623	17547
906.74	17383
906.857	17414
906.974	17337
907.091	17417
907.208	17497
907.324	17577
907.441	17440
907.557	17345
907.674	17254
907.79	17174
907.907	17208
908.023	17189
908.139	17273
908.256	17189
908.372	17132
908.488	17109
908.604	16942
908.72	16881
908.836	16972
908.952	16942
909.068	16938
909.184	17014
909.3	16953
909.415	16976
909.531	16869
909.647	16778
909.762	16698
909.878	16584
909.993	16611
910.108	16527
910.224	16561
910.339	16607
910.454	16466
910.57	16417
910.685	16379
910.8	16603
910.915	16535
911.03	16424
911.145	16360
911.259	16257
911.374	16219
911.489	16055
911.604	16143
911.718	15907
911.833	15994
911.947	15835
912.062	15804
912.176	15972
912.291	15949
912.405	15960
912.519	16131
912.633	16173
912.748	15934
912.862	15857
912.976	15736
913.09	15622
913.204	15751
913.318	15781
913.431	15770
913.545	15857
913.659	15930
913.772	15679
913.886	15686
914	15576
914.113	15717
914.226	15682
914.34	15587
914.453	15431
914.566	15523
914.68	15488
914.793	15523
914.906	15275
915.019	15173
915.132	15154
915.245	15203
915.358	15176
915.47	15180
915.583	15294
915.696	15260
915.809	15256
915.921	15321
916.034	15135
916.146	15176
916.259	15203
916.371	15211
916.483	15218
916.595	15039
916.708	15085
916.82	15024
916.932	14902
917.044	15028
917.156	14925
917.268	14792
917.38	14800
917.491	14792
917.603	14883
917.715	14857
917.826	14944
917.938	14659
918.049	14667
918.161	14781
918.272	14963
918.384	14807
918.495	14651
918.606	14651
918.717	14469
918.828	14659
918.939	14610
919.05	14583
919.161	14682
919.272	14511
919.383	14469
919.494	14587
919.604	14735
919.715	14606
919.826	14446
919.936	14511
920.047	14606
920.157	14587
920.267	14697
920.378	14587
920.488	14423
920.598	14682
920.708	14769
920.818	14724
920.928	14727
921.038	14838
921.148	14807
921.258	14507
921.368	14431
921.477	14362
921.587	14221
921.697	14240
921.806	14305
921.916	14240
922.025	13955
922.134	13852
922.244	13849
922.353	13932
922.462	13811
922.571	13719
922.68	13601
922.789	13609
922.898	13590
923.007	13556
923.116	13643
923.224	13506
923.333	13476
923.442	13529
923.55	13384
923.659	13407
923.767	13301
923.876	13274
923.984	13445
924.092	13339
924.201	13339
924.309	13346
924.417	13324
924.525	13228
924.633	13251
924.741	14202
924.849	13004
924.956	13221
925.064	13019
925.172	12928
925.279	13015
925.387	13034
925.494	12947
925.602	13129
925.709	12996
925.816	12867
925.924	12977
926.031	12958
926.138	12943
926.245	13038
926.352	12871
926.459	13061
926.566	12947
926.673	12772
926.779	12681
926.886	12688
926.993	12635
927.099	12639
927.206	12547
927.312	12517
927.419	12578
927.525	12525
927.631	12559
927.737	12372
927.843	12365
927.95	12334
928.056	12429
928.162	12369
928.267	12403
928.373	12993
928.479	12490
928.585	12235
928.69	12262
928.796	12357
928.901	12289
929.007	12121
929.112	12178
929.218	12152
929.323	12152
929.428	12083
929.533	12247
929.638	12117
929.743	11961
929.848	12133
929.953	12026
930.058	11961
930.163	11760
930.267	11828
930.372	11908
930.477	11691
930.581	11969
930.685	11882
930.79	11688
930.894	11672
930.998	11680
931.103	11767
931.207	11501
931.311	11356
931.415	11345
931.519	11060
931.623	11083
