Data from test_V78500241_464.txt Node
Date: Fri Mar 25 15:13:05 CST 2022
User: usil
Spectrometer: V785-0024
Trigger mode: 0
Integration Time (sec): 4.000000E-1
Scans to average: 1
Nonlinearity correction enabled: false
Boxcar width: 0
Storing dark spectrum: false
XAxis mode: Wavelengths
Number of Pixels in Spectrum: 1024
>>>>>Begin Spectral Data<<<<<
801.071	27492
801.214	27332
801.356	27112
801.499	27138
801.641	26883
801.783	26918
801.926	27127
802.068	26891
802.211	26899
802.353	26750
802.496	26720
802.638	26617
802.78	26568
802.923	26571
803.065	26583
803.208	26659
803.35	26518
803.492	26617
803.635	26678
803.777	26674
803.919	26697
804.061	27150
804.204	26834
804.346	26568
804.488	26564
804.63	26792
804.773	26594
804.915	26686
805.057	26861
805.199	26689
805.341	26906
805.483	26887
805.626	26781
805.768	26724
805.91	26758
806.052	26807
806.194	26804
806.336	26933
806.478	26883
806.62	26895
806.762	26963
806.904	27226
807.046	27252
807.188	27237
807.33	27207
807.472	27355
807.614	27237
807.756	27279
807.898	27081
808.04	26982
808.182	27047
808.324	27055
808.465	27047
808.607	27230
808.749	27336
808.891	27466
809.033	27614
809.174	27599
809.316	27370
809.458	27534
809.6	27580
809.741	27542
809.883	27622
810.025	27591
810.166	27599
810.308	27770
810.45	27660
810.591	27804
810.733	27599
810.875	27431
811.016	27420
811.158	27329
811.299	27469
811.441	27671
811.582	27500
811.724	27439
811.865	27519
812.007	27530
812.148	27405
812.29	27439
812.431	27549
812.573	27850
812.714	27835
812.855	27934
812.997	28109
813.138	28265
813.279	28082
813.421	28051
813.562	27979
813.703	27846
813.845	27641
813.986	27336
814.127	27268
814.268	27184
814.41	27222
814.551	27195
814.692	27279
814.833	27096
814.974	27047
815.115	27184
815.256	27032
815.397	27032
815.539	27024
815.68	26845
815.821	26944
815.962	26834
816.103	26944
816.244	26792
816.385	26644
816.526	26708
816.666	26514
816.807	26484
816.948	26396
817.089	26571
817.23	26549
817.371	26484
817.512	26453
817.653	26377
817.793	26438
817.934	26351
818.075	26351
818.216	26446
818.356	26301
818.497	26221
818.638	26088
818.778	26252
818.919	26168
819.06	26218
819.2	26275
819.341	26427
819.481	26461
819.622	26450
819.762	26735
819.903	26651
820.043	26663
820.184	26518
820.324	26571
820.465	26537
820.605	26488
820.746	26450
820.886	26385
821.026	26492
821.167	26393
821.307	26473
821.447	26366
821.588	26278
821.728	26180
821.868	26096
822.008	25955
822.149	25894
822.289	25856
822.429	25590
822.569	25677
822.709	25518
822.849	25346
822.99	25388
823.13	25301
823.27	25247
823.41	25148
823.55	25061
823.69	25202
823.83	25221
823.97	25202
824.11	25072
824.25	24932
824.389	25088
824.529	25088
824.669	25019
824.809	25095
824.949	25034
825.089	25107
825.228	25069
825.368	24863
825.508	24833
825.648	24909
825.787	24932
825.927	24989
826.067	24817
826.206	24852
826.346	24928
826.485	24985
826.625	24913
826.765	24970
826.904	24958
827.044	24631
827.183	24665
827.323	24460
827.462	24650
827.601	24646
827.741	24616
827.88	24711
828.02	24315
828.159	24559
828.298	24559
828.437	24730
828.577	24521
828.716	24692
828.855	24475
828.994	24456
829.134	24273
829.273	24433
829.412	24448
829.551	24361
829.69	24277
829.829	24232
829.968	24437
830.107	24456
830.246	24376
830.385	24167
830.524	24273
830.663	24174
830.802	23977
830.941	23927
831.08	24022
831.219	23992
831.357	24121
831.496	24060
831.635	24038
831.774	24030
831.913	23821
832.051	23832
832.19	23893
832.329	23813
832.467	23672
832.606	23684
832.744	23684
832.883	23551
833.022	23585
833.16	23623
833.299	23748
833.437	23680
833.576	23684
833.714	23756
833.852	23817
833.991	23729
834.129	23802
834.267	23790
834.406	23668
834.544	23718
834.682	23726
834.821	23733
834.959	23737
835.097	23611
835.235	23752
835.373	23627
835.511	23619
835.65	23433
835.788	23661
835.926	23395
836.064	23349
836.202	23433
836.34	23566
836.478	23581
836.615	23543
836.753	23520
836.891	23600
837.029	23452
837.167	23524
837.305	23417
837.443	23558
837.58	23452
837.718	23429
837.856	23516
837.993	23353
838.131	23353
838.269	23307
838.406	23212
838.544	23189
838.681	23025
838.819	23117
838.956	22957
839.094	22911
839.231	22938
839.369	23029
839.506	23364
839.643	23140
839.781	22854
839.918	22698
840.055	22873
840.193	22835
840.33	22790
840.467	22869
840.604	22858
840.742	23071
840.879	22694
841.016	22729
841.153	22759
841.29	22976
841.427	22873
841.564	22858
841.701	22767
841.838	22755
841.975	22706
842.112	22805
842.249	22683
842.385	22424
842.522	22702
842.659	22592
842.796	22516
842.933	22497
843.069	22588
843.206	22691
843.343	22584
843.479	22550
843.616	22497
843.752	22462
843.889	22230
844.025	22512
844.162	22242
844.298	22462
844.435	22500
844.571	22409
844.708	22421
844.844	22550
844.98	22489
845.117	22474
845.253	22417
845.389	22188
845.525	22337
845.661	22215
845.798	22112
845.934	22063
846.07	22055
846.206	22097
846.342	22261
846.478	22169
846.614	21732
846.75	21778
846.886	21743
847.022	21983
847.158	21804
847.294	21766
847.429	21766
847.565	21701
847.701	22074
847.837	21557
847.972	21561
848.108	21656
848.244	21675
848.379	21530
848.515	21454
848.65	21359
848.786	21526
848.921	21488
849.057	21583
849.192	21401
849.328	21511
849.463	21397
849.598	21344
849.734	21241
849.869	21272
850.004	21241
850.14	21241
850.275	21135
850.41	21146
850.545	21077
850.68	21100
850.815	21249
850.95	21154
851.085	21294
851.22	21306
851.355	21188
851.49	21135
851.625	21249
851.76	21176
851.895	21146
852.03	21150
852.165	21211
852.299	21077
852.434	21214
852.569	21256
852.703	21226
852.838	21336
852.973	21313
853.107	21310
853.242	21146
853.376	21013
853.511	20967
853.645	21043
853.78	21096
853.914	21077
854.048	20986
854.183	20986
854.317	20929
854.451	20982
854.585	21058
854.72	20982
854.854	21032
854.988	20998
855.122	20887
855.256	20944
855.39	20967
855.524	21104
855.658	21055
855.792	21017
855.926	21066
856.06	21085
856.194	21055
856.327	20982
856.461	20883
856.595	20921
856.729	20929
856.862	20971
856.996	20941
857.13	20971
857.263	21055
857.397	21055
857.53	21055
857.664	20982
857.797	21093
857.931	21051
858.064	21047
858.197	21096
858.331	20944
858.464	20823
858.597	20845
858.731	20948
858.864	20925
858.997	20971
859.13	20944
859.263	20906
859.396	21154
859.529	20902
859.662	20864
859.795	20815
859.928	20944
860.061	21138
860.194	21195
860.327	21013
860.46	20921
860.592	21131
860.725	21085
860.858	21009
860.99	20990
861.123	20929
861.256	20967
861.388	21001
861.521	21736
861.653	20914
861.786	20800
861.918	20902
862.05	20906
862.183	20941
862.315	20902
862.447	21062
862.58	20746
862.712	20754
862.844	20739
862.976	20724
863.108	20735
863.24	21184
863.372	20514
863.504	20693
863.636	20788
863.768	20758
863.9	20689
864.032	20640
864.164	20575
864.296	20674
864.428	20712
864.559	20807
864.691	20765
864.823	20712
864.954	20765
865.086	20708
865.217	20663
865.349	20579
865.48	20606
865.612	20663
865.743	20750
865.875	20598
866.006	20621
866.137	20720
866.269	20606
866.4	20632
866.531	20609
866.662	20480
866.793	20568
866.924	20503
867.055	20594
867.186	20651
867.317	20434
867.448	20434
867.579	20541
867.71	20499
867.841	20530
867.972	20590
868.103	20492
868.233	20522
868.364	20636
868.495	20613
868.625	20849
868.756	20857
868.886	20644
869.017	20754
869.147	20925
869.278	21036
869.408	20754
869.539	20739
869.669	20792
869.799	20800
869.929	21009
870.06	20861
870.19	21085
870.32	21093
870.45	21070
870.58	21127
870.71	21272
870.84	21237
870.97	21089
871.1	21176
871.23	21325
871.36	21302
871.489	21264
871.619	21355
871.749	21443
871.879	21462
872.008	21408
872.138	21344
872.267	21386
872.397	21249
872.526	21100
872.656	21226
872.785	21188
872.915	21439
873.044	21412
873.173	21340
873.303	21431
873.432	21420
873.561	21523
873.69	21306
873.819	21454
873.948	21511
874.077	21389
874.206	21344
874.335	21542
874.464	21431
874.593	21671
874.722	21591
874.851	21682
874.979	21747
875.108	21644
875.237	21561
875.365	21603
875.494	21492
875.623	21701
875.751	21591
875.88	21667
876.008	21759
876.136	21770
876.265	21918
876.393	22166
876.521	22101
876.65	22086
876.778	21983
876.906	21937
877.034	22010
877.162	21991
877.29	21880
877.418	21934
877.546	22143
877.674	22002
877.802	22002
877.93	21991
878.058	21895
878.185	21835
878.313	21960
878.441	22021
878.568	21854
878.696	21903
878.824	21991
878.951	22223
879.079	22181
879.206	22181
879.333	22101
879.461	22093
879.588	22055
879.715	22143
879.842	22173
879.97	21987
880.097	21759
880.224	21804
880.351	21861
880.478	21682
880.605	21762
880.732	21717
880.859	22051
880.986	21682
881.112	21835
881.239	21835
881.366	21515
881.493	21481
881.619	21397
881.746	21382
881.872	21329
881.999	21264
882.125	21310
882.252	21397
882.378	21378
882.505	21477
882.631	21157
882.757	21100
882.883	21157
883.01	21077
883.136	21119
883.262	21036
883.388	21058
883.514	21108
883.64	21089
883.766	21119
883.892	20952
884.018	20762
884.143	21055
884.269	21070
884.395	20880
884.52	20651
884.646	20746
884.772	20644
884.897	20655
885.023	20758
885.148	20811
885.274	20899
885.399	20765
885.524	20765
885.65	20800
885.775	20823
885.9	20845
886.025	20815
886.15	20788
886.275	20705
886.4	20590
886.525	20720
886.65	20575
886.775	20667
886.9	20815
887.025	20906
887.149	20686
887.274	20575
887.399	20438
887.523	20564
887.648	20530
887.773	20381
887.897	20621
888.021	20629
888.146	20396
888.27	20514
888.395	20545
888.519	20473
888.643	20594
888.767	20518
888.891	20298
889.015	20210
889.139	20427
889.263	20263
889.387	20518
889.511	20541
889.635	20438
889.759	20248
889.883	20355
890.006	20313
890.13	20362
890.254	20225
890.377	20263
890.501	20126
890.624	20043
890.748	20119
890.871	19887
890.995	19871
891.118	19875
891.241	19906
891.364	19837
891.488	19898
891.611	19902
891.734	20005
891.857	19986
891.98	19864
892.103	19921
892.226	19894
892.349	19822
892.471	19670
892.594	19830
892.717	19769
892.839	19734
892.962	19765
893.085	19715
893.207	19750
893.33	19643
893.452	19689
893.575	19841
893.697	19685
893.819	19921
893.941	19989
894.064	20065
894.186	19712
894.308	19685
894.43	19894
894.552	19887
894.674	19909
894.796	19727
894.918	19780
895.04	19700
895.161	19849
895.283	19742
895.405	19674
895.526	19826
895.648	19822
895.769	19742
895.891	19833
896.012	19906
896.134	19989
896.255	19723
896.376	19712
896.498	19788
896.619	19693
896.74	19784
896.861	19826
896.982	20043
897.103	20218
897.224	20016
897.345	19951
897.466	19955
897.587	20084
897.708	20130
897.828	19989
897.949	19982
898.07	19913
898.19	19837
898.311	20062
898.431	19890
898.552	19849
898.672	20001
898.792	20138
898.913	20024
899.033	19906
899.153	19826
899.273	19731
899.393	19780
899.513	19753
899.633	19841
899.753	19849
899.873	19662
899.993	19913
900.113	19708
900.232	19833
900.352	19795
900.472	19499
900.591	19476
900.711	19586
900.83	19540
900.95	19643
901.069	19567
901.189	19422
901.308	19278
901.427	19110
901.546	19187
901.665	19122
901.784	19160
901.904	19023
902.023	18924
902.141	18730
902.26	18726
902.379	18768
902.498	18608
902.617	18612
902.735	18559
902.854	18692
902.973	18620
903.091	18289
903.21	18281
903.328	18323
903.446	18228
903.565	18125
903.683	18114
903.801	18019
903.919	18106
904.038	18068
904.156	17878
904.274	17916
904.392	17931
904.51	17836
904.627	17889
904.745	17885
904.863	17984
904.981	17680
905.098	17562
905.216	17520
905.334	17680
905.451	17581
905.569	17505
905.686	17665
905.803	17554
905.921	17448
906.038	17482
906.155	17417
906.272	17341
906.389	17269
906.506	17113
906.623	17132
906.74	17147
906.857	17048
906.974	16980
907.091	17098
907.208	17113
907.324	17121
907.441	17025
907.557	16915
907.674	16843
907.79	16774
907.907	16782
908.023	16942
908.139	16805
908.256	16740
908.372	16675
908.488	16744
908.604	16565
908.72	16546
908.836	16679
908.952	16577
909.068	16592
909.184	16729
909.3	16569
909.415	16618
909.531	16607
909.647	16276
909.762	16215
909.878	16246
909.993	16341
910.108	16223
910.224	16150
910.339	16295
910.454	16230
910.57	16120
910.685	16036
910.8	16306
910.915	16200
911.03	16097
911.145	15930
911.259	15865
911.374	15857
911.489	15793
911.604	15812
911.718	15625
911.833	15587
911.947	15428
912.062	15447
912.176	15523
912.291	15656
912.405	15564
912.519	15701
912.633	15774
912.748	15622
912.862	15629
912.976	15530
913.09	15397
913.204	15397
913.318	15492
913.431	15561
913.545	15568
913.659	15545
913.772	15348
913.886	15321
914	15237
914.113	15211
914.226	15363
914.34	15249
914.453	15127
914.566	15184
914.68	15176
914.793	15123
914.906	14963
915.019	14815
915.132	14861
915.245	14864
915.358	14849
915.47	14895
915.583	14861
915.696	14918
915.809	14982
915.921	15089
916.034	14720
916.146	14769
916.259	14762
916.371	14872
916.483	14781
916.595	14670
916.708	14712
916.82	14765
916.932	14663
917.044	14651
917.156	14674
917.268	14495
917.38	14571
917.491	14549
917.603	14587
917.715	14613
917.826	14480
917.938	14412
918.049	14229
918.161	14564
918.272	14545
918.384	14636
918.495	14488
918.606	14389
918.717	14240
918.828	14362
918.939	14294
919.05	14218
919.161	14267
919.272	14107
919.383	14081
919.494	14415
919.604	14454
919.715	14248
919.826	14123
919.936	14168
920.047	14332
920.157	14237
920.267	14457
920.378	14240
920.488	14259
920.598	14465
920.708	14495
920.818	14336
920.928	14313
921.038	14545
921.148	14522
921.258	14195
921.368	14096
921.477	13993
921.587	13967
921.697	13799
921.806	13940
921.916	13795
922.025	13738
922.134	13670
922.244	13594
922.353	13609
922.462	13533
922.571	13460
922.68	13350
922.789	13270
922.898	13282
923.007	13179
923.116	13346
923.224	13232
923.333	13187
923.442	13164
923.55	13076
923.659	13118
923.767	13137
923.876	13057
923.984	13110
924.092	12935
924.201	13122
924.309	13050
924.417	13065
924.525	12973
924.633	12962
924.741	13871
924.849	12760
924.956	12856
925.064	12779
925.172	12627
925.279	12601
925.387	12745
925.494	12715
925.602	12916
925.709	12627
925.816	12589
925.924	12734
926.031	12764
926.138	12528
926.245	12681
926.352	12642
926.459	12722
926.566	12722
926.673	12532
926.779	12517
926.886	12422
926.993	12281
927.099	12285
927.206	12235
927.312	12243
927.419	12300
927.525	12296
927.631	12323
927.737	12247
927.843	12254
927.95	12133
928.056	12125
928.162	12098
928.267	12114
928.373	12726
928.479	12144
928.585	11961
928.69	12091
928.796	12148
928.901	12007
929.007	11779
929.112	11977
929.218	11904
929.323	11950
929.428	11889
929.533	11988
929.638	11821
929.743	11809
929.848	11942
929.953	11790
930.058	11661
930.163	11486
930.267	11562
930.372	11668
930.477	11543
930.581	11726
930.685	11608
930.79	11493
930.894	11551
930.998	11429
931.103	11474
931.207	11166
931.311	11064
931.415	10934
931.519	10820
931.623	10812
