Data from test_V78500241_399.txt Node
Date: Fri Mar 25 15:12:38 CST 2022
User: usil
Spectrometer: V785-0024
Trigger mode: 0
Integration Time (sec): 4.000000E-1
Scans to average: 1
Nonlinearity correction enabled: false
Boxcar width: 0
Storing dark spectrum: false
XAxis mode: Wavelengths
Number of Pixels in Spectrum: 1024
>>>>>Begin Spectral Data<<<<<
801.071	26994
801.214	26952
801.356	26838
801.499	26731
801.641	26556
801.783	26571
801.926	26682
802.068	26629
802.211	26431
802.353	26393
802.496	26278
802.638	26301
802.78	26172
802.923	26119
803.065	26069
803.208	26237
803.35	26199
803.492	26484
803.635	26453
803.777	26149
803.919	26309
804.061	26655
804.204	26267
804.346	26328
804.488	26103
804.63	26389
804.773	26195
804.915	26355
805.057	26427
805.199	26324
805.341	26400
805.483	26461
805.626	26305
805.768	26328
805.91	26431
806.052	26366
806.194	26423
806.336	26522
806.478	26370
806.62	26446
806.762	26579
806.904	26686
807.046	26933
807.188	26853
807.33	26788
807.472	26952
807.614	26693
807.756	26940
807.898	26663
808.04	26442
808.182	26674
808.324	26720
808.465	26602
808.607	26868
808.749	26944
808.891	27222
809.033	27283
809.174	27043
809.316	27005
809.458	27024
809.6	26857
809.741	27127
809.883	27127
810.025	27306
810.166	27203
810.308	27275
810.45	27214
810.591	27245
810.733	27020
810.875	27081
811.016	26868
811.158	26815
811.299	27051
811.441	27096
811.582	27024
811.724	26952
811.865	26998
812.007	26990
812.148	27077
812.29	26998
812.431	27081
812.573	27207
812.714	27275
812.855	27599
812.997	27526
813.138	27766
813.279	27671
813.421	27618
813.562	27325
813.703	27325
813.845	27176
813.986	26880
814.127	26769
814.268	26606
814.41	26606
814.551	26697
814.692	26682
814.833	26560
814.974	26575
815.115	26644
815.256	26499
815.397	26568
815.539	26503
815.68	26499
815.821	26412
815.962	26541
816.103	26431
816.244	26305
816.385	26176
816.526	26214
816.666	26107
816.807	25837
816.948	26081
817.089	26077
817.23	25883
817.371	25982
817.512	25932
817.653	25966
817.793	25868
817.934	25871
818.075	26031
818.216	25955
818.356	25856
818.497	25826
818.638	25719
818.778	25723
818.919	25643
819.06	25689
819.2	25898
819.341	25852
819.481	25955
819.622	26081
819.762	26206
819.903	26153
820.043	25955
820.184	26096
820.324	26069
820.465	26130
820.605	26096
820.746	26073
820.886	25917
821.026	25947
821.167	25902
821.307	26039
821.447	25906
821.588	25845
821.728	25811
821.868	25601
822.008	25479
822.149	25339
822.289	25472
822.429	25183
822.569	25088
822.709	24966
822.849	24913
822.99	25038
823.13	24817
823.27	24715
823.41	24681
823.55	24589
823.69	24646
823.83	24757
823.97	24585
824.11	24544
824.25	24544
824.389	24483
824.529	24555
824.669	24486
824.809	24601
824.949	24528
825.089	24555
825.228	24654
825.368	24456
825.508	24395
825.648	24338
825.787	24486
825.927	24536
826.067	24300
826.206	24308
826.346	24334
826.485	24414
826.625	24410
826.765	24448
826.904	24517
827.044	24148
827.183	24171
827.323	24072
827.462	24087
827.601	23969
827.741	24178
827.88	24121
828.02	23923
828.159	23988
828.298	24178
828.437	24133
828.577	24038
828.716	24125
828.855	24152
828.994	23855
829.134	23794
829.273	23821
829.412	23737
829.551	23729
829.69	23832
829.829	23866
829.968	23802
830.107	23969
830.246	23821
830.385	23680
830.524	23703
830.663	23592
830.802	23406
830.941	23433
831.08	23360
831.219	23436
831.357	23505
831.496	23570
831.635	23512
831.774	23345
831.913	23292
832.051	23277
832.19	23265
832.329	23337
832.467	23147
832.606	23212
832.744	23121
832.883	23162
833.022	23022
833.16	22965
833.299	23193
833.437	23117
833.576	23174
833.714	23258
833.852	23208
833.991	23261
834.129	23334
834.267	23284
834.406	23242
834.544	23318
834.682	23162
834.821	23094
834.959	23353
835.097	23178
835.235	23140
835.373	23185
835.511	23140
835.65	22999
835.788	23140
835.926	22919
836.064	22930
836.202	22987
836.34	23014
836.478	23208
836.615	23044
836.753	23048
836.891	23140
837.029	23067
837.167	23189
837.305	22949
837.443	22934
837.58	22828
837.718	23090
837.856	22767
837.993	22946
838.131	22900
838.269	22847
838.406	22816
838.544	22721
838.681	22470
838.819	22538
838.956	22394
839.094	22402
839.231	22382
839.369	22489
839.506	22767
839.643	22615
839.781	22413
839.918	22249
840.055	22314
840.193	22356
840.33	22303
840.467	22379
840.604	22352
840.742	22497
840.879	22196
841.016	22181
841.153	22322
841.29	22405
841.427	22424
841.564	22363
841.701	22242
841.838	22299
841.975	22192
842.112	22154
842.249	22181
842.385	22116
842.522	22329
842.659	22044
842.796	22044
842.933	22097
843.069	21941
843.206	22090
843.343	22181
843.479	22173
843.616	22055
843.752	21808
843.889	21873
844.025	22002
844.162	21728
844.298	21911
844.435	21945
844.571	21797
844.708	21827
844.844	22021
844.98	21968
845.117	21968
845.253	21770
845.389	21694
845.525	21751
845.661	21701
845.798	21568
845.934	21633
846.07	21610
846.206	21595
846.342	21732
846.478	21469
846.614	21511
846.75	21233
846.886	21462
847.022	21370
847.158	21408
847.294	21264
847.429	21439
847.565	21245
847.701	21564
847.837	21013
847.972	21081
848.108	21119
848.244	21138
848.379	21013
848.515	20952
848.65	20944
848.786	20967
848.921	20990
849.057	21062
849.192	20990
849.328	20883
849.463	20864
849.598	20986
849.734	20842
849.869	20823
850.004	20781
850.14	20823
850.275	20777
850.41	20716
850.545	20602
850.68	20659
850.815	20800
850.95	20655
851.085	20918
851.22	20834
851.355	20819
851.49	20651
851.625	20560
851.76	20705
851.895	20609
852.03	20484
852.165	20773
852.299	20773
852.434	20796
852.569	20727
852.703	20735
852.838	20697
852.973	20902
853.107	20929
853.242	20663
853.376	20640
853.511	20488
853.645	20507
853.78	20731
853.914	20583
854.048	20522
854.183	20556
854.317	20598
854.451	20716
854.585	20514
854.72	20473
854.854	20484
854.988	20522
855.122	20564
855.256	20396
855.39	20549
855.524	20663
855.658	20625
855.792	20564
855.926	20606
856.06	20560
856.194	20564
856.327	20549
856.461	20537
856.595	20579
856.729	20575
856.862	20571
856.996	20499
857.13	20526
857.263	20762
857.397	20640
857.53	20514
857.664	20488
857.797	20590
857.931	20606
858.064	20621
858.197	20598
858.331	20522
858.464	20377
858.597	20404
858.731	20469
858.864	20518
858.997	20575
859.13	20476
859.263	20609
859.396	20587
859.529	20480
859.662	20442
859.795	20457
859.928	20655
860.061	20663
860.194	20750
860.327	20609
860.46	20613
860.592	20530
860.725	20735
860.858	20590
860.99	20564
861.123	20533
861.256	20526
861.388	20476
861.521	21317
861.653	20362
861.786	20518
861.918	20313
862.05	20568
862.183	20396
862.315	20613
862.447	20571
862.58	20518
862.712	20244
862.844	20149
862.976	20351
863.108	20301
863.24	20716
863.372	20153
863.504	20256
863.636	20336
863.768	20328
863.9	20233
864.032	20157
864.164	20172
864.296	20381
864.428	20351
864.559	20393
864.691	20229
864.823	20248
864.954	20210
865.086	20233
865.217	20130
865.349	19959
865.48	20122
865.612	20039
865.743	20374
865.875	20263
866.006	20145
866.137	20225
866.269	20199
866.4	20096
866.531	20187
866.662	19951
866.793	20138
866.924	20073
867.055	20142
867.186	20172
867.317	20107
867.448	20100
867.579	20065
867.71	20050
867.841	20065
867.972	20096
868.103	20149
868.233	20157
868.364	20199
868.495	20195
868.625	20343
868.756	20457
868.886	20282
869.017	20275
869.147	20385
869.278	20473
869.408	20362
869.539	20313
869.669	20575
869.799	20415
869.929	20476
870.06	20454
870.19	20712
870.32	20530
870.45	20651
870.58	20693
870.71	20853
870.84	20834
870.97	20750
871.1	20659
871.23	21024
871.36	20956
871.489	20918
871.619	20910
871.749	20876
871.879	21062
872.008	21066
872.138	20998
872.267	20990
872.397	20792
872.526	20727
872.656	20720
872.785	20857
872.915	21009
873.044	20986
873.173	20971
873.303	21077
873.432	20967
873.561	21157
873.69	21020
873.819	20918
873.948	21043
874.077	20773
874.206	20914
874.335	21093
874.464	21096
874.593	21203
874.722	21089
874.851	21287
874.979	21161
875.108	21233
875.237	21180
875.365	21146
875.494	21089
875.623	21359
875.751	21131
875.88	21218
876.008	21340
876.136	21355
876.265	21583
876.393	21595
876.521	21682
876.65	21622
876.778	21644
876.906	21618
877.034	21557
877.162	21542
877.29	21473
877.418	21530
877.546	21572
877.674	21580
877.802	21591
877.93	21553
878.058	21587
878.185	21492
878.313	21469
878.441	21656
878.568	21367
878.696	21435
878.824	21576
878.951	21473
879.079	21747
879.206	21846
879.333	21641
879.461	21679
879.588	21701
879.715	21629
879.842	21846
879.97	21549
880.097	21416
880.224	21241
880.351	21485
880.478	21389
880.605	21256
880.732	21435
880.859	21599
880.986	21454
881.112	21363
881.239	21135
881.366	21195
881.493	21176
881.619	20933
881.746	21013
881.872	20998
881.999	20906
882.125	21001
882.252	21108
882.378	20971
882.505	21119
882.631	20796
882.757	20823
882.883	20720
883.01	20659
883.136	20514
883.262	20514
883.388	20533
883.514	20701
883.64	20762
883.766	20484
883.892	20434
884.018	20438
884.143	20571
884.269	20693
884.395	20305
884.52	20271
884.646	20305
884.772	20153
884.897	20237
885.023	20351
885.148	20450
885.274	20507
885.399	20427
885.524	20400
885.65	20389
885.775	20320
885.9	20259
886.025	20473
886.15	20271
886.275	20244
886.4	20240
886.525	20263
886.65	20278
886.775	20202
886.9	20450
887.025	20659
887.149	20374
887.274	20191
887.399	20081
887.523	20065
887.648	20031
887.773	20054
887.897	20172
888.021	20043
888.146	19982
888.27	20240
888.395	20225
888.519	20122
888.643	20145
888.767	20153
888.891	20153
889.015	19753
889.139	19883
889.263	19902
889.387	20035
889.511	20134
889.635	20027
889.759	19871
889.883	19791
890.006	19959
890.13	19986
890.254	19742
890.377	19917
890.501	19734
890.624	19586
890.748	19750
890.871	19563
890.995	19495
891.118	19480
891.241	19601
891.364	19540
891.488	19510
891.611	19529
891.734	19529
891.857	19597
891.98	19499
892.103	19609
892.226	19537
892.349	19354
892.471	19400
892.594	19445
892.717	19506
892.839	19419
892.962	19327
893.085	19403
893.207	19396
893.33	19247
893.452	19293
893.575	19464
893.697	19343
893.819	19518
893.941	19609
894.064	19525
894.186	19312
894.308	19171
894.43	19476
894.552	19510
894.674	19449
894.796	19346
894.918	19381
895.04	19457
895.161	19514
895.283	19426
895.405	19407
895.526	19411
895.648	19403
895.769	19426
895.891	19430
896.012	19514
896.134	19476
896.255	19480
896.376	19407
896.498	19365
896.619	19419
896.74	19521
896.861	19468
896.982	19689
897.103	19803
897.224	19662
897.345	19632
897.466	19525
897.587	19757
897.708	19719
897.828	19575
897.949	19521
898.07	19457
898.19	19639
898.311	19666
898.431	19518
898.552	19582
898.672	19731
898.792	19662
898.913	19734
899.033	19529
899.153	19407
899.273	19407
899.393	19327
899.513	19521
899.633	19468
899.753	19388
899.873	19278
899.993	19449
900.113	19312
900.232	19396
900.352	19358
900.472	19232
900.591	19168
900.711	19118
900.83	19133
900.95	19327
901.069	19244
901.189	19126
901.308	18882
901.427	18779
901.546	18783
901.665	18798
901.784	18821
901.904	18627
902.023	18593
902.141	18319
902.26	18266
902.379	18361
902.498	18304
902.617	18235
902.735	18350
902.854	18350
902.973	18148
903.091	17916
903.21	17920
903.328	17942
903.446	17912
903.565	17824
903.683	17798
903.801	17745
903.919	17748
904.038	17665
904.156	17615
904.274	17589
904.392	17410
904.51	17535
904.627	17558
904.745	17653
904.863	17596
904.981	17273
905.098	17159
905.216	17254
905.334	17227
905.451	17261
905.569	17208
905.686	17383
905.803	17223
905.921	17067
906.038	17174
906.155	17064
906.272	17071
906.389	16965
906.506	16733
906.623	16881
906.74	16729
906.857	16710
906.974	16641
907.091	16710
907.208	16927
907.324	16854
907.441	16660
907.557	16569
907.674	16390
907.79	16485
907.907	16500
908.023	16588
908.139	16451
908.256	16379
908.372	16325
908.488	16261
908.604	16249
908.72	16173
908.836	16257
908.952	16204
909.068	16306
909.184	16382
909.3	16177
909.415	16284
909.531	16257
909.647	15991
909.762	15956
909.878	15972
909.993	15972
910.108	15926
910.224	15895
910.339	15861
910.454	15911
910.57	15739
910.685	15656
910.8	15991
910.915	15857
911.03	15785
911.145	15614
911.259	15549
911.374	15504
911.489	15507
911.604	15382
911.718	15336
911.833	15268
911.947	15184
912.062	15116
912.176	15306
912.291	15359
912.405	15260
912.519	15576
912.633	15481
912.748	15397
912.862	15344
912.976	15097
913.09	15020
913.204	15093
913.318	15157
913.431	15146
913.545	15176
913.659	15302
913.772	15138
913.886	14994
914	14891
914.113	14986
914.226	14994
914.34	14960
914.453	14830
914.566	15047
914.68	14868
914.793	14842
914.906	14629
915.019	14686
915.132	14560
915.245	14541
915.358	14579
915.47	14488
915.583	14427
915.696	14587
915.809	14621
915.921	14659
916.034	14499
916.146	14446
916.259	14427
916.371	14644
916.483	14518
916.595	14427
916.708	14431
916.82	14389
916.932	14343
917.044	14339
917.156	14400
917.268	14275
917.38	14225
917.491	14263
917.603	14317
917.715	14362
917.826	14259
917.938	14278
918.049	13989
918.161	14176
918.272	14336
918.384	14343
918.495	14221
918.606	14046
918.717	13967
918.828	14035
918.939	14031
919.05	13928
919.161	13902
919.272	13780
919.383	13864
919.494	14065
919.604	14183
919.715	14088
919.826	13963
919.936	13978
920.047	14039
920.157	14016
920.267	14195
920.378	14039
920.488	13925
920.598	14100
920.708	14294
920.818	14111
920.928	14115
921.038	14240
921.148	14259
921.258	13909
921.368	13989
921.477	13780
921.587	13658
921.697	13563
921.806	13666
921.916	13540
922.025	13430
922.134	13453
922.244	13282
922.353	13381
922.462	13320
922.571	13175
922.68	13149
922.789	13065
922.898	13122
923.007	13004
923.116	13004
923.224	12954
923.333	12947
923.442	12848
923.55	12825
923.659	12837
923.767	12977
923.876	12798
923.984	12863
924.092	12795
924.201	12833
924.309	12802
924.417	12707
924.525	12757
924.633	12700
924.741	13616
924.849	12513
924.956	12658
925.064	12490
925.172	12380
925.279	12471
925.387	12486
925.494	12467
925.602	12654
925.709	12570
925.816	12445
925.924	12464
926.031	12551
926.138	12403
926.245	12452
926.352	12365
926.459	12460
926.566	12483
926.673	12369
926.779	12239
926.886	12205
926.993	12110
927.099	12106
927.206	12015
927.312	11977
927.419	11999
927.525	12060
927.631	12049
927.737	11878
927.843	11908
927.95	11817
928.056	11870
928.162	11874
928.267	11996
928.373	12517
928.479	11946
928.585	11707
928.69	11859
928.796	11851
928.901	11767
929.007	11737
929.112	11794
929.218	11672
929.323	11638
929.428	11623
929.533	11779
929.638	11535
929.743	11589
929.848	11630
929.953	11623
930.058	11433
930.163	11318
930.267	11349
930.372	11448
930.477	11299
930.581	11482
930.685	11284
930.79	11201
930.894	11178
930.998	11235
931.103	11345
931.207	11071
931.311	10881
931.415	10736
931.519	10691
931.623	10706
