Data from test_V78500241_3560.txt Node
Date: Fri Mar 25 15:34:38 CST 2022
User: usil
Spectrometer: V785-0024
Trigger mode: 0
Integration Time (sec): 4.000000E-1
Scans to average: 1
Nonlinearity correction enabled: false
Boxcar width: 0
Storing dark spectrum: false
XAxis mode: Wavelengths
Number of Pixels in Spectrum: 1024
>>>>>Begin Spectral Data<<<<<
801.071	27272
801.214	27150
801.356	27043
801.499	26895
801.641	26838
801.783	26823
801.926	27017
802.068	26807
802.211	26644
802.353	26693
802.496	26560
802.638	26396
802.78	26301
802.923	26526
803.065	26393
803.208	26301
803.35	26442
803.492	26659
803.635	26564
803.777	26431
803.919	26670
804.061	26857
804.204	26697
804.346	26461
804.488	26457
804.63	26568
804.773	26503
804.915	26541
805.057	26590
805.199	26621
805.341	26667
805.483	26724
805.626	26651
805.768	26590
805.91	26727
806.052	26773
806.194	26724
806.336	26883
806.478	26765
806.62	26735
806.762	26697
806.904	26872
807.046	27218
807.188	27077
807.33	27119
807.472	27116
807.614	27127
807.756	27203
807.898	27013
808.04	26861
808.182	26845
808.324	26963
808.465	27024
808.607	27173
808.749	27340
808.891	27249
809.033	27424
809.174	27386
809.316	27302
809.458	27351
809.6	27180
809.741	27454
809.883	27458
810.025	27553
810.166	27523
810.308	27637
810.45	27542
810.591	27424
810.733	27397
810.875	27279
811.016	27161
811.158	27104
811.299	27249
811.441	27340
811.582	27439
811.724	27256
811.865	27344
812.007	27287
812.148	27226
812.29	27245
812.431	27500
812.573	27641
812.714	27690
812.855	27720
812.997	27888
813.138	27892
813.279	27899
813.421	27812
813.562	27660
813.703	27526
813.845	27500
813.986	27184
814.127	26967
814.268	26933
814.41	26876
814.551	26883
814.692	26834
814.833	26815
814.974	26925
815.115	26868
815.256	26773
815.397	26781
815.539	26853
815.68	26659
815.821	26712
815.962	26754
816.103	26739
816.244	26503
816.385	26541
816.526	26503
816.666	26396
816.807	26149
816.948	26328
817.089	26317
817.23	26130
817.371	26263
817.512	26138
817.653	26233
817.793	26126
817.934	26290
818.075	26176
818.216	26145
818.356	26153
818.497	26149
818.638	25944
818.778	25993
818.919	25959
819.06	25932
819.2	26115
819.341	26176
819.481	26130
819.622	26290
819.762	26556
819.903	26332
820.043	26412
820.184	26366
820.324	26225
820.465	26370
820.605	26339
820.746	26202
820.886	26035
821.026	26240
821.167	26256
821.307	26438
821.447	26164
821.588	26153
821.728	26035
821.868	25826
822.008	25856
822.149	25662
822.289	25632
822.429	25407
822.569	25304
822.709	25354
822.849	25255
822.99	25133
823.13	25206
823.27	25084
823.41	24962
823.55	25019
823.69	24977
823.83	25004
823.97	24947
824.11	24791
824.25	24776
824.389	24920
824.529	24844
824.669	24833
824.809	24973
824.949	24886
825.089	24943
825.228	25027
825.368	24681
825.508	24700
825.648	24597
825.787	24757
825.927	24669
826.067	24650
826.206	24669
826.346	24768
826.485	24745
826.625	24623
826.765	24814
826.904	24665
827.044	24452
827.183	24452
827.323	24346
827.462	24490
827.601	24407
827.741	24388
827.88	24441
828.02	24300
828.159	24296
828.298	24357
828.437	24369
828.577	24330
828.716	24528
828.855	24483
828.994	24117
829.134	24190
829.273	24121
829.412	24091
829.551	23984
829.69	24083
829.829	24091
829.968	24159
830.107	24197
830.246	24095
830.385	24087
830.524	24060
830.663	24045
830.802	23817
830.941	23748
831.08	23722
831.219	23885
831.357	23756
831.496	23897
831.635	23752
831.774	23672
831.913	23714
832.051	23531
832.19	23398
832.329	23623
832.467	23395
832.606	23376
832.744	23341
832.883	23414
833.022	23322
833.16	23448
833.299	23337
833.437	23391
833.576	23444
833.714	23414
833.852	23512
833.991	23558
834.129	23570
834.267	23459
834.406	23528
834.544	23524
834.682	23547
834.821	23554
834.959	23649
835.097	23535
835.235	23497
835.373	23501
835.511	23444
835.65	23337
835.788	23353
835.926	23239
836.064	23121
836.202	23254
836.34	23345
836.478	23341
836.615	23315
836.753	23246
836.891	23414
837.029	23334
837.167	23159
837.305	23212
837.443	23296
837.58	23197
837.718	23261
837.856	23250
837.993	23124
838.131	23204
838.269	23064
838.406	23105
838.544	23132
838.681	22793
838.819	22854
838.956	22782
839.094	22584
839.231	22713
839.369	22866
839.506	23041
839.643	22999
839.781	22683
839.918	22554
840.055	22698
840.193	22691
840.33	22565
840.467	22672
840.604	22771
840.742	22790
840.879	22440
841.016	22508
841.153	22421
841.29	22592
841.427	22653
841.564	22729
841.701	22500
841.838	22535
841.975	22512
842.112	22630
842.249	22455
842.385	22402
842.522	22577
842.659	22451
842.796	22314
842.933	22390
843.069	22310
843.206	22337
843.343	22363
843.479	22379
843.616	22280
843.752	22249
843.889	22082
844.025	22249
844.162	22143
844.298	22223
844.435	22112
844.571	22143
844.708	22185
844.844	22246
844.98	22215
845.117	22314
845.253	22105
845.389	21876
845.525	22044
845.661	22029
845.798	21819
845.934	21850
846.07	21884
846.206	21968
846.342	22048
846.478	21956
846.614	21625
846.75	21675
846.886	21583
847.022	21694
847.158	21564
847.294	21671
847.429	21679
847.565	21644
847.701	21819
847.837	21397
847.972	21294
848.108	21450
848.244	21397
848.379	21325
848.515	21241
848.65	21135
848.786	21138
848.921	21218
849.057	21283
849.192	21279
849.328	21214
849.463	21203
849.598	21226
849.734	21096
849.869	21211
850.004	20975
850.14	21055
850.275	21066
850.41	20902
850.545	21028
850.68	20899
850.815	21081
850.95	21013
851.085	21112
851.22	21093
851.355	21051
851.49	20971
851.625	20918
851.76	20952
851.895	20937
852.03	20891
852.165	20918
852.299	21032
852.434	21005
852.569	20986
852.703	20986
852.838	21013
852.973	21096
853.107	21104
853.242	20861
853.376	20800
853.511	20758
853.645	20705
853.78	20933
853.914	20743
854.048	20815
854.183	20792
854.317	20743
854.451	20975
854.585	20750
854.72	20750
854.854	20948
854.988	20686
855.122	20804
855.256	20815
855.39	20849
855.524	20823
855.658	20937
855.792	20800
855.926	20933
856.06	20815
856.194	20765
856.327	20819
856.461	20762
856.595	20769
856.729	20834
856.862	20823
856.996	20872
857.13	20902
857.263	20849
857.397	20883
857.53	20743
857.664	20861
857.797	20796
857.931	20849
858.064	20838
858.197	20845
858.331	20746
858.464	20826
858.597	20743
858.731	20693
858.864	20663
858.997	20667
859.13	20830
859.263	20826
859.396	20998
859.529	20857
859.662	20712
859.795	20815
859.928	20773
860.061	20906
860.194	20963
860.327	20834
860.46	20705
860.592	20880
860.725	20952
860.858	20887
860.99	20800
861.123	20659
861.256	20781
861.388	20792
861.521	21576
861.653	20750
861.786	20583
861.918	20617
862.05	20746
862.183	20708
862.315	20807
862.447	20792
862.58	20606
862.712	20518
862.844	20522
862.976	20602
863.108	20617
863.24	20925
863.372	20541
863.504	20503
863.636	20571
863.768	20526
863.9	20488
864.032	20427
864.164	20507
864.296	20480
864.428	20579
864.559	20579
864.691	20549
864.823	20507
864.954	20469
865.086	20442
865.217	20381
865.349	20389
865.48	20412
865.612	20339
865.743	20465
865.875	20400
866.006	20381
866.137	20423
866.269	20450
866.4	20381
866.531	20389
866.662	20313
866.793	20336
866.924	20442
867.055	20282
867.186	20377
867.317	20396
867.448	20343
867.579	20469
867.71	20377
867.841	20313
867.972	20248
868.103	20374
868.233	20476
868.364	20343
868.495	20351
868.625	20659
868.756	20644
868.886	20556
869.017	20579
869.147	20682
869.278	20686
869.408	20686
869.539	20571
869.669	20606
869.799	20651
869.929	20674
870.06	20804
870.19	20925
870.32	20857
870.45	20914
870.58	21047
870.71	21142
870.84	21047
870.97	21017
871.1	20998
871.23	21252
871.36	21241
871.489	21085
871.619	21237
871.749	21302
871.879	21199
872.008	21386
872.138	21306
872.267	21272
872.397	21074
872.526	21051
872.656	21070
872.785	21005
872.915	21188
873.044	21294
873.173	21207
873.303	21252
873.432	21317
873.561	21294
873.69	21245
873.819	21237
873.948	21336
874.077	21272
874.206	21203
874.335	21249
874.464	21431
874.593	21382
874.722	21549
874.851	21428
874.979	21511
875.108	21526
875.237	21507
875.365	21454
875.494	21431
875.623	21583
875.751	21515
875.88	21466
876.008	21568
876.136	21778
876.265	21759
876.393	22006
876.521	21922
876.65	21930
876.778	21861
876.906	21759
877.034	21823
877.162	21857
877.29	21644
877.418	21800
877.546	21930
877.674	21854
877.802	21941
877.93	21835
878.058	21861
878.185	21644
878.313	21774
878.441	21747
878.568	21610
878.696	21743
878.824	21842
878.951	21850
879.079	21907
879.206	22105
879.333	21956
879.461	21846
879.588	21903
879.715	21922
879.842	22166
879.97	21884
880.097	21663
880.224	21610
880.351	21679
880.478	21694
880.605	21675
880.732	21694
880.859	21926
880.986	21644
881.112	21583
881.239	21443
881.366	21447
881.493	21351
881.619	21355
881.746	21199
881.872	21237
881.999	21135
882.125	21294
882.252	21325
882.378	21211
882.505	21287
882.631	21085
882.757	20921
882.883	20990
883.01	20906
883.136	20849
883.262	20960
883.388	20708
883.514	20891
883.64	20929
883.766	20967
883.892	20716
884.018	20796
884.143	20849
884.269	20933
884.395	20705
884.52	20507
884.646	20632
884.772	20492
884.897	20541
885.023	20488
885.148	20815
885.274	20640
885.399	20739
885.524	20575
885.65	20670
885.775	20693
885.9	20495
886.025	20629
886.15	20651
886.275	20461
886.4	20560
886.525	20545
886.65	20499
886.775	20404
886.9	20648
887.025	20804
887.149	20575
887.274	20389
887.399	20313
887.523	20286
887.648	20267
887.773	20339
887.897	20465
888.021	20362
888.146	20286
888.27	20454
888.395	20385
888.519	20438
888.643	20438
888.767	20309
888.891	20286
889.015	20305
889.139	20263
889.263	20100
889.387	20206
889.511	20259
889.635	20229
889.759	20164
889.883	20119
890.006	20122
890.13	20130
890.254	20126
890.377	20081
890.501	19993
890.624	19906
890.748	20054
890.871	19925
890.995	19879
891.118	19662
891.241	19830
891.364	19590
891.488	19887
891.611	19765
891.734	19780
891.857	19864
891.98	19772
892.103	19811
892.226	19780
892.349	19807
892.471	19514
892.594	19632
892.717	19609
892.839	19670
892.962	19639
893.085	19761
893.207	19537
893.33	19441
893.452	19635
893.575	19689
893.697	19639
893.819	19841
893.941	19864
894.064	19841
894.186	19658
894.308	19597
894.43	19723
894.552	19833
894.674	19719
894.796	19590
894.918	19685
895.04	19559
895.161	19841
895.283	19742
895.405	19693
895.526	19712
895.648	19647
895.769	19613
895.891	19700
896.012	19791
896.134	19655
896.255	19616
896.376	19662
896.498	19662
896.619	19651
896.74	19811
896.861	19715
896.982	19978
897.103	20130
897.224	19826
897.345	19883
897.466	19780
897.587	19833
897.708	19974
897.828	19887
897.949	19803
898.07	19632
898.19	19799
898.311	19909
898.431	19894
898.552	19879
898.672	20043
898.792	20012
898.913	19986
899.033	19757
899.153	19746
899.273	19651
899.393	19590
899.513	19750
899.633	19666
899.753	19696
899.873	19643
899.993	19616
900.113	19552
900.232	19704
900.352	19556
900.472	19533
900.591	19327
900.711	19430
900.83	19434
900.95	19422
901.069	19540
901.189	19228
901.308	18973
901.427	18973
901.546	19012
901.665	19008
901.784	19148
901.904	18867
902.023	18810
902.141	18532
902.26	18464
902.379	18669
902.498	18464
902.617	18486
902.735	18566
902.854	18566
902.973	18452
903.091	18152
903.21	18213
903.328	18251
903.446	18057
903.565	18003
903.683	18045
903.801	17821
903.919	18007
904.038	17980
904.156	17745
904.274	17832
904.392	17779
904.51	17729
904.627	17714
904.745	17859
904.863	17805
904.981	17642
905.098	17433
905.216	17486
905.334	17501
905.451	17406
905.569	17406
905.686	17402
905.803	17406
905.921	17227
906.038	17315
906.155	17421
906.272	17265
906.389	17109
906.506	17098
906.623	17006
906.74	16949
906.857	16824
906.974	16885
907.091	16984
907.208	17067
907.324	17071
907.441	16961
907.557	16778
907.674	16763
907.79	16675
907.907	16626
908.023	16771
908.139	16767
908.256	16706
908.372	16508
908.488	16573
908.604	16577
908.72	16440
908.836	16440
908.952	16375
909.068	16481
909.184	16535
909.3	16360
909.415	16443
909.531	16379
909.647	16120
909.762	16181
909.878	16150
909.993	16139
910.108	16120
910.224	16109
910.339	16097
910.454	16051
910.57	15918
910.685	15850
910.8	16169
910.915	16120
911.03	15953
911.145	15739
911.259	15789
911.374	15785
911.489	15709
911.604	15629
911.718	15530
911.833	15538
911.947	15458
912.062	15325
912.176	15466
912.291	15553
912.405	15526
912.519	15770
912.633	15625
912.748	15584
912.862	15492
912.976	15340
913.09	15207
913.204	15351
913.318	15397
913.431	15412
913.545	15306
913.659	15435
913.772	15180
913.886	15214
914	15116
914.113	15157
914.226	15192
914.34	15207
914.453	15070
914.566	15070
914.68	15009
914.793	15074
914.906	14819
915.019	14750
915.132	14731
915.245	14655
915.358	14769
915.47	14762
915.583	14815
915.696	14743
915.809	14880
915.921	14811
916.034	14716
916.146	14655
916.259	14735
916.371	14735
916.483	14708
916.595	14590
916.708	14575
916.82	14590
916.932	14564
917.044	14461
917.156	14461
917.268	14347
917.38	14438
917.491	14309
917.603	14575
917.715	14469
917.826	14469
917.938	14423
918.049	14301
918.161	14343
918.272	14499
918.384	14461
918.495	14309
918.606	14218
918.717	14172
918.828	14187
918.939	14202
919.05	14084
919.161	14210
919.272	14008
919.383	13982
919.494	14214
919.604	14370
919.715	14123
919.826	14016
919.936	14176
920.047	14164
920.157	14164
920.267	14256
920.378	14111
920.488	14119
920.598	14324
920.708	14495
920.818	14301
920.928	14275
921.038	14461
921.148	14404
921.258	14065
921.368	13932
921.477	13925
921.587	13849
921.697	13750
921.806	13871
921.916	13814
922.025	13708
922.134	13582
922.244	13472
922.353	13658
922.462	13491
922.571	13384
922.68	13213
922.789	13164
922.898	13240
923.007	13187
923.116	13179
923.224	13145
923.333	13149
923.442	13012
923.55	13072
923.659	13122
923.767	13126
923.876	13031
923.984	13209
924.092	12943
924.201	12928
924.309	12989
924.417	12890
924.525	12916
924.633	12932
924.741	13696
924.849	12692
924.956	12852
925.064	12673
925.172	12555
925.279	12551
925.387	12612
925.494	12623
925.602	12757
925.709	12700
925.816	12559
925.924	12589
926.031	12646
926.138	12681
926.245	12601
926.352	12540
926.459	12650
926.566	12635
926.673	12506
926.779	12407
926.886	12281
926.993	12258
927.099	12235
927.206	12201
927.312	12083
927.419	12289
927.525	12175
927.631	12239
927.737	12079
927.843	12022
927.95	11897
928.056	11954
928.162	12098
928.267	12083
928.373	12536
928.479	12091
928.585	11786
928.69	12007
928.796	12095
928.901	11851
929.007	11885
929.112	11885
929.218	11882
929.323	11946
929.428	11798
929.533	11840
929.638	11726
929.743	11630
929.848	11764
929.953	11695
930.058	11623
930.163	11490
930.267	11528
930.372	11638
930.477	11425
930.581	11570
930.685	11474
930.79	11421
930.894	11452
930.998	11292
931.103	11414
931.207	11140
931.311	11025
931.415	10961
931.519	10740
931.623	10759
