Data from test_V78500241_1670.txt Node
Date: Fri Mar 25 15:21:29 CST 2022
User: usil
Spectrometer: V785-0024
Trigger mode: 0
Integration Time (sec): 4.000000E-1
Scans to average: 1
Nonlinearity correction enabled: false
Boxcar width: 0
Storing dark spectrum: false
XAxis mode: Wavelengths
Number of Pixels in Spectrum: 1024
>>>>>Begin Spectral Data<<<<<
801.071	27926
801.214	27732
801.356	27770
801.499	27587
801.641	27458
801.783	27408
801.926	27477
802.068	27500
802.211	27389
802.353	27306
802.496	27192
802.638	27001
802.78	27127
802.923	27028
803.065	27039
803.208	27157
803.35	26986
803.492	27214
803.635	27237
803.777	27226
803.919	27378
804.061	27709
804.204	27329
804.346	27424
804.488	27233
804.63	27272
804.773	27275
804.915	27355
805.057	27416
805.199	27298
805.341	27530
805.483	27549
805.626	27450
805.768	27427
805.91	27393
806.052	27599
806.194	27450
806.336	27545
806.478	27500
806.62	27561
806.762	27622
806.904	27709
807.046	27869
807.188	28010
807.33	27895
807.472	27937
807.614	27789
807.756	27918
807.898	27606
808.04	27759
808.182	27603
808.324	27660
808.465	27838
808.607	28017
808.749	28044
808.891	28169
809.033	28219
809.174	28074
809.316	28044
809.458	28154
809.6	28124
809.741	28265
809.883	28329
810.025	28485
810.166	28386
810.308	28356
810.45	28409
810.591	28299
810.733	28128
810.875	28188
811.016	27998
811.158	28063
811.299	28090
811.441	28341
811.582	28306
811.724	28090
811.865	28131
812.007	28051
812.148	28112
812.29	28211
812.431	28382
812.573	28379
812.714	28645
812.855	28694
812.997	28729
813.138	29014
813.279	28831
813.421	28763
813.562	28459
813.703	28550
813.845	28413
813.986	28101
814.127	27953
814.268	27835
814.41	27831
814.551	27926
814.692	28101
814.833	27686
814.974	27766
815.115	27759
815.256	27709
815.397	27648
815.539	27713
815.68	27576
815.821	27629
815.962	27675
816.103	27732
816.244	27511
816.385	27469
816.526	27329
816.666	27173
816.807	27119
816.948	27184
817.089	27252
817.23	27180
817.371	27207
817.512	26994
817.653	27161
817.793	26960
817.934	27157
818.075	27268
818.216	27074
818.356	27127
818.497	26925
818.638	26914
818.778	26804
818.919	26979
819.06	27043
819.2	27112
819.341	27173
819.481	27142
819.622	27279
819.762	27351
819.903	27367
820.043	27142
820.184	27184
820.324	27268
820.465	27321
820.605	27161
820.746	27241
820.886	27100
821.026	27169
821.167	27176
821.307	27173
821.447	27165
821.588	27195
821.728	26971
821.868	26765
822.008	26636
822.149	26476
822.289	26461
822.429	26214
822.569	26214
822.709	26290
822.849	26020
822.99	26145
823.13	26172
823.27	25928
823.41	25940
823.55	25902
823.69	26024
823.83	25955
823.97	25913
824.11	25632
824.25	25582
824.389	25822
824.529	25822
824.669	25761
824.809	25731
824.949	25875
825.089	26008
825.228	25799
825.368	25635
825.508	25605
825.648	25666
825.787	25704
825.927	25833
826.067	25666
826.206	25468
826.346	25700
826.485	25563
826.625	25651
826.765	25753
826.904	25613
827.044	25297
827.183	25434
827.323	25297
827.462	25499
827.601	25457
827.741	25198
827.88	25354
828.02	25179
828.159	25350
828.298	25232
828.437	25464
828.577	25213
828.716	25365
828.855	25270
828.994	25031
829.134	25069
829.273	24996
829.412	25019
829.551	25008
829.69	25034
829.829	25141
829.968	24996
830.107	25164
830.246	25053
830.385	24905
830.524	24943
830.663	24863
830.802	24760
830.941	24661
831.08	24597
831.219	24741
831.357	24688
831.496	25012
831.635	24684
831.774	24578
831.913	24452
832.051	24399
832.19	24460
832.329	24517
832.467	24445
832.606	24277
832.744	24148
832.883	24174
833.022	24201
833.16	24296
833.299	24429
833.437	24327
833.576	24521
833.714	24426
833.852	24460
833.991	24540
834.129	24426
834.267	24388
834.406	24407
834.544	24452
834.682	24247
834.821	24372
834.959	24547
835.097	24403
835.235	24475
835.373	24323
835.511	24384
835.65	24201
835.788	24216
835.926	24277
836.064	24064
836.202	23984
836.34	24239
836.478	24228
836.615	24190
836.753	24216
836.891	24304
837.029	24213
837.167	24114
837.305	24216
837.443	24270
837.58	24057
837.718	24064
837.856	24121
837.993	23950
838.131	24152
838.269	23901
838.406	24007
838.544	23889
838.681	23695
838.819	23707
838.956	23474
839.094	23570
839.231	23623
839.369	23783
839.506	23779
839.643	23760
839.781	23448
839.918	23482
840.055	23512
840.193	23543
840.33	23406
840.467	23280
840.604	23398
840.742	23676
840.879	23337
841.016	23402
841.153	23345
841.29	23505
841.427	23326
841.564	23448
841.701	23497
841.838	23349
841.975	23414
842.112	23410
842.249	23250
842.385	23227
842.522	23448
842.659	23284
842.796	23056
842.933	23337
843.069	23140
843.206	23006
843.343	23155
843.479	23273
843.616	23216
843.752	23086
843.889	23018
844.025	23155
844.162	23064
844.298	23056
844.435	22923
844.571	22896
844.708	23098
844.844	23162
844.98	23140
845.117	22984
845.253	22972
845.389	22965
845.525	22805
845.661	22816
845.798	22687
845.934	22839
846.07	22683
846.206	22744
846.342	22862
846.478	22759
846.614	22527
846.75	22409
846.886	22333
847.022	22626
847.158	22421
847.294	22466
847.429	22523
847.565	22287
847.701	22664
847.837	22169
847.972	22219
848.108	22299
848.244	22204
848.379	22021
848.515	21949
848.65	21956
848.786	21930
848.921	22109
849.057	22154
849.192	22143
849.328	22032
849.463	22032
849.598	21975
849.734	21915
849.869	21880
850.004	21816
850.14	21861
850.275	21823
850.41	21800
850.545	21793
850.68	21720
850.815	21842
850.95	21732
851.085	21983
851.22	21865
851.355	21800
851.49	21812
851.625	21770
851.76	21816
851.895	21709
852.03	21648
852.165	21846
852.299	21614
852.434	21926
852.569	21823
852.703	21739
852.838	21774
852.973	21956
853.107	21880
853.242	21698
853.376	21663
853.511	21507
853.645	21667
853.78	21564
853.914	21747
854.048	21576
854.183	21625
854.317	21515
854.451	21895
854.585	21504
854.72	21564
854.854	21667
854.988	21625
855.122	21690
855.256	21443
855.39	21606
855.524	21572
855.658	21656
855.792	21568
855.926	21644
856.06	21660
856.194	21667
856.327	21717
856.461	21561
856.595	21542
856.729	21386
856.862	21648
856.996	21606
857.13	21717
857.263	21781
857.397	21694
857.53	21504
857.664	21781
857.797	21762
857.931	21629
858.064	21606
858.197	21656
858.331	21610
858.464	21583
858.597	21564
858.731	21576
858.864	21542
858.997	21431
859.13	21576
859.263	21720
859.396	21667
859.529	21603
859.662	21587
859.795	21534
859.928	21561
860.061	21778
860.194	21739
860.327	21720
860.46	21644
860.592	21709
860.725	21587
860.858	21705
860.99	21660
861.123	21583
861.256	21530
861.388	21473
861.521	22166
861.653	21572
861.786	21389
861.918	21382
862.05	21488
862.183	21382
862.315	21538
862.447	21698
862.58	21568
862.712	21275
862.844	21287
862.976	21466
863.108	21363
863.24	21774
863.372	21355
863.504	21370
863.636	21310
863.768	21348
863.9	21462
864.032	21302
864.164	21233
864.296	21317
864.428	21504
864.559	21321
864.691	21374
864.823	21176
864.954	21230
865.086	21283
865.217	21218
865.349	21173
865.48	21199
865.612	21249
865.743	21264
865.875	21283
866.006	21047
866.137	21093
866.269	21161
866.4	21241
866.531	21199
866.662	21127
866.793	21157
866.924	21112
867.055	21123
867.186	21096
867.317	21100
867.448	21116
867.579	21119
867.71	21081
867.841	21062
867.972	21176
868.103	21165
868.233	21150
868.364	21081
868.495	21161
868.625	21317
868.756	21359
868.886	21287
869.017	21393
869.147	21519
869.278	21401
869.408	21382
869.539	21367
869.669	21462
869.799	21306
869.929	21660
870.06	21431
870.19	21766
870.32	21561
870.45	21656
870.58	21732
870.71	21880
870.84	21835
870.97	21739
871.1	21789
871.23	21907
871.36	21937
871.489	21850
871.619	21934
871.749	21964
871.879	21964
872.008	22055
872.138	22036
872.267	22002
872.397	21903
872.526	21861
872.656	21873
872.785	21831
872.915	21899
873.044	21922
873.173	22067
873.303	21884
873.432	22055
873.561	21964
873.69	22082
873.819	21911
873.948	22036
874.077	21934
874.206	22017
874.335	21922
874.464	22013
874.593	22268
874.722	22223
874.851	22215
874.979	22337
875.108	22166
875.237	22120
875.365	21991
875.494	22128
875.623	22291
875.751	22147
875.88	22135
876.008	22481
876.136	22432
876.265	22649
876.393	22672
876.521	22577
876.65	22622
876.778	22717
876.906	22527
877.034	22470
877.162	22649
877.29	22569
877.418	22497
877.546	22596
877.674	22615
877.802	22489
877.93	22573
878.058	22409
878.185	22360
878.313	22592
878.441	22519
878.568	22466
878.696	22436
878.824	22599
878.951	22679
879.079	22759
879.206	22797
879.333	22721
879.461	22542
879.588	22820
879.715	22805
879.842	22869
879.97	22637
880.097	22341
880.224	22291
880.351	22500
880.478	22523
880.605	22265
880.732	22363
880.859	22611
880.986	22504
881.112	22481
881.239	22276
881.366	22128
881.493	22082
881.619	21895
881.746	22093
881.872	21930
881.999	21819
882.125	21922
882.252	22051
882.378	21812
882.505	22124
882.631	21899
882.757	21739
882.883	21759
883.01	21861
883.136	21667
883.262	21542
883.388	21481
883.514	21644
883.64	21622
883.766	21534
883.892	21389
884.018	21542
884.143	21549
884.269	21781
884.395	21363
884.52	21378
884.646	21458
884.772	21393
884.897	21161
885.023	21336
885.148	21507
885.274	21435
885.399	21393
885.524	21363
885.65	21245
885.775	21374
885.9	21306
886.025	21412
886.15	21462
886.275	21203
886.4	21176
886.525	21332
886.65	21176
886.775	21195
886.9	21260
887.025	21515
887.149	21214
887.274	21146
887.399	21074
887.523	21085
887.648	20925
887.773	20998
887.897	21184
888.021	21024
888.146	20975
888.27	21192
888.395	21070
888.519	21077
888.643	21173
888.767	21074
888.891	20933
889.015	20899
889.139	20899
889.263	20800
889.387	20880
889.511	21062
889.635	20998
889.759	20830
889.883	20918
890.006	20883
890.13	20861
890.254	20887
890.377	20686
890.501	20613
890.624	20705
890.748	20621
890.871	20560
890.995	20400
891.118	20358
891.241	20404
891.364	20484
891.488	20560
891.611	20412
891.734	20530
891.857	20526
891.98	20526
892.103	20495
892.226	20385
892.349	20400
892.471	20278
892.594	20244
892.717	20476
892.839	20195
892.962	20374
893.085	20408
893.207	20362
893.33	20290
893.452	20278
893.575	20442
893.697	20305
893.819	20511
893.941	20640
894.064	20507
894.186	20225
894.308	20286
894.43	20419
894.552	20454
894.674	20339
894.796	20149
894.918	20313
895.04	20176
895.161	20427
895.283	20389
895.405	20248
895.526	20320
895.648	20218
895.769	20362
895.891	20408
896.012	20339
896.134	20351
896.255	20248
896.376	20355
896.498	20180
896.619	20294
896.74	20240
896.861	20385
896.982	20701
897.103	20644
897.224	20621
897.345	20499
897.466	20461
897.587	20568
897.708	20636
897.828	20587
897.949	20484
898.07	20461
898.19	20415
898.311	20716
898.431	20461
898.552	20484
898.672	20579
898.792	20511
898.913	20617
899.033	20305
899.153	20324
899.273	20214
899.393	20339
899.513	20218
899.633	20305
899.753	20282
899.873	20084
899.993	20366
900.113	20218
900.232	20294
900.352	20161
900.472	20153
900.591	19898
900.711	20050
900.83	19970
900.95	20077
901.069	20077
901.189	19970
901.308	19609
901.427	19639
901.546	19552
901.665	19662
901.784	19552
901.904	19556
902.023	19362
902.141	19297
902.26	19114
902.379	19179
902.498	19072
902.617	19141
902.735	19209
902.854	19099
902.973	19038
903.091	18878
903.21	18772
903.328	18890
903.446	18711
903.565	18639
903.683	18612
903.801	18563
903.919	18502
904.038	18593
904.156	18471
904.274	18471
904.392	18433
904.51	18437
904.627	18429
904.745	18422
904.863	18391
904.981	18159
905.098	18117
905.216	18038
905.334	18152
905.451	18057
905.569	17935
905.686	18003
905.803	18041
905.921	17809
906.038	17950
906.155	17840
906.272	17672
906.389	17775
906.506	17638
906.623	17532
906.74	17608
906.857	17406
906.974	17444
907.091	17551
907.208	17684
907.324	17646
907.441	17512
907.557	17421
907.674	17277
907.79	17360
907.907	17315
908.023	17322
908.139	17277
908.256	17269
908.372	17204
908.488	17162
908.604	17109
908.72	16995
908.836	17033
908.952	16938
909.068	17067
909.184	17151
909.3	17048
909.415	17022
909.531	17098
909.647	16797
909.762	16767
909.878	16687
909.993	16797
910.108	16710
910.224	16656
910.339	16672
910.454	16516
910.57	16519
910.685	16554
910.8	16721
910.915	16637
911.03	16584
911.145	16363
911.259	16337
911.374	16284
911.489	16173
911.604	16192
911.718	15975
911.833	16010
911.947	15991
912.062	15884
912.176	15930
912.291	16105
912.405	15983
912.519	16306
912.633	16215
912.748	16226
912.862	15991
912.976	15949
913.09	15747
913.204	15819
913.318	15800
913.431	15975
913.545	15937
913.659	15937
913.772	15823
913.886	15641
914	15679
914.113	15785
914.226	15854
914.34	15747
914.453	15660
914.566	15713
914.68	15530
914.793	15477
914.906	15310
915.019	15241
915.132	15237
915.245	15268
915.358	15260
915.47	15268
915.583	15294
915.696	15321
915.809	15401
915.921	15431
916.034	15176
916.146	15226
916.259	15218
916.371	15214
916.483	15169
916.595	15085
916.708	15039
916.82	14971
916.932	15104
917.044	15062
917.156	15020
917.268	14933
917.38	14853
917.491	14883
917.603	14834
917.715	14929
917.826	14979
917.938	14792
918.049	14788
918.161	14895
918.272	14933
918.384	14971
918.495	14929
918.606	14750
918.717	14686
918.828	14720
918.939	14678
919.05	14556
919.161	14693
919.272	14469
919.383	14556
919.494	14663
919.604	14815
919.715	14610
919.826	14541
919.936	14693
920.047	14708
920.157	14598
920.267	14864
920.378	14629
920.488	14590
920.598	14792
920.708	15013
920.818	14773
920.928	14720
921.038	14990
921.148	14811
921.258	14533
921.368	14461
921.477	14393
921.587	14389
921.697	14271
921.806	14434
921.916	14259
922.025	14046
922.134	14073
922.244	13921
922.353	14024
922.462	13940
922.571	13944
922.68	13761
922.789	13620
922.898	13753
923.007	13628
923.116	13700
923.224	13670
923.333	13643
923.442	13483
923.55	13365
923.659	13597
923.767	13521
923.876	13464
923.984	13521
924.092	13384
924.201	13426
924.309	13343
924.417	13343
924.525	13369
924.633	13293
924.741	14084
924.849	13084
924.956	13301
925.064	12996
925.172	12981
925.279	13004
925.387	13008
925.494	13069
925.602	13190
925.709	13015
925.816	12962
925.924	13046
926.031	13107
926.138	12973
926.245	13031
926.352	12913
926.459	13019
926.566	13027
926.673	12966
926.779	12894
926.886	12738
926.993	12688
927.099	12658
927.206	12608
927.312	12601
927.419	12608
927.525	12608
927.631	12620
927.737	12585
927.843	12509
927.95	12399
928.056	12433
928.162	12456
928.267	12483
928.373	13000
928.479	12585
928.585	12277
928.69	12437
928.796	12555
928.901	12376
929.007	12159
929.112	12247
929.218	12342
929.323	12247
929.428	12190
929.533	12361
929.638	12026
929.743	12060
929.848	12129
929.953	12098
930.058	12022
930.163	11851
930.267	11836
930.372	11969
930.477	11779
930.581	11988
930.685	11703
930.79	11619
930.894	11672
930.998	11634
931.103	11699
931.207	11547
931.311	11379
931.415	11311
931.519	11041
931.623	11041
