Data from test_V78500241_1343.txt Node
Date: Fri Mar 25 15:19:12 CST 2022
User: usil
Spectrometer: V785-0024
Trigger mode: 0
Integration Time (sec): 4.000000E-1
Scans to average: 1
Nonlinearity correction enabled: false
Boxcar width: 0
Storing dark spectrum: false
XAxis mode: Wavelengths
Number of Pixels in Spectrum: 1024
>>>>>Begin Spectral Data<<<<<
801.071	28158
801.214	28086
801.356	27983
801.499	27743
801.641	27732
801.783	27644
801.926	27759
802.068	27759
802.211	27641
802.353	27477
802.496	27424
802.638	27336
802.78	27245
802.923	27165
803.065	27207
803.208	27393
803.35	27348
803.492	27462
803.635	27595
803.777	27538
803.919	27576
804.061	27854
804.204	27652
804.346	27420
804.488	27443
804.63	27443
804.773	27511
804.915	27728
805.057	27770
805.199	27557
805.341	27728
805.483	27751
805.626	27747
805.768	27587
805.91	27686
806.052	27724
806.194	27515
806.336	27846
806.478	27736
806.62	27656
806.762	27991
806.904	28040
807.046	28215
807.188	28067
807.33	28215
807.472	28219
807.614	28185
807.756	28097
807.898	27918
808.04	27880
808.182	27991
808.324	28017
808.465	27979
808.607	28192
808.749	28341
808.891	28421
809.033	28489
809.174	28375
809.316	28337
809.458	28356
809.6	28272
809.741	28322
809.883	28523
810.025	28691
810.166	28573
810.308	28778
810.45	28607
810.591	28538
810.733	28405
810.875	28371
811.016	28166
811.158	28272
811.299	28474
811.441	28421
811.582	28599
811.724	28394
811.865	28219
812.007	28341
812.148	28348
812.29	28489
812.431	28596
812.573	28797
812.714	28820
812.855	28976
812.997	29033
813.138	29170
813.279	29048
813.421	29044
813.562	29083
813.703	28843
813.845	28565
813.986	28443
814.127	28268
814.268	28032
814.41	28040
814.551	28025
814.692	28116
814.833	28013
814.974	28093
815.115	28044
815.256	27895
815.397	28067
815.539	27960
815.68	27827
815.821	27793
815.962	27892
816.103	27941
816.244	27800
816.385	27648
816.526	27701
816.666	27466
816.807	27443
816.948	27481
817.089	27458
817.23	27321
817.371	27329
817.512	27408
817.653	27298
817.793	27268
817.934	27370
818.075	27447
818.216	27424
818.356	27325
818.497	27241
818.638	27070
818.778	27157
818.919	27142
819.06	27214
819.2	27233
819.341	27298
819.481	27462
819.622	27641
819.762	27717
819.903	27538
820.043	27610
820.184	27538
820.324	27481
820.465	27492
820.605	27526
820.746	27397
820.886	27401
821.026	27564
821.167	27397
821.307	27458
821.447	27408
821.588	27249
821.728	27150
821.868	26967
822.008	26902
822.149	26853
822.289	26899
822.429	26644
822.569	26632
822.709	26629
822.849	26202
822.99	26381
823.13	26332
823.27	26221
823.41	26263
823.55	26088
823.69	26130
823.83	26218
823.97	26084
824.11	25906
824.25	25921
824.389	25906
824.529	26142
824.669	25906
824.809	26046
824.949	26210
825.089	26092
825.228	25989
825.368	25936
825.508	25769
825.648	25845
825.787	25932
825.927	25936
826.067	25864
826.206	25723
826.346	25970
826.485	25826
826.625	25978
826.765	25955
826.904	26024
827.044	25575
827.183	25605
827.323	25620
827.462	25666
827.601	25727
827.741	25719
827.88	25594
828.02	25468
828.159	25537
828.298	25590
828.437	25651
828.577	25506
828.716	25544
828.855	25540
828.994	25293
829.134	25316
829.273	25381
829.412	25350
829.551	25187
829.69	25228
829.829	25422
829.968	25324
830.107	25343
830.246	25285
830.385	25148
830.524	25278
830.663	24966
830.802	24943
830.941	24947
831.08	24852
831.219	25061
831.357	24970
831.496	25004
831.635	24791
831.774	24703
831.913	24783
832.051	24821
832.19	24673
832.329	24745
832.467	24604
832.606	24502
832.744	24585
832.883	24395
833.022	24616
833.16	24574
833.299	24738
833.437	24601
833.576	24608
833.714	24726
833.852	24646
833.991	24673
834.129	24749
834.267	24620
834.406	24593
834.544	24852
834.682	24589
834.821	24608
834.959	24798
835.097	24620
835.235	24677
835.373	24703
835.511	24604
835.65	24528
835.788	24475
835.926	24403
836.064	24133
836.202	24243
836.34	24513
836.478	24547
836.615	24391
836.753	24505
836.891	24433
837.029	24563
837.167	24433
837.305	24285
837.443	24174
837.58	24273
837.718	24410
837.856	24315
837.993	24254
838.131	24403
838.269	24140
838.406	24190
838.544	24102
838.681	23885
838.819	23961
838.956	23779
839.094	23718
839.231	23741
839.369	23977
839.506	24167
839.643	24015
839.781	23710
839.918	23619
840.055	23840
840.193	23741
840.33	23684
840.467	23623
840.604	23726
840.742	24045
840.879	23421
841.016	23577
841.153	23665
841.29	23813
841.427	23577
841.564	23703
841.701	23752
841.838	23596
841.975	23657
842.112	23528
842.249	23490
842.385	23482
842.522	23676
842.659	23452
842.796	23463
842.933	23364
843.069	23425
843.206	23497
843.343	23448
843.479	23417
843.616	23376
843.752	23235
843.889	23250
844.025	23326
844.162	23109
844.298	23326
844.435	23212
844.571	23178
844.708	23261
844.844	23269
844.98	23376
845.117	23318
845.253	23140
845.389	23044
845.525	23094
845.661	23067
845.798	22961
845.934	22896
846.07	22938
846.206	22976
846.342	22976
846.478	22877
846.614	22687
846.75	22584
846.886	22592
847.022	22763
847.158	22706
847.294	22869
847.429	22744
847.565	22672
847.701	22873
847.837	22523
847.972	22409
848.108	22523
848.244	22523
848.379	22211
848.515	22375
848.65	22246
848.786	22257
848.921	22295
849.057	22409
849.192	22238
849.328	22188
849.463	22306
849.598	22276
849.734	22162
849.869	22120
850.004	21918
850.14	22109
850.275	22120
850.41	21972
850.545	21854
850.68	21956
850.815	21907
850.95	22109
851.085	22135
851.22	22177
851.355	21934
851.49	22013
851.625	21960
851.76	22013
851.895	21930
852.03	21949
852.165	21903
852.299	22097
852.434	22093
852.569	22044
852.703	21987
852.838	22105
852.973	22211
853.107	22150
853.242	21987
853.376	21846
853.511	21793
853.645	21709
853.78	21949
853.914	21915
854.048	21892
854.183	21755
854.317	21934
854.451	22032
854.585	21781
854.72	21816
854.854	21949
854.988	21766
855.122	21804
855.256	21606
855.39	21774
855.524	21808
855.658	21945
855.792	21774
855.926	21895
856.06	21793
856.194	21884
856.327	21838
856.461	21774
856.595	21671
856.729	21797
856.862	21937
856.996	21793
857.13	21873
857.263	21873
857.397	21907
857.53	21762
857.664	21857
857.797	21888
857.931	21945
858.064	21869
858.197	21854
858.331	21736
858.464	21873
858.597	21720
858.731	21899
858.864	21831
858.997	21690
859.13	21911
859.263	21724
859.396	21838
859.529	21838
859.662	21679
859.795	21755
859.928	21854
860.061	22029
860.194	21994
860.327	21972
860.46	21842
860.592	21930
860.725	22021
860.858	21895
860.99	21831
861.123	21739
861.256	21778
861.388	21808
861.521	22428
861.653	21724
861.786	21606
861.918	21622
862.05	21781
862.183	21876
862.315	21698
862.447	21759
862.58	21686
862.712	21443
862.844	21549
862.976	21629
863.108	21614
863.24	21854
863.372	21473
863.504	21549
863.636	21572
863.768	21618
863.9	21507
864.032	21591
864.164	21561
864.296	21485
864.428	21603
864.559	21568
864.691	21564
864.823	21523
864.954	21523
865.086	21557
865.217	21393
865.349	21382
865.48	21386
865.612	21439
865.743	21614
865.875	21458
866.006	21386
866.137	21420
866.269	21462
866.4	21374
866.531	21416
866.662	21386
866.793	21348
866.924	21241
867.055	21344
867.186	21386
867.317	21355
867.448	21317
867.579	21351
867.71	21214
867.841	21161
867.972	21355
868.103	21351
868.233	21329
868.364	21367
868.495	21507
868.625	21523
868.756	21732
868.886	21481
869.017	21435
869.147	21568
869.278	21743
869.408	21572
869.539	21641
869.669	21652
869.799	21705
869.929	21766
870.06	21808
870.19	21899
870.32	21895
870.45	21850
870.58	21895
870.71	22067
870.84	22128
870.97	21975
871.1	22029
871.23	22086
871.36	22166
871.489	22040
871.619	22021
871.749	22226
871.879	22276
872.008	22230
872.138	22188
872.267	22299
872.397	22051
872.526	22013
872.656	22055
872.785	22032
872.915	22242
873.044	22226
873.173	22234
873.303	22386
873.432	22261
873.561	22268
873.69	22188
873.819	22040
873.948	22204
874.077	22131
874.206	22185
874.335	22204
874.464	22238
874.593	22344
874.722	22394
874.851	22424
874.979	22409
875.108	22508
875.237	22409
875.365	22219
875.494	22268
875.623	22424
875.751	22337
875.88	22481
876.008	22504
876.136	22550
876.265	22828
876.393	22869
876.521	22854
876.65	22801
876.778	22858
876.906	22752
877.034	22767
877.162	22706
877.29	22675
877.418	22828
877.546	22869
877.674	22656
877.802	22748
877.93	22771
878.058	22752
878.185	22519
878.313	22755
878.441	22698
878.568	22557
878.696	22637
878.824	22755
878.951	22748
879.079	22858
879.206	22965
879.333	22938
879.461	22713
879.588	22805
879.715	22946
879.842	23086
879.97	22812
880.097	22523
880.224	22538
880.351	22687
880.478	22489
880.605	22519
880.732	22580
880.859	22767
880.986	22565
881.112	22580
881.239	22352
881.366	22310
881.493	22329
881.619	22147
881.746	22230
881.872	22101
881.999	22154
882.125	21953
882.252	22143
882.378	22032
882.505	22173
882.631	22017
882.757	21892
882.883	21930
883.01	21838
883.136	21728
883.262	21701
883.388	21743
883.514	21819
883.64	21937
883.766	21812
883.892	21743
884.018	21492
884.143	21728
884.269	21778
884.395	21568
884.52	21321
884.646	21519
884.772	21447
884.897	21260
885.023	21424
885.148	21538
885.274	21591
885.399	21599
885.524	21519
885.65	21473
885.775	21435
885.9	21401
886.025	21507
886.15	21469
886.275	21408
886.4	21424
886.525	21424
886.65	21378
886.775	21408
886.9	21530
887.025	21739
887.149	21443
887.274	21203
887.399	21214
887.523	21249
887.648	21184
887.773	21195
887.897	21329
888.021	21298
888.146	21230
888.27	21313
888.395	21272
888.519	21195
888.643	21332
888.767	21184
888.891	21096
889.015	21020
889.139	21043
889.263	20952
889.387	21119
889.511	21218
889.635	21123
889.759	20906
889.883	20994
890.006	20979
890.13	21131
890.254	20918
890.377	20986
890.501	20735
890.624	20777
890.748	20872
890.871	20648
890.995	20461
891.118	20568
891.241	20568
891.364	20625
891.488	20659
891.611	20579
891.734	20663
891.857	20648
891.98	20632
892.103	20629
892.226	20533
892.349	20495
892.471	20366
892.594	20545
892.717	20587
892.839	20438
892.962	20526
893.085	20431
893.207	20476
893.33	20450
893.452	20412
893.575	20507
893.697	20438
893.819	20579
893.941	20754
894.064	20651
894.186	20457
894.308	20309
894.43	20613
894.552	20613
894.674	20522
894.796	20366
894.918	20545
895.04	20450
895.161	20499
895.283	20541
895.405	20412
895.526	20640
895.648	20370
895.769	20473
895.891	20473
896.012	20613
896.134	20415
896.255	20499
896.376	20484
896.498	20442
896.619	20450
896.74	20457
896.861	20495
896.982	20678
897.103	20986
897.224	20762
897.345	20693
897.466	20708
897.587	20724
897.708	20788
897.828	20659
897.949	20594
898.07	20587
898.19	20537
898.311	20754
898.431	20571
898.552	20689
898.672	20693
898.792	20613
898.913	20697
899.033	20602
899.153	20541
899.273	20438
899.393	20469
899.513	20454
899.633	20457
899.753	20404
899.873	20355
899.993	20556
900.113	20290
900.232	20480
900.352	20309
900.472	20343
900.591	20298
900.711	20149
900.83	20054
900.95	20286
901.069	20282
901.189	20027
901.308	19944
901.427	19875
901.546	19647
901.665	19765
901.784	19776
901.904	19689
902.023	19499
902.141	19426
902.26	19304
902.379	19263
902.498	19331
902.617	19240
902.735	19415
902.854	19198
902.973	19137
903.091	19050
903.21	18962
903.328	18947
903.446	18806
903.565	18821
903.683	18798
903.801	18677
903.919	18654
904.038	18677
904.156	18509
904.274	18627
904.392	18467
904.51	18502
904.627	18589
904.745	18563
904.863	18646
904.981	18194
905.098	18220
905.216	18133
905.334	18323
905.451	18197
905.569	18087
905.686	18144
905.803	18251
905.921	17885
906.038	18095
906.155	18060
906.272	17889
906.389	17927
906.506	17836
906.623	17703
906.74	17695
906.857	17684
906.974	17707
907.091	17783
907.208	17790
907.324	17767
907.441	17589
907.557	17577
907.674	17452
907.79	17364
907.907	17391
908.023	17353
908.139	17459
908.256	17353
908.372	17429
908.488	17273
908.604	17254
908.72	17159
908.836	17136
908.952	17246
909.068	17140
909.184	17322
909.3	17136
909.415	17239
909.531	17166
909.647	16862
909.762	17014
909.878	16759
909.993	16854
910.108	16820
910.224	16839
910.339	16744
910.454	16622
910.57	16679
910.685	16519
910.8	16873
910.915	16850
911.03	16637
911.145	16538
911.259	16394
911.374	16390
911.489	16390
911.604	16276
911.718	16128
911.833	16169
911.947	16013
912.062	16120
912.176	16196
912.291	16188
912.405	16196
912.519	16291
912.633	16329
912.748	16242
912.862	16188
912.976	16090
913.09	15873
913.204	15991
913.318	15949
913.431	16074
913.545	16086
913.659	16036
913.772	15873
913.886	15774
914	15857
914.113	15949
914.226	15888
914.34	15876
914.453	15610
914.566	15797
914.68	15660
914.793	15610
914.906	15458
915.019	15374
915.132	15359
915.245	15447
915.358	15412
915.47	15515
915.583	15374
915.696	15435
915.809	15496
915.921	15458
916.034	15363
916.146	15275
916.259	15222
916.371	15393
916.483	15306
916.595	15287
916.708	15173
916.82	15226
916.932	15180
917.044	15165
917.156	15097
917.268	15097
917.38	15024
917.491	14948
917.603	14994
917.715	15142
917.826	15237
917.938	14952
918.049	14895
918.161	14921
918.272	15127
918.384	15066
918.495	14986
918.606	14891
918.717	14659
918.828	14788
918.939	14769
919.05	14689
919.161	14815
919.272	14632
919.383	14674
919.494	14842
919.604	14933
919.715	14750
919.826	14716
919.936	14785
920.047	14773
920.157	14792
920.267	14902
920.378	14693
920.488	14632
920.598	14891
920.708	14937
920.818	14796
920.928	14845
921.038	15036
921.148	15055
921.258	14594
921.368	14667
921.477	14484
921.587	14427
921.697	14294
921.806	14431
921.916	14309
922.025	14153
922.134	14149
922.244	14119
922.353	14016
922.462	13970
922.571	14001
922.68	13807
922.789	13719
922.898	13734
923.007	13666
923.116	13784
923.224	13700
923.333	13685
923.442	13594
923.55	13658
923.659	13510
923.767	13677
923.876	13563
923.984	13582
924.092	13518
924.201	13499
924.309	13441
924.417	13510
924.525	13426
924.633	13422
924.741	14298
924.849	13209
924.956	13331
925.064	13099
925.172	13091
925.279	13133
925.387	13213
925.494	13095
925.602	13206
925.709	13107
925.816	13080
925.924	13137
926.031	13202
926.138	13084
926.245	13160
926.352	12977
926.459	13156
926.566	13168
926.673	13091
926.779	12932
926.886	12897
926.993	12711
927.099	12722
927.206	12544
927.312	12703
927.419	12707
927.525	12631
927.631	12700
927.737	12570
927.843	12578
927.95	12494
928.056	12540
928.162	12502
928.267	12532
928.373	13228
928.479	12635
928.585	12395
928.69	12464
928.796	12467
928.901	12369
929.007	12270
929.112	12372
929.218	12353
929.323	12232
929.428	12220
929.533	12407
929.638	12186
929.743	12213
929.848	12190
929.953	12186
930.058	12095
930.163	11904
930.267	11935
930.372	12106
930.477	11840
930.581	12136
930.685	11935
930.79	11916
930.894	11805
930.998	11760
931.103	11840
931.207	11581
931.311	11501
931.415	11455
931.519	11212
931.623	11201
