Data from test_V78500241_842.txt Node
Date: Fri Mar 25 15:15:43 CST 2022
User: usil
Spectrometer: V785-0024
Trigger mode: 0
Integration Time (sec): 4.000000E-1
Scans to average: 1
Nonlinearity correction enabled: false
Boxcar width: 0
Storing dark spectrum: false
XAxis mode: Wavelengths
Number of Pixels in Spectrum: 1024
>>>>>Begin Spectral Data<<<<<
801.071	28223
801.214	28356
801.356	28063
801.499	27949
801.641	27922
801.783	27694
801.926	27774
802.068	27808
802.211	27762
802.353	27549
802.496	27515
802.638	27431
802.78	27583
802.923	27447
803.065	27477
803.208	27473
803.35	27473
803.492	27682
803.635	27629
803.777	27629
803.919	27701
804.061	27899
804.204	27667
804.346	27622
804.488	27538
804.63	27656
804.773	27694
804.915	27686
805.057	27876
805.199	27762
805.341	27762
805.483	28010
805.626	27804
805.768	27698
805.91	27850
806.052	27705
806.194	27652
806.336	27926
806.478	28017
806.62	27987
806.762	27975
806.904	27968
807.046	28481
807.188	28306
807.33	28280
807.472	28249
807.614	28143
807.756	28276
807.898	28352
808.04	28204
808.182	28086
808.324	28204
808.465	28295
808.607	28310
808.749	28363
808.891	28565
809.033	28588
809.174	28542
809.316	28493
809.458	28710
809.6	28516
809.741	28744
809.883	28542
810.025	28793
810.166	28824
810.308	28835
810.45	28839
810.591	28771
810.733	28557
810.875	28481
811.016	28611
811.158	28379
811.299	28550
811.441	28668
811.582	28577
811.724	28527
811.865	28573
812.007	28573
812.148	28645
812.29	28618
812.431	28809
812.573	28759
812.714	28858
812.855	29064
812.997	29044
813.138	29337
813.279	29269
813.421	29121
813.562	29181
813.703	28812
813.845	28740
813.986	28500
814.127	28413
814.268	28303
814.41	28299
814.551	28276
814.692	28459
814.833	28211
814.974	28200
815.115	28181
815.256	28173
815.397	28253
815.539	28139
815.68	28101
815.821	28082
815.962	28086
816.103	28249
816.244	28040
816.385	27808
816.526	27869
816.666	27675
816.807	27622
816.948	27542
817.089	27690
817.23	27717
817.371	27728
817.512	27580
817.653	27576
817.793	27595
817.934	27576
818.075	27507
818.216	27583
818.356	27530
818.497	27500
818.638	27351
818.778	27310
818.919	27367
819.06	27367
819.2	27557
819.341	27614
819.481	27705
819.622	27675
819.762	27964
819.903	27808
820.043	27800
820.184	27633
820.324	27644
820.465	27785
820.605	27743
820.746	27663
820.886	27595
821.026	27751
821.167	27553
821.307	27614
821.447	27629
821.588	27492
821.728	27412
821.868	27233
822.008	27146
822.149	27074
822.289	27070
822.429	26800
822.569	26579
822.709	26686
822.849	26495
822.99	26670
823.13	26499
823.27	26476
823.41	26393
823.55	26317
823.69	26438
823.83	26453
823.97	26339
824.11	26225
824.25	26286
824.389	26172
824.529	26244
824.669	26218
824.809	26347
824.949	26294
825.089	26332
825.228	26286
825.368	26149
825.508	26077
825.648	26149
825.787	26130
825.927	26172
826.067	26039
826.206	26187
826.346	26111
826.485	26233
826.625	26161
826.765	26168
826.904	26054
827.044	25947
827.183	25833
827.323	25811
827.462	25803
827.601	25852
827.741	25856
827.88	25799
828.02	25655
828.159	25795
828.298	25860
828.437	25959
828.577	25803
828.716	25852
828.855	25616
828.994	25578
829.134	25525
829.273	25597
829.412	25499
829.551	25460
829.69	25525
829.829	25552
829.968	25575
830.107	25597
830.246	25506
830.385	25499
830.524	25365
830.663	25263
830.802	25129
830.941	25129
831.08	25088
831.219	25194
831.357	25202
831.496	25236
831.635	25145
831.774	25217
831.913	24954
832.051	25034
832.19	24890
832.329	24989
832.467	24878
832.606	24875
832.744	24882
832.883	24798
833.022	24779
833.16	24814
833.299	24905
833.437	24848
833.576	24970
833.714	24837
833.852	24962
833.991	24913
834.129	24901
834.267	24844
834.406	24810
834.544	24939
834.682	24878
834.821	24814
834.959	24977
835.097	24821
835.235	24905
835.373	24779
835.511	24871
835.65	24646
835.788	24772
835.926	24547
836.064	24464
836.202	24589
836.34	24646
836.478	24608
836.615	24604
836.753	24703
836.891	24825
837.029	24810
837.167	24517
837.305	24570
837.443	24475
837.58	24517
837.718	24547
837.856	24616
837.993	24536
838.131	24528
838.269	24418
838.406	24384
838.544	24330
838.681	24194
838.819	24030
838.956	23988
839.094	23965
839.231	23980
839.369	24182
839.506	24410
839.643	24152
839.781	23958
839.918	23843
840.055	23889
840.193	23973
840.33	24015
840.467	23874
840.604	23935
840.742	24140
840.879	23760
841.016	23828
841.153	23809
841.29	24072
841.427	23878
841.564	23942
841.701	23965
841.838	23897
841.975	23893
842.112	23733
842.249	23638
842.385	23703
842.522	23885
842.659	23710
842.796	23589
842.933	23547
843.069	23482
843.206	23497
843.343	23562
843.479	23562
843.616	23642
843.752	23505
843.889	23444
844.025	23482
844.162	23341
844.298	23505
844.435	23410
844.571	23330
844.708	23509
844.844	23577
844.98	23608
845.117	23501
845.253	23486
845.389	23318
845.525	23311
845.661	23311
845.798	23193
845.934	23181
846.07	22972
846.206	23052
846.342	23326
846.478	23033
846.614	23079
846.75	22824
846.886	22911
847.022	23044
847.158	22782
847.294	22991
847.429	22972
847.565	22889
847.701	23185
847.837	22649
847.972	22538
848.108	22656
848.244	22622
848.379	22512
848.515	22538
848.65	22428
848.786	22470
848.921	22421
849.057	22599
849.192	22459
849.328	22569
849.463	22390
849.598	22466
849.734	22344
849.869	22318
850.004	22284
850.14	22230
850.275	22238
850.41	22234
850.545	22314
850.68	22295
850.815	22265
850.95	22177
851.085	22394
851.22	22253
851.355	22215
851.49	22135
851.625	22143
851.76	22166
851.895	22070
852.03	22109
852.165	22215
852.299	22325
852.434	22303
852.569	22196
852.703	22070
852.838	22310
852.973	22360
853.107	22436
853.242	22067
853.376	22112
853.511	21972
853.645	22048
853.78	22185
853.914	22048
854.048	22059
854.183	21979
854.317	22040
854.451	22299
854.585	22185
854.72	22070
854.854	22120
854.988	21960
855.122	22131
855.256	21907
855.39	22036
855.524	22116
855.658	22021
855.792	21930
855.926	22048
856.06	22124
856.194	22131
856.327	22040
856.461	22074
856.595	21930
856.729	22055
856.862	22131
856.996	22036
857.13	22063
857.263	22086
857.397	22150
857.53	22078
857.664	22143
857.797	22055
857.931	22017
858.064	22120
858.197	22093
858.331	22109
858.464	22017
858.597	21972
858.731	22025
858.864	22032
858.997	22040
859.13	21991
859.263	22101
859.396	22196
859.529	21987
859.662	21949
859.795	22025
859.928	22074
860.061	22211
860.194	22310
860.327	22162
860.46	22078
860.592	22272
860.725	22128
860.858	22162
860.99	22135
861.123	22036
861.256	21991
861.388	22120
861.521	22968
861.653	21854
861.786	21709
861.918	21861
862.05	21968
862.183	22010
862.315	21956
862.447	22036
862.58	21835
862.712	21857
862.844	21690
862.976	21770
863.108	21854
863.24	22219
863.372	21690
863.504	21766
863.636	21686
863.768	21732
863.9	21838
864.032	21682
864.164	21774
864.296	21778
864.428	21895
864.559	21869
864.691	21854
864.823	21709
864.954	21682
865.086	21675
865.217	21698
865.349	21545
865.48	21622
865.612	21720
865.743	21743
865.875	21606
866.006	21652
866.137	21633
866.269	21675
866.4	21568
866.531	21603
866.662	21481
866.793	21526
866.924	21553
867.055	21587
867.186	21557
867.317	21538
867.448	21496
867.579	21542
867.71	21614
867.841	21504
867.972	21603
868.103	21481
868.233	21492
868.364	21618
868.495	21675
868.625	21899
868.756	21778
868.886	21694
869.017	21728
869.147	21808
869.278	21926
869.408	21838
869.539	21873
869.669	21888
869.799	21857
869.929	21972
870.06	21793
870.19	22112
870.32	22006
870.45	22070
870.58	22128
870.71	22249
870.84	22371
870.97	22188
871.1	22177
871.23	22341
871.36	22356
871.489	22341
871.619	22379
871.749	22382
871.879	22382
872.008	22337
872.138	22421
872.267	22310
872.397	22196
872.526	22188
872.656	22192
872.785	22215
872.915	22512
873.044	22497
873.173	22405
873.303	22443
873.432	22405
873.561	22447
873.69	22421
873.819	22360
873.948	22516
874.077	22402
874.206	22287
874.335	22382
874.464	22405
874.593	22641
874.722	22694
874.851	22611
874.979	22668
875.108	22611
875.237	22596
875.365	22481
875.494	22630
875.623	22596
875.751	22554
875.88	22698
876.008	22649
876.136	22763
876.265	23010
876.393	23102
876.521	23098
876.65	23094
876.778	23003
876.906	22949
877.034	22900
877.162	22972
877.29	22774
877.418	22949
877.546	23006
877.674	22942
877.802	22946
877.93	22946
878.058	22889
878.185	22866
878.313	22759
878.441	22881
878.568	22850
878.696	22866
878.824	23029
878.951	23048
879.079	23250
879.206	23155
879.333	23166
879.461	22957
879.588	23014
879.715	23246
879.842	23178
879.97	22972
880.097	22729
880.224	22641
880.351	22778
880.478	22748
880.605	22698
880.732	22717
880.859	22934
880.986	22793
881.112	22744
881.239	22668
881.366	22504
881.493	22417
881.619	22268
881.746	22405
881.872	22318
881.999	22200
882.125	22211
882.252	22196
882.378	22226
882.505	22405
882.631	22238
882.757	22169
882.883	22006
883.01	22040
883.136	22029
883.262	21956
883.388	21781
883.514	22090
883.64	22070
883.766	21941
883.892	21888
884.018	21899
884.143	21907
884.269	22124
884.395	21724
884.52	21622
884.646	21629
884.772	21629
884.897	21622
885.023	21599
885.148	21876
885.274	21831
885.399	21755
885.524	21663
885.65	21652
885.775	21648
885.9	21519
886.025	21812
886.15	21812
886.275	21652
886.4	21618
886.525	21610
886.65	21564
886.775	21690
886.9	21816
887.025	21774
887.149	21736
887.274	21534
887.399	21488
887.523	21397
887.648	21306
887.773	21218
887.897	21469
888.021	21504
888.146	21378
888.27	21557
888.395	21519
888.519	21515
888.643	21450
888.767	21424
888.891	21370
889.015	21233
889.139	21317
889.263	21374
889.387	21344
889.511	21435
889.635	21260
889.759	21344
889.883	21127
890.006	21260
890.13	21302
890.254	21237
890.377	21260
890.501	20963
890.624	20849
890.748	20994
890.871	21001
890.995	20746
891.118	20727
891.241	20804
891.364	20705
891.488	20830
891.611	20883
891.734	20864
891.857	20804
891.98	20758
892.103	20701
892.226	20796
892.349	20842
892.471	20629
892.594	20629
892.717	20861
892.839	20663
892.962	20667
893.085	20716
893.207	20651
893.33	20533
893.452	20606
893.575	20720
893.697	20617
893.819	20845
893.941	20906
894.064	20834
894.186	20545
894.308	20644
894.43	20629
894.552	20663
894.674	20686
894.796	20594
894.918	20545
895.04	20629
895.161	20716
895.283	20701
895.405	20667
895.526	20636
895.648	20651
895.769	20549
895.891	20739
896.012	20670
896.134	20678
896.255	20712
896.376	20590
896.498	20590
896.619	20640
896.74	20640
896.861	20663
896.982	20895
897.103	21039
897.224	20773
897.345	20891
897.466	20796
897.587	20804
897.708	21032
897.828	20975
897.949	20785
898.07	20735
898.19	20887
898.311	21001
898.431	20754
898.552	20754
898.672	20796
898.792	20979
898.913	20857
899.033	20853
899.153	20659
899.273	20446
899.393	20556
899.513	20602
899.633	20613
899.753	20640
899.873	20419
899.993	20640
900.113	20678
900.232	20526
900.352	20469
900.472	20476
900.591	20267
900.711	20328
900.83	20404
900.95	20415
901.069	20488
901.189	20282
901.308	20069
901.427	19864
901.546	19906
901.665	19936
901.784	19913
901.904	19689
902.023	19715
902.141	19533
902.26	19438
902.379	19544
902.498	19506
902.617	19453
902.735	19464
902.854	19521
902.973	19373
903.091	19228
903.21	19141
903.328	19061
903.446	18943
903.565	18920
903.683	18924
903.801	18787
903.919	18894
904.038	18882
904.156	18681
904.274	18753
904.392	18635
904.51	18658
904.627	18661
904.745	18787
904.863	18783
904.981	18490
905.098	18262
905.216	18292
905.334	18380
905.451	18380
905.569	18338
905.686	18403
905.803	18254
905.921	18235
906.038	18262
906.155	18098
906.272	18072
906.389	18060
906.506	17988
906.623	17889
906.74	17805
906.857	17718
906.974	17840
907.091	17908
907.208	17965
907.324	17897
907.441	17882
907.557	17672
907.674	17619
907.79	17592
907.907	17471
908.023	17642
908.139	17528
908.256	17509
908.372	17581
908.488	17539
908.604	17318
908.72	17296
908.836	17315
908.952	17288
909.068	17334
909.184	17349
909.3	17334
909.415	17353
909.531	17258
909.647	17052
909.762	17064
909.878	16995
909.993	17045
910.108	16896
910.224	17014
910.339	16923
910.454	16904
910.57	16847
910.685	16824
910.8	16904
910.915	16938
911.03	16733
911.145	16698
911.259	16634
911.374	16656
911.489	16558
911.604	16474
911.718	16341
911.833	16322
911.947	16207
912.062	16192
912.176	16253
912.291	16371
912.405	16348
912.519	16481
912.633	16527
912.748	16424
912.862	16234
912.976	16116
913.09	16032
913.204	15998
913.318	16074
913.431	16261
913.545	16147
913.659	16185
913.772	16097
913.886	16059
914	15926
914.113	15968
914.226	16006
914.34	15941
914.453	15797
914.566	15956
914.68	15892
914.793	15781
914.906	15561
915.019	15515
915.132	15435
915.245	15462
915.358	15511
915.47	15603
915.583	15545
915.696	15675
915.809	15720
915.921	15663
916.034	15431
916.146	15401
916.259	15393
916.371	15488
916.483	15435
916.595	15431
916.708	15363
916.82	15340
916.932	15336
917.044	15184
917.156	15291
917.268	15203
917.38	15233
917.491	15142
917.603	15157
917.715	15222
917.826	15264
917.938	15036
918.049	14941
918.161	15135
918.272	15230
918.384	15264
918.495	15165
918.606	14990
918.717	14800
918.828	14963
918.939	14925
919.05	14952
919.161	14902
919.272	14693
919.383	14746
919.494	14872
919.604	15112
919.715	14982
919.826	14853
919.936	14876
920.047	14902
920.157	14872
920.267	15039
920.378	14838
920.488	14785
920.598	15058
920.708	15203
920.818	15024
920.928	14883
921.038	15195
921.148	15043
921.258	14872
921.368	14765
921.477	14697
921.587	14598
921.697	14465
921.806	14533
921.916	14469
922.025	14259
922.134	14221
922.244	14199
922.353	14229
922.462	14153
922.571	14046
922.68	13970
922.789	13852
922.898	13826
923.007	13902
923.116	13902
923.224	13864
923.333	13799
923.442	13681
923.55	13784
923.659	13700
923.767	13799
923.876	13552
923.984	13784
924.092	13575
924.201	13674
924.309	13582
924.417	13582
924.525	13643
924.633	13609
924.741	14355
924.849	13221
924.956	13419
925.064	13297
925.172	13236
925.279	13225
925.387	13358
925.494	13289
925.602	13384
925.709	13293
925.816	13160
925.924	13282
926.031	13316
926.138	13278
926.245	13247
926.352	13194
926.459	13183
926.566	13232
926.673	13122
926.779	13027
926.886	13053
926.993	12856
927.099	12856
927.206	12749
927.312	12749
927.419	12871
927.525	12711
927.631	12871
927.737	12734
927.843	12631
927.95	12585
928.056	12677
928.162	12711
928.267	12700
928.373	13126
928.479	12665
928.585	12483
928.69	12536
928.796	12730
928.901	12509
929.007	12441
929.112	12403
929.218	12384
929.323	12346
929.428	12372
929.533	12502
929.638	12323
929.743	12353
929.848	12380
929.953	12407
930.058	12182
930.163	12015
930.267	12053
930.372	12201
930.477	12003
930.581	12178
930.685	12106
930.79	11847
930.894	11916
930.998	11904
931.103	12098
931.207	11657
931.311	11535
931.415	11551
931.519	11277
931.623	11303
