Data from test_V78500241_2594.txt Node
Date: Fri Mar 25 15:27:55 CST 2022
User: usil
Spectrometer: V785-0024
Trigger mode: 0
Integration Time (sec): 4.000000E-1
Scans to average: 1
Nonlinearity correction enabled: false
Boxcar width: 0
Storing dark spectrum: false
XAxis mode: Wavelengths
Number of Pixels in Spectrum: 1024
>>>>>Begin Spectral Data<<<<<
801.071	27161
801.214	27184
801.356	26925
801.499	26925
801.641	26815
801.783	26785
801.926	26727
802.068	26720
802.211	26785
802.353	26530
802.496	26385
802.638	26339
802.78	26305
802.923	26176
803.065	26191
803.208	26164
803.35	26431
803.492	26393
803.635	26530
803.777	26377
803.919	26571
804.061	26857
804.204	26347
804.346	26568
804.488	26347
804.63	26473
804.773	26453
804.915	26427
805.057	26518
805.199	26442
805.341	26362
805.483	26693
805.626	26739
805.768	26545
805.91	26587
806.052	26484
806.194	26526
806.336	26724
806.478	26522
806.62	26552
806.762	26743
806.904	26785
807.046	27112
807.188	27058
807.33	27005
807.472	27043
807.614	26849
807.756	26864
807.898	26864
808.04	26815
808.182	26758
808.324	26902
808.465	26845
808.607	27062
808.749	27096
808.891	27233
809.033	27233
809.174	27077
809.316	27074
809.458	27222
809.6	27199
809.741	27283
809.883	27173
810.025	27511
810.166	27386
810.308	27481
810.45	27302
810.591	27313
810.733	27150
810.875	27249
811.016	27089
811.158	27047
811.299	27264
811.441	27386
811.582	27283
811.724	27214
811.865	26986
812.007	27252
812.148	26986
812.29	27119
812.431	27355
812.573	27435
812.714	27568
812.855	27698
812.997	27717
813.138	27861
813.279	27648
813.421	27698
813.562	27591
813.703	27355
813.845	27329
813.986	26940
814.127	26910
814.268	26838
814.41	26967
814.551	26724
814.692	26883
814.833	26758
814.974	26743
815.115	26853
815.256	26648
815.397	26796
815.539	26663
815.68	26640
815.821	26434
815.962	26693
816.103	26499
816.244	26537
816.385	26415
816.526	26347
816.666	26172
816.807	26039
816.948	26229
817.089	26073
817.23	26122
817.371	26024
817.512	26020
817.653	25978
817.793	25944
817.934	26084
818.075	26054
818.216	26081
818.356	25955
818.497	25978
818.638	25746
818.778	25738
818.919	25917
819.06	25837
819.2	25887
819.341	26096
819.481	26172
819.622	26111
819.762	26381
819.903	26347
820.043	26275
820.184	26183
820.324	26202
820.465	26214
820.605	26103
820.746	26050
820.886	25928
821.026	26240
821.167	26020
821.307	26107
821.447	26134
821.588	25970
821.728	25944
821.868	25814
822.008	25586
822.149	25575
822.289	25548
822.429	25350
822.569	25202
822.709	25236
822.849	25118
822.99	25206
823.13	25091
823.27	25031
823.41	24882
823.55	24772
823.69	24958
823.83	25015
823.97	24840
824.11	24730
824.25	24616
824.389	24753
824.529	24722
824.669	24726
824.809	24768
824.949	24852
825.089	24825
825.228	24806
825.368	24494
825.508	24612
825.648	24566
825.787	24631
825.927	24604
826.067	24540
826.206	24601
826.346	24585
826.485	24658
826.625	24589
826.765	24646
826.904	24623
827.044	24323
827.183	24361
827.323	24285
827.462	24319
827.601	24380
827.741	24232
827.88	24232
828.02	24224
828.159	24216
828.298	24254
828.437	24365
828.577	24266
828.716	24388
828.855	24258
828.994	24087
829.134	23954
829.273	23999
829.412	24015
829.551	23912
829.69	24018
829.829	24018
829.968	24057
830.107	24083
830.246	24091
830.385	23992
830.524	23813
830.663	23912
830.802	23779
830.941	23528
831.08	23707
831.219	23745
831.357	23733
831.496	23824
831.635	23638
831.774	23471
831.913	23547
832.051	23448
832.19	23353
832.329	23395
832.467	23315
832.606	23246
832.744	23269
832.883	23265
833.022	23330
833.16	23193
833.299	23356
833.437	23383
833.576	23315
833.714	23356
833.852	23379
833.991	23505
834.129	23490
834.267	23379
834.406	23387
834.544	23398
834.682	23307
834.821	23455
834.959	23471
835.097	23162
835.235	23448
835.373	23292
835.511	23280
835.65	23212
835.788	23246
835.926	23162
836.064	23121
836.202	23079
836.34	23204
836.478	23280
836.615	23102
836.753	23223
836.891	23258
837.029	23315
837.167	23128
837.305	23204
837.443	23121
837.58	23060
837.718	23090
837.856	23071
837.993	23014
838.131	23025
838.269	22915
838.406	22881
838.544	22843
838.681	22786
838.819	22656
838.956	22455
839.094	22706
839.231	22691
839.369	22744
839.506	22847
839.643	22706
839.781	22641
839.918	22489
840.055	22588
840.193	22580
840.33	22459
840.467	22485
840.604	22474
840.742	22755
840.879	22360
841.016	22436
841.153	22363
841.29	22603
841.427	22470
841.564	22519
841.701	22470
841.838	22367
841.975	22287
842.112	22497
842.249	22428
842.385	22242
842.522	22443
842.659	22344
842.796	22333
842.933	22405
843.069	22196
843.206	22097
843.343	22352
843.479	22181
843.616	22291
843.752	22040
843.889	22082
844.025	22116
844.162	22013
844.298	22143
844.435	21918
844.571	21964
844.708	21865
844.844	22067
844.98	22067
845.117	22116
845.253	21903
845.389	21800
845.525	21922
845.661	21751
845.798	21781
845.934	21861
846.07	21789
846.206	21797
846.342	21842
846.478	21755
846.614	21633
846.75	21408
846.886	21504
847.022	21545
847.158	21462
847.294	21610
847.429	21580
847.565	21580
847.701	21819
847.837	21142
847.972	21150
848.108	21260
848.244	21310
848.379	21100
848.515	21028
848.65	20941
848.786	21062
848.921	21165
849.057	21165
849.192	21108
849.328	20990
849.463	20990
849.598	20986
849.734	21039
849.869	20910
850.004	20899
850.14	20891
850.275	20876
850.41	20724
850.545	20758
850.68	20697
850.815	20880
850.95	20811
851.085	21032
851.22	20975
851.355	20849
851.49	20811
851.625	20826
851.76	20868
851.895	20826
852.03	20762
852.165	20777
852.299	20807
852.434	20899
852.569	20929
852.703	20857
852.838	20929
852.973	20948
853.107	20982
853.242	20834
853.376	20743
853.511	20564
853.645	20746
853.78	20785
853.914	20739
854.048	20636
854.183	20560
854.317	20697
854.451	20887
854.585	20708
854.72	20693
854.854	20731
854.988	20583
855.122	20590
855.256	20587
855.39	20644
855.524	20739
855.658	20663
855.792	20731
855.926	20697
856.06	20632
856.194	20708
856.327	20644
856.461	20629
856.595	20571
856.729	20663
856.862	20838
856.996	20705
857.13	20708
857.263	20720
857.397	20914
857.53	20720
857.664	20773
857.797	20781
857.931	20811
858.064	20754
858.197	20720
858.331	20705
858.464	20648
858.597	20454
858.731	20762
858.864	20625
858.997	20549
859.13	20689
859.263	20674
859.396	20746
859.529	20682
859.662	20659
859.795	20587
859.928	20708
860.061	20785
860.194	20861
860.327	20712
860.46	20655
860.592	20845
860.725	20750
860.858	20765
860.99	20678
861.123	20644
861.256	20739
861.388	20602
861.521	21313
861.653	20568
861.786	20484
861.918	20518
862.05	20598
862.183	20587
862.315	20568
862.447	20731
862.58	20537
862.712	20446
862.844	20309
862.976	20499
863.108	20400
863.24	20925
863.372	20339
863.504	20492
863.636	20343
863.768	20404
863.9	20412
864.032	20393
864.164	20431
864.296	20454
864.428	20533
864.559	20457
864.691	20419
864.823	20434
864.954	20419
865.086	20522
865.217	20336
865.349	20218
865.48	20195
865.612	20313
865.743	20419
865.875	20381
866.006	20183
866.137	20381
866.269	20164
866.4	20240
866.531	20309
866.662	20084
866.793	20195
866.924	20145
867.055	20252
867.186	20199
867.317	20199
867.448	20206
867.579	20153
867.71	20168
867.841	20084
867.972	20248
868.103	20233
868.233	20278
868.364	20298
868.495	20324
868.625	20465
868.756	20568
868.886	20320
869.017	20454
869.147	20571
869.278	20579
869.408	20484
869.539	20408
869.669	20568
869.799	20374
869.929	20518
870.06	20537
870.19	20750
870.32	20632
870.45	20891
870.58	20979
870.71	20929
870.84	20925
870.97	20830
871.1	20998
871.23	21108
871.36	20971
871.489	20933
871.619	21009
871.749	21104
871.879	21123
872.008	21104
872.138	21085
872.267	21131
872.397	20941
872.526	20838
872.656	20861
872.785	20956
872.915	21100
873.044	21047
873.173	21165
873.303	21211
873.432	21051
873.561	21142
873.69	21051
873.819	21123
873.948	21264
874.077	21055
874.206	21047
874.335	21184
874.464	21294
874.593	21355
874.722	21340
874.851	21382
874.979	21291
875.108	21443
875.237	21321
875.365	21237
875.494	21275
875.623	21386
875.751	21287
875.88	21332
876.008	21469
876.136	21485
876.265	21846
876.393	21789
876.521	21766
876.65	21774
876.778	21755
876.906	21728
877.034	21622
877.162	21823
877.29	21644
877.418	21736
877.546	21732
877.674	21705
877.802	21728
877.93	21743
878.058	21595
878.185	21663
878.313	21614
878.441	21705
878.568	21500
878.696	21797
878.824	21720
878.951	21785
879.079	21903
879.206	21975
879.333	21797
879.461	21861
879.588	21854
879.715	21903
879.842	22017
879.97	21812
880.097	21595
880.224	21515
880.351	21583
880.478	21462
880.605	21530
880.732	21435
880.859	21781
880.986	21545
881.112	21526
881.239	21405
881.366	21321
881.493	21123
881.619	21051
881.746	21093
881.872	21146
881.999	21096
882.125	21051
882.252	21241
882.378	21077
882.505	21207
882.631	20971
882.757	20819
882.883	20902
883.01	20830
883.136	20731
883.262	20537
883.388	20674
883.514	20857
883.64	20864
883.766	20735
883.892	20575
884.018	20644
884.143	20682
884.269	20781
884.395	20488
884.52	20427
884.646	20495
884.772	20362
884.897	20259
885.023	20454
885.148	20552
885.274	20579
885.399	20507
885.524	20518
885.65	20503
885.775	20465
885.9	20423
886.025	20514
886.15	20438
886.275	20514
886.4	20339
886.525	20488
886.65	20358
886.775	20305
886.9	20571
887.025	20762
887.149	20389
887.274	20210
887.399	20256
887.523	20271
887.648	20142
887.773	20183
887.897	20199
888.021	20237
888.146	20202
888.27	20328
888.395	20271
888.519	20214
888.643	20240
888.767	20320
888.891	20134
889.015	20119
889.139	20126
889.263	20073
889.387	20111
889.511	20240
889.635	20126
889.759	20005
889.883	19921
890.006	20130
890.13	20130
890.254	19944
890.377	19978
890.501	19875
890.624	19704
890.748	19799
890.871	19655
890.995	19734
891.118	19605
891.241	19628
891.364	19658
891.488	19693
891.611	19662
891.734	19609
891.857	19696
891.98	19651
892.103	19655
892.226	19685
892.349	19556
892.471	19483
892.594	19620
892.717	19472
892.839	19518
892.962	19491
893.085	19521
893.207	19422
893.33	19388
893.452	19438
893.575	19499
893.697	19556
893.819	19658
893.941	19700
894.064	19727
894.186	19499
894.308	19441
894.43	19586
894.552	19616
894.674	19666
894.796	19521
894.918	19487
895.04	19453
895.161	19537
895.283	19571
895.405	19392
895.526	19594
895.648	19514
895.769	19563
895.891	19563
896.012	19643
896.134	19533
896.255	19548
896.376	19533
896.498	19624
896.619	19525
896.74	19510
896.861	19597
896.982	19814
897.103	20012
897.224	19822
897.345	19727
897.466	19635
897.587	19799
897.708	19814
897.828	19776
897.949	19548
898.07	19529
898.19	19575
898.311	19837
898.431	19586
898.552	19772
898.672	19852
898.792	19830
898.913	19822
899.033	19708
899.153	19582
899.273	19529
899.393	19499
899.513	19510
899.633	19601
899.753	19502
899.873	19430
899.993	19559
900.113	19449
900.232	19453
900.352	19373
900.472	19381
900.591	19247
900.711	19190
900.83	19217
900.95	19483
901.069	19430
901.189	19168
901.308	18966
901.427	18951
901.546	18916
901.665	19023
901.784	18890
901.904	18776
902.023	18642
902.141	18528
902.26	18407
902.379	18506
902.498	18441
902.617	18403
902.735	18448
902.854	18330
902.973	18357
903.091	18095
903.21	18110
903.328	17931
903.446	18076
903.565	17916
903.683	17882
903.801	17794
903.919	17859
904.038	17855
904.156	17604
904.274	17775
904.392	17668
904.51	17684
904.627	17608
904.745	17722
904.863	17672
904.981	17440
905.098	17311
905.216	17402
905.334	17345
905.451	17372
905.569	17391
905.686	17391
905.803	17311
905.921	17071
906.038	17227
906.155	17193
906.272	17113
906.389	16999
906.506	16908
906.623	16995
906.74	16908
906.857	16710
906.974	16782
907.091	16930
907.208	17056
907.324	16953
907.441	16866
907.557	16599
907.674	16649
907.79	16565
907.907	16596
908.023	16691
908.139	16683
908.256	16538
908.372	16474
908.488	16462
908.604	16329
908.72	16261
908.836	16360
908.952	16306
909.068	16459
909.184	16314
909.3	16276
909.415	16417
909.531	16291
909.647	16051
909.762	16029
909.878	16097
909.993	16017
910.108	16025
910.224	15987
910.339	16067
910.454	16006
910.57	15835
910.685	15781
910.8	16105
910.915	16032
911.03	15804
911.145	15610
911.259	15618
911.374	15690
911.489	15519
911.604	15648
911.718	15435
911.833	15454
911.947	15302
912.062	15359
912.176	15469
912.291	15424
912.405	15370
912.519	15599
912.633	15637
912.748	15431
912.862	15473
912.976	15252
913.09	15157
913.204	15230
913.318	15226
913.431	15192
913.545	15287
913.659	15325
913.772	15173
913.886	15108
914	14986
914.113	15108
914.226	15093
914.34	15188
914.453	14933
914.566	14986
914.68	15001
914.793	14963
914.906	14651
915.019	14754
915.132	14598
915.245	14594
915.358	14537
915.47	14712
915.583	14621
915.696	14697
915.809	14815
915.921	14796
916.034	14488
916.146	14530
916.259	14507
916.371	14571
916.483	14625
916.595	14473
916.708	14488
916.82	14476
916.932	14473
917.044	14434
917.156	14446
917.268	14240
917.38	14298
917.491	14358
917.603	14317
917.715	14473
917.826	14389
917.938	14313
918.049	14134
918.161	14336
918.272	14404
918.384	14343
918.495	14282
918.606	14084
918.717	14001
918.828	14065
918.939	14176
919.05	13967
919.161	14103
919.272	13940
919.383	13925
919.494	14103
919.604	14294
919.715	14088
919.826	13940
919.936	13963
920.047	14142
920.157	14054
920.267	14153
920.378	14062
920.488	13978
920.598	14290
920.708	14305
920.818	14248
920.928	14164
921.038	14343
921.148	14313
921.258	14046
921.368	13902
921.477	13753
921.587	13746
921.697	13666
921.806	13818
921.916	13639
922.025	13571
922.134	13464
922.244	13384
922.353	13559
922.462	13396
922.571	13293
922.68	13244
922.789	13099
922.898	13126
923.007	13065
923.116	13145
923.224	13053
923.333	13091
923.442	13004
923.55	12970
923.659	12920
923.767	13012
923.876	12954
923.984	12977
924.092	12768
924.201	12966
924.309	12928
924.417	12814
924.525	12802
924.633	12802
924.741	13742
924.849	12582
924.956	12787
925.064	12570
925.172	12525
925.279	12547
925.387	12528
925.494	12578
925.602	12707
925.709	12563
925.816	12437
925.924	12555
926.031	12654
926.138	12582
926.245	12479
926.352	12414
926.459	12467
926.566	12582
926.673	12467
926.779	12281
926.886	12338
926.993	12163
927.099	12205
927.206	12068
927.312	12148
927.419	12171
927.525	12110
927.631	12121
927.737	12079
927.843	12057
927.95	11931
928.056	11961
928.162	11935
928.267	11954
928.373	12494
928.479	12095
928.585	11813
928.69	11920
928.796	12007
928.901	11847
929.007	11642
929.112	11840
929.218	11824
929.323	11737
929.428	11672
929.533	11783
929.638	11551
929.743	11699
929.848	11699
929.953	11630
930.058	11509
930.163	11376
930.267	11402
930.372	11497
930.477	11345
930.581	11497
930.685	11410
930.79	11311
930.894	11299
930.998	11299
931.103	11406
931.207	10995
931.311	10957
931.415	10885
931.519	10675
931.623	10641
