Data from test_V78500241_1179.txt Node
Date: Fri Mar 25 15:18:03 CST 2022
User: usil
Spectrometer: V785-0024
Trigger mode: 0
Integration Time (sec): 4.000000E-1
Scans to average: 1
Nonlinearity correction enabled: false
Boxcar width: 0
Storing dark spectrum: false
XAxis mode: Wavelengths
Number of Pixels in Spectrum: 1024
>>>>>Begin Spectral Data<<<<<
801.071	27797
801.214	27698
801.356	27542
801.499	27454
801.641	27325
801.783	27367
801.926	27439
802.068	27386
802.211	27211
802.353	27287
802.496	27013
802.638	27142
802.78	27138
802.923	26826
803.065	26979
803.208	26815
803.35	27150
803.492	27108
803.635	27199
803.777	27176
803.919	27169
804.061	27431
804.204	27176
804.346	27192
804.488	27192
804.63	27214
804.773	27104
804.915	27252
805.057	27203
805.199	27321
805.341	27226
805.483	27374
805.626	27405
805.768	27287
805.91	27195
806.052	27291
806.194	27252
806.336	27447
806.478	27389
806.62	27427
806.762	27462
806.904	27614
807.046	27953
807.188	27736
807.33	27876
807.472	27728
807.614	27743
807.756	27838
807.898	27770
808.04	27648
808.182	27686
808.324	27778
808.465	27614
808.607	27755
808.749	27975
808.891	28173
809.033	28188
809.174	28128
809.316	27949
809.458	27941
809.6	27899
809.741	28078
809.883	28048
810.025	28261
810.166	28398
810.308	28219
810.45	28253
810.591	28173
810.733	28158
810.875	27987
811.016	27873
811.158	28002
811.299	28032
811.441	28070
811.582	28169
811.724	27873
811.865	27983
812.007	27850
812.148	28131
812.29	27975
812.431	28139
812.573	28413
812.714	28497
812.855	28569
812.997	28615
813.138	28725
813.279	28603
813.421	28634
813.562	28626
813.703	28382
813.845	28348
813.986	27960
814.127	27861
814.268	27762
814.41	27641
814.551	27789
814.692	27800
814.833	27720
814.974	27751
815.115	27690
815.256	27469
815.397	27622
815.539	27641
815.68	27515
815.821	27523
815.962	27545
816.103	27542
816.244	27427
816.385	27310
816.526	27256
816.666	27146
816.807	26986
816.948	27009
817.089	27104
817.23	27085
817.371	27005
817.512	26914
817.653	26967
817.793	26979
817.934	27036
818.075	26990
818.216	26979
818.356	26914
818.497	26823
818.638	26773
818.778	26731
818.919	26720
819.06	26739
819.2	26952
819.341	27001
819.481	26864
819.622	27051
819.762	27272
819.903	27264
820.043	27135
820.184	27096
820.324	27096
820.465	27241
820.605	27157
820.746	27116
820.886	27039
821.026	27146
821.167	26986
821.307	27211
821.447	27058
821.588	26918
821.728	26849
821.868	26549
822.008	26434
822.149	26488
822.289	26427
822.429	26130
822.569	26058
822.709	26161
822.849	26008
822.99	26027
823.13	26005
823.27	25875
823.41	25689
823.55	25685
823.69	25731
823.83	25761
823.97	25620
824.11	25639
824.25	25674
824.389	25529
824.529	25791
824.669	25674
824.809	25696
824.949	25693
825.089	25715
825.228	25712
825.368	25438
825.508	25529
825.648	25502
825.787	25658
825.927	25616
826.067	25499
826.206	25430
826.346	25514
826.485	25518
826.625	25483
826.765	25449
826.904	25525
827.044	25274
827.183	25183
827.323	25145
827.462	25236
827.601	25133
827.741	25270
827.88	25160
828.02	25072
828.159	25244
828.298	25095
828.437	25282
828.577	25099
828.716	25282
828.855	25202
828.994	24970
829.134	24920
829.273	24844
829.412	24947
829.551	24878
829.69	24973
829.829	24951
829.968	25023
830.107	24943
830.246	25012
830.385	24856
830.524	24764
830.663	24726
830.802	24604
830.941	24589
831.08	24467
831.219	24688
831.357	24589
831.496	24768
831.635	24684
831.774	24456
831.913	24448
832.051	24346
832.19	24330
832.329	24426
832.467	24281
832.606	24190
832.744	24182
832.883	24266
833.022	24205
833.16	24323
833.299	24209
833.437	24304
833.576	24243
833.714	24289
833.852	24418
833.991	24292
834.129	24380
834.267	24346
834.406	24410
834.544	24304
834.682	24407
834.821	24277
834.959	24513
835.097	24254
835.235	24334
835.373	24190
835.511	24285
835.65	24083
835.788	24030
835.926	24030
836.064	23893
836.202	23931
836.34	24182
836.478	24270
836.615	24049
836.753	24102
836.891	24174
837.029	24087
837.167	23950
837.305	23984
837.443	24068
837.58	23836
837.718	23996
837.856	23996
837.993	23946
838.131	23965
838.269	23767
838.406	23813
838.544	23935
838.681	23509
838.819	23608
838.956	23383
839.094	23280
839.231	23452
839.369	23733
839.506	23866
839.643	23729
839.781	23410
839.918	23433
840.055	23284
840.193	23429
840.33	23303
840.467	23368
840.604	23353
840.742	23558
840.879	23193
841.016	23280
841.153	23227
841.29	23448
841.427	23398
841.564	23429
841.701	23208
841.838	23246
841.975	23284
842.112	23254
842.249	23269
842.385	23102
842.522	23383
842.659	23166
842.796	23094
842.933	23041
843.069	22995
843.206	23018
843.343	23181
843.479	23162
843.616	23159
843.752	22972
843.889	22995
844.025	23094
844.162	22843
844.298	22892
844.435	22930
844.571	22854
844.708	22839
844.844	22942
844.98	23025
845.117	23117
845.253	22809
845.389	22793
845.525	22847
845.661	22588
845.798	22542
845.934	22771
846.07	22577
846.206	22717
846.342	22626
846.478	22656
846.614	22512
846.75	22314
846.886	22333
847.022	22386
847.158	22341
847.294	22348
847.429	22417
847.565	22405
847.701	22615
847.837	22166
847.972	22109
848.108	22280
848.244	22120
848.379	21983
848.515	21911
848.65	21987
848.786	21991
848.921	22021
849.057	22032
849.192	22135
849.328	22040
849.463	21941
849.598	21937
849.734	21850
849.869	21747
850.004	21694
850.14	21732
850.275	21728
850.41	21595
850.545	21660
850.68	21549
850.815	21713
850.95	21690
851.085	21930
851.22	21739
851.355	21755
851.49	21793
851.625	21618
851.76	21545
851.895	21564
852.03	21629
852.165	21759
852.299	21774
852.434	21770
852.569	21720
852.703	21800
852.838	21778
852.973	21937
853.107	21911
853.242	21606
853.376	21637
853.511	21431
853.645	21564
853.78	21656
853.914	21599
854.048	21610
854.183	21496
854.317	21599
854.451	21694
854.585	21519
854.72	21587
854.854	21694
854.988	21485
855.122	21568
855.256	21374
855.39	21424
855.524	21633
855.658	21511
855.792	21583
855.926	21599
856.06	21618
856.194	21564
856.327	21580
856.461	21564
856.595	21515
856.729	21542
856.862	21717
856.996	21515
857.13	21625
857.263	21568
857.397	21519
857.53	21412
857.664	21614
857.797	21625
857.931	21625
858.064	21622
858.197	21606
858.331	21561
858.464	21538
858.597	21424
858.731	21408
858.864	21610
858.997	21538
859.13	21599
859.263	21538
859.396	21622
859.529	21504
859.662	21545
859.795	21500
859.928	21530
860.061	21739
860.194	21675
860.327	21561
860.46	21526
860.592	21587
860.725	21720
860.858	21606
860.99	21660
861.123	21420
861.256	21374
861.388	21557
861.521	22318
861.653	21424
861.786	21382
861.918	21344
862.05	21500
862.183	21382
862.315	21382
862.447	21488
862.58	21428
862.712	21340
862.844	21275
862.976	21313
863.108	21287
863.24	21660
863.372	21184
863.504	21237
863.636	21207
863.768	21207
863.9	21180
864.032	21180
864.164	21154
864.296	21192
864.428	21321
864.559	21241
864.691	21275
864.823	21199
864.954	21226
865.086	21230
865.217	21256
865.349	20956
865.48	21195
865.612	21180
865.743	21332
865.875	21154
866.006	21085
866.137	21108
866.269	21131
866.4	21135
866.531	21081
866.662	21081
866.793	21051
866.924	21032
867.055	21081
867.186	21108
867.317	21032
867.448	20952
867.579	21024
867.71	20944
867.841	21005
867.972	21146
868.103	21081
868.233	20979
868.364	21051
868.495	21298
868.625	21218
868.756	21355
868.886	21180
869.017	21329
869.147	21397
869.278	21367
869.408	21302
869.539	21275
869.669	21431
869.799	21393
869.929	21466
870.06	21466
870.19	21686
870.32	21545
870.45	21614
870.58	21759
870.71	21800
870.84	21808
870.97	21690
871.1	21701
871.23	21846
871.36	21907
871.489	21846
871.619	21831
871.749	21949
871.879	22002
872.008	22139
872.138	21865
872.267	21888
872.397	21842
872.526	21675
872.656	21728
872.785	21728
872.915	21915
873.044	22128
873.173	21876
873.303	22040
873.432	21850
873.561	22051
873.69	21949
873.819	21816
873.948	22017
874.077	22010
874.206	21873
874.335	21975
874.464	22063
874.593	22154
874.722	22169
874.851	22204
874.979	22173
875.108	22249
875.237	22158
875.365	22063
875.494	22166
875.623	22025
875.751	22048
875.88	22025
876.008	22124
876.136	22413
876.265	22618
876.393	22641
876.521	22504
876.65	22565
876.778	22691
876.906	22546
877.034	22390
877.162	22519
877.29	22500
877.418	22462
877.546	22649
877.674	22588
877.802	22504
877.93	22432
878.058	22325
878.185	22329
878.313	22478
878.441	22409
878.568	22310
878.696	22531
878.824	22508
878.951	22489
879.079	22702
879.206	22873
879.333	22637
879.461	22493
879.588	22573
879.715	22645
879.842	22812
879.97	22607
880.097	22356
880.224	22451
880.351	22405
880.478	22333
880.605	22230
880.732	22322
880.859	22519
880.986	22322
881.112	22284
881.239	22204
881.366	21964
881.493	21911
881.619	21907
881.746	22002
881.872	22036
881.999	21835
882.125	21804
882.252	21850
882.378	21846
882.505	22074
882.631	21789
882.757	21595
882.883	21663
883.01	21614
883.136	21660
883.262	21359
883.388	21466
883.514	21515
883.64	21808
883.766	21526
883.892	21340
884.018	21355
884.143	21428
884.269	21587
884.395	21336
884.52	21188
884.646	21230
884.772	21119
884.897	21017
885.023	21294
885.148	21393
885.274	21439
885.399	21233
885.524	21306
885.65	21256
885.775	21192
885.9	21214
886.025	21192
886.15	21294
886.275	21245
886.4	21142
886.525	21203
886.65	21024
886.775	21245
886.9	21329
887.025	21420
887.149	21173
887.274	21085
887.399	20998
887.523	21096
887.648	20925
887.773	20792
887.897	21055
888.021	21005
888.146	20864
888.27	21036
888.395	20990
888.519	21013
888.643	20967
888.767	21123
888.891	20902
889.015	20918
889.139	20769
889.263	20796
889.387	20925
889.511	20990
889.635	20811
889.759	20701
889.883	20678
890.006	20796
890.13	20826
890.254	20746
890.377	20777
890.501	20537
890.624	20549
890.748	20716
890.871	20488
890.995	20412
891.118	20366
891.241	20396
891.364	20313
891.488	20412
891.611	20267
891.734	20237
891.857	20434
891.98	20415
892.103	20301
892.226	20412
892.349	20366
892.471	20176
892.594	20229
892.717	20233
892.839	20286
892.962	20252
893.085	20294
893.207	20130
893.33	20187
893.452	20130
893.575	20328
893.697	20183
893.819	20347
893.941	20438
894.064	20404
894.186	20122
894.308	20187
894.43	20355
894.552	20248
894.674	20313
894.796	20145
894.918	20229
895.04	20256
895.161	20275
895.283	20218
895.405	20168
895.526	20202
895.648	20256
895.769	20229
895.891	20313
896.012	20271
896.134	20301
896.255	20248
896.376	20252
896.498	20294
896.619	20320
896.74	20145
896.861	20389
896.982	20442
897.103	20758
897.224	20526
897.345	20526
897.466	20385
897.587	20457
897.708	20678
897.828	20568
897.949	20450
898.07	20309
898.19	20347
898.311	20476
898.431	20431
898.552	20514
898.672	20461
898.792	20568
898.913	20412
899.033	20370
899.153	20320
899.273	20183
899.393	20153
899.513	20339
899.633	20256
899.753	20111
899.873	20107
899.993	20202
900.113	20267
900.232	20176
900.352	20142
900.472	20050
900.591	19940
900.711	20005
900.83	19871
900.95	20164
901.069	20020
901.189	19936
901.308	19582
901.427	19525
901.546	19567
901.665	19552
901.784	19597
901.904	19472
902.023	19320
902.141	19244
902.26	19038
902.379	19179
902.498	19050
902.617	18993
902.735	19031
902.854	19050
902.973	19137
903.091	18753
903.21	18783
903.328	18719
903.446	18665
903.565	18551
903.683	18494
903.801	18471
903.919	18475
904.038	18540
904.156	18429
904.274	18445
904.392	18285
904.51	18296
904.627	18292
904.745	18433
904.863	18372
904.981	17988
905.098	17992
905.216	18019
905.334	18053
905.451	17996
905.569	17927
905.686	17931
905.803	17851
905.921	17809
906.038	17802
906.155	17779
906.272	17665
906.389	17661
906.506	17592
906.623	17551
906.74	17676
906.857	17429
906.974	17486
907.091	17611
907.208	17570
907.324	17547
907.441	17429
907.557	17250
907.674	17303
907.79	17246
907.907	17353
908.023	17334
908.139	17277
908.256	17178
908.372	17277
908.488	17143
908.604	16968
908.72	16877
908.836	16968
908.952	16957
909.068	17010
909.184	16946
909.3	16968
909.415	16972
909.531	16965
909.647	16713
909.762	16786
909.878	16733
909.993	16679
910.108	16706
910.224	16759
910.339	16645
910.454	16485
910.57	16558
910.685	16466
910.8	16679
910.915	16615
911.03	16531
911.145	16356
911.259	16402
911.374	16325
911.489	16196
911.604	16230
911.718	16105
911.833	16029
911.947	15968
912.062	15850
912.176	16036
912.291	16036
912.405	15964
912.519	16249
912.633	16162
912.748	16044
912.862	15854
912.976	15895
913.09	15804
913.204	15759
913.318	15846
913.431	15884
913.545	15888
913.659	15873
913.772	15762
913.886	15690
914	15641
914.113	15804
914.226	15770
914.34	15679
914.453	15561
914.566	15732
914.68	15485
914.793	15450
914.906	15401
915.019	15298
915.132	15176
915.245	15165
915.358	15340
915.47	15321
915.583	15226
915.696	15287
915.809	15313
915.921	15313
916.034	15180
916.146	15089
916.259	15112
916.371	15226
916.483	15195
916.595	14994
916.708	15089
916.82	15093
916.932	15085
917.044	15062
917.156	14952
917.268	14849
917.38	14891
917.491	14899
917.603	14906
917.715	14937
917.826	14994
917.938	14872
918.049	14815
918.161	14830
918.272	14994
918.384	14971
918.495	14811
918.606	14716
918.717	14667
918.828	14773
918.939	14617
919.05	14530
919.161	14659
919.272	14366
919.383	14461
919.494	14598
919.604	14811
919.715	14674
919.826	14571
919.936	14644
920.047	14651
920.157	14629
920.267	14785
920.378	14556
920.488	14579
920.598	14785
920.708	14887
920.818	14708
920.928	14762
921.038	14941
921.148	14788
921.258	14716
921.368	14484
921.477	14427
921.587	14298
921.697	14180
921.806	14286
921.916	14153
922.025	13970
922.134	14008
922.244	13879
922.353	13986
922.462	13814
922.571	13784
922.68	13601
922.789	13632
922.898	13594
923.007	13525
923.116	13685
923.224	13632
923.333	13586
923.442	13594
923.55	13434
923.659	13499
923.767	13537
923.876	13422
923.984	13533
924.092	13339
924.201	13419
924.309	13464
924.417	13362
924.525	13327
924.633	13308
924.741	14111
924.849	13126
924.956	13217
925.064	13107
925.172	12951
925.279	13072
925.387	13129
925.494	13114
925.602	13149
925.709	13072
925.816	12981
925.924	12947
926.031	13046
926.138	13004
926.245	13008
926.352	12863
926.459	12966
926.566	13072
926.673	12970
926.779	12814
926.886	12802
926.993	12681
927.099	12604
927.206	12612
927.312	12585
927.419	12642
927.525	12574
927.631	12593
927.737	12544
927.843	12353
927.95	12315
928.056	12422
928.162	12407
928.267	12437
928.373	13031
928.479	12513
928.585	12334
928.69	12334
928.796	12448
928.901	12296
929.007	12117
929.112	12300
929.218	12178
929.323	12201
929.428	12167
929.533	12357
929.638	12171
929.743	12038
929.848	12216
929.953	12102
930.058	12007
930.163	11794
930.267	11832
930.372	11984
930.477	11817
930.581	12011
930.685	11847
930.79	11726
930.894	11699
930.998	11688
931.103	11855
931.207	11505
931.311	11398
931.415	11345
931.519	11086
931.623	11132
