Data from test_V78500241_194.txt Node
Date: Fri Mar 25 15:11:12 CST 2022
User: usil
Spectrometer: V785-0024
Trigger mode: 0
Integration Time (sec): 4.000000E-1
Scans to average: 1
Nonlinearity correction enabled: false
Boxcar width: 0
Storing dark spectrum: false
XAxis mode: Wavelengths
Number of Pixels in Spectrum: 1024
>>>>>Begin Spectral Data<<<<<
801.071	28055
801.214	27888
801.356	27701
801.499	27713
801.641	27473
801.783	27614
801.926	27755
802.068	27504
802.211	27435
802.353	27511
802.496	27283
802.638	27287
802.78	27272
802.923	27165
803.065	27093
803.208	27150
803.35	27161
803.492	27237
803.635	27256
803.777	27317
803.919	27336
804.061	27667
804.204	27340
804.346	27283
804.488	27203
804.63	27203
804.773	27119
804.915	27108
805.057	27382
805.199	27207
805.341	27351
805.483	27214
805.626	27279
805.768	27348
805.91	27363
806.052	27249
806.194	27268
806.336	27405
806.478	27195
806.62	27256
806.762	27473
806.904	27564
807.046	27747
807.188	27667
807.33	27751
807.472	27819
807.614	27583
807.756	27545
807.898	27606
808.04	27511
808.182	27507
808.324	27485
808.465	27504
808.607	27747
808.749	27800
808.891	27937
809.033	28101
809.174	28051
809.316	27922
809.458	27895
809.6	27846
809.741	28029
809.883	28006
810.025	28063
810.166	28128
810.308	27968
810.45	28128
810.591	27941
810.733	27831
810.875	27842
811.016	27679
811.158	27603
811.299	27785
811.441	27968
811.582	27934
811.724	27713
811.865	27808
812.007	27762
812.148	27846
812.29	27682
812.431	27998
812.573	28090
812.714	28166
812.855	28325
812.997	28314
813.138	28493
813.279	28360
813.421	28325
813.562	28333
813.703	28158
813.845	28040
813.986	27770
814.127	27625
814.268	27519
814.41	27412
814.551	27283
814.692	27408
814.833	27412
814.974	27481
815.115	27462
815.256	27321
815.397	27291
815.539	27104
815.68	27192
815.821	27116
815.962	27287
816.103	27192
816.244	27150
816.385	26906
816.526	26849
816.666	26727
816.807	26659
816.948	26731
817.089	26697
817.23	26568
817.371	26598
817.512	26556
817.653	26503
817.793	26590
817.934	26533
818.075	26579
818.216	26678
818.356	26545
818.497	26522
818.638	26336
818.778	26533
818.919	26313
819.06	26358
819.2	26404
819.341	26511
819.481	26613
819.622	26651
819.762	27005
819.903	26819
820.043	26743
820.184	26686
820.324	26564
820.465	26640
820.605	26598
820.746	26492
820.886	26526
821.026	26648
821.167	26495
821.307	26697
821.447	26606
821.588	26362
821.728	26149
821.868	26336
822.008	25944
822.149	26039
822.289	25993
822.429	25708
822.569	25746
822.709	25658
822.849	25597
822.99	25502
823.13	25476
823.27	25301
823.41	25179
823.55	25099
823.69	25392
823.83	25209
823.97	25289
824.11	25034
824.25	25042
824.389	25038
824.529	25221
824.669	25069
824.809	25217
824.949	25122
825.089	25133
825.228	25194
825.368	25038
825.508	24962
825.648	24863
825.787	24954
825.927	25091
826.067	24825
826.206	24996
826.346	24875
826.485	24962
826.625	24787
826.765	25057
826.904	24928
827.044	24631
827.183	24627
827.323	24566
827.462	24582
827.601	24635
827.741	24536
827.88	24532
828.02	24464
828.159	24665
828.298	24547
828.437	24623
828.577	24380
828.716	24631
828.855	24486
828.994	24319
829.134	24273
829.273	24464
829.412	24338
829.551	24194
829.69	24167
829.829	24171
829.968	24357
830.107	24247
830.246	24304
830.385	24076
830.524	24171
830.663	24148
830.802	23950
830.941	23939
831.08	23828
831.219	24041
831.357	24007
831.496	24034
831.635	23851
831.774	23748
831.913	23752
832.051	23524
832.19	23505
832.329	23649
832.467	23520
832.606	23497
832.744	23444
832.883	23524
833.022	23471
833.16	23520
833.299	23471
833.437	23554
833.576	23482
833.714	23535
833.852	23779
833.991	23604
834.129	23653
834.267	23486
834.406	23539
834.544	23611
834.682	23417
834.821	23497
834.959	23531
835.097	23474
835.235	23649
835.373	23490
835.511	23547
835.65	23315
835.788	23307
835.926	23204
836.064	23197
836.202	23208
836.34	23406
836.478	23486
836.615	23284
836.753	23326
836.891	23467
837.029	23223
837.167	23288
837.305	23246
837.443	23083
837.58	23227
837.718	23239
837.856	23121
837.993	23067
838.131	23033
838.269	23079
838.406	23109
838.544	22957
838.681	22835
838.819	22702
838.956	22584
839.094	22618
839.231	22763
839.369	22820
839.506	22946
839.643	22843
839.781	22603
839.918	22603
840.055	22538
840.193	22596
840.33	22626
840.467	22626
840.604	22493
840.742	22767
840.879	22417
841.016	22557
841.153	22417
841.29	22656
841.427	22500
841.564	22504
841.701	22481
841.838	22413
841.975	22394
842.112	22390
842.249	22268
842.385	22242
842.522	22417
842.659	22287
842.796	22211
842.933	22272
843.069	22169
843.206	22086
843.343	22303
843.479	22223
843.616	22215
843.752	22048
843.889	22162
844.025	22017
844.162	22040
844.298	21983
844.435	22021
844.571	22048
844.708	22086
844.844	22143
844.98	22120
845.117	22128
845.253	22044
845.389	21922
845.525	21892
845.661	21789
845.798	21732
845.934	21755
846.07	21564
846.206	21785
846.342	21869
846.478	21709
846.614	21553
846.75	21382
846.886	21397
847.022	21583
847.158	21595
847.294	21500
847.429	21439
847.565	21496
847.701	21747
847.837	21298
847.972	21214
848.108	21180
848.244	21363
848.379	21077
848.515	21036
848.65	21093
848.786	20979
848.921	21188
849.057	21207
849.192	21127
849.328	21127
849.463	20880
849.598	20975
849.734	20937
849.869	20902
850.004	20937
850.14	20701
850.275	20815
850.41	20697
850.545	20918
850.68	20697
850.815	20739
850.95	20796
851.085	20902
851.22	20853
851.355	20830
851.49	20659
851.625	20746
851.76	20724
851.895	20762
852.03	20598
852.165	20834
852.299	20861
852.434	20788
852.569	20785
852.703	20727
852.838	20845
852.973	20933
853.107	20872
853.242	20731
853.376	20743
853.511	20518
853.645	20632
853.78	20807
853.914	20632
854.048	20514
854.183	20564
854.317	20575
854.451	20807
854.585	20484
854.72	20583
854.854	20667
854.988	20495
855.122	20579
855.256	20366
855.39	20446
855.524	20640
855.658	20670
855.792	20632
855.926	20617
856.06	20648
856.194	20583
856.327	20545
856.461	20530
856.595	20568
856.729	20526
856.862	20632
856.996	20598
857.13	20621
857.263	20758
857.397	20651
857.53	20571
857.664	20705
857.797	20678
857.931	20640
858.064	20590
858.197	20617
858.331	20602
858.464	20457
858.597	20514
858.731	20537
858.864	20522
858.997	20518
859.13	20484
859.263	20556
859.396	20629
859.529	20629
859.662	20480
859.795	20537
859.928	20503
860.061	20689
860.194	20659
860.327	20549
860.46	20495
860.592	20632
860.725	20724
860.858	20590
860.99	20526
861.123	20370
861.256	20514
861.388	20549
861.521	21291
861.653	20461
861.786	20259
861.918	20446
862.05	20533
862.183	20518
862.315	20431
862.447	20526
862.58	20305
862.712	20256
862.844	20324
862.976	20427
863.108	20225
863.24	20796
863.372	20206
863.504	20237
863.636	20183
863.768	20259
863.9	20122
864.032	20103
864.164	20214
864.296	20210
864.428	20396
864.559	20214
864.691	20298
864.823	20271
864.954	20210
865.086	20172
865.217	20142
865.349	20027
865.48	20054
865.612	20084
865.743	20195
865.875	20138
866.006	20035
866.137	20103
866.269	20206
866.4	20031
866.531	20100
866.662	20088
866.793	20016
866.924	20088
867.055	20031
867.186	20172
867.317	20122
867.448	19917
867.579	19982
867.71	20016
867.841	19978
867.972	20005
868.103	20008
868.233	20031
868.364	20050
868.495	20088
868.625	20221
868.756	20339
868.886	20282
869.017	20282
869.147	20351
869.278	20408
869.408	20366
869.539	20305
869.669	20381
869.799	20351
869.929	20370
870.06	20343
870.19	20659
870.32	20564
870.45	20590
870.58	20708
870.71	20804
870.84	20716
870.97	20629
871.1	20640
871.23	20830
871.36	20842
871.489	20758
871.619	20887
871.749	20739
871.879	20902
872.008	20952
872.138	20906
872.267	20902
872.397	20792
872.526	20678
872.656	20708
872.785	20739
872.915	20849
873.044	20758
873.173	20918
873.303	20868
873.432	20948
873.561	21009
873.69	20864
873.819	20811
873.948	21066
874.077	20872
874.206	20887
874.335	20902
874.464	21017
874.593	21207
874.722	21188
874.851	21161
874.979	21207
875.108	21226
875.237	21104
875.365	20998
875.494	21123
875.623	21157
875.751	21066
875.88	21104
876.008	21252
876.136	21344
876.265	21553
876.393	21614
876.521	21641
876.65	21587
876.778	21496
876.906	21477
877.034	21458
877.162	21614
877.29	21351
877.418	21530
877.546	21519
877.674	21435
877.802	21424
877.93	21534
878.058	21583
878.185	21416
878.313	21397
878.441	21443
878.568	21386
878.696	21405
878.824	21530
878.951	21618
879.079	21610
879.206	21762
879.333	21610
879.461	21469
879.588	21511
879.715	21622
879.842	21736
879.97	21557
880.097	21310
880.224	21317
880.351	21275
880.478	21340
880.605	21252
880.732	21359
880.859	21481
880.986	21195
881.112	21351
881.239	21161
881.366	21146
881.493	21009
881.619	20986
881.746	20937
881.872	20921
881.999	20921
882.125	20769
882.252	20895
882.378	20902
882.505	20956
882.631	20925
882.757	20727
882.883	20697
883.01	20708
883.136	20644
883.262	20556
883.388	20465
883.514	20667
883.64	20632
883.766	20583
883.892	20408
884.018	20393
884.143	20575
884.269	20621
884.395	20377
884.52	20191
884.646	20278
884.772	20187
884.897	20210
885.023	20408
885.148	20275
885.274	20393
885.399	20347
885.524	20183
885.65	20309
885.775	20202
885.9	20313
886.025	20362
886.15	20419
886.275	20199
886.4	20218
886.525	20225
886.65	20161
886.775	20134
886.9	20362
887.025	20480
887.149	20282
887.274	20065
887.399	20134
887.523	19967
887.648	20050
887.773	20001
887.897	20077
888.021	20039
888.146	20054
888.27	20142
888.395	20172
888.519	20031
888.643	20046
888.767	20107
888.891	19921
889.015	19868
889.139	20001
889.263	19742
889.387	19951
889.511	20153
889.635	19955
889.759	19700
889.883	19788
890.006	19833
890.13	19925
890.254	19772
890.377	19811
890.501	19639
890.624	19563
890.748	19597
890.871	19590
890.995	19434
891.118	19415
891.241	19434
891.364	19464
891.488	19559
891.611	19369
891.734	19381
891.857	19411
891.98	19480
892.103	19529
892.226	19506
892.349	19346
892.471	19217
892.594	19301
892.717	19365
892.839	19350
892.962	19350
893.085	19373
893.207	19369
893.33	19194
893.452	19263
893.575	19358
893.697	19441
893.819	19449
893.941	19525
894.064	19464
894.186	19324
894.308	19244
894.43	19468
894.552	19392
894.674	19537
894.796	19251
894.918	19324
895.04	19354
895.161	19381
895.283	19434
895.405	19179
895.526	19362
895.648	19335
895.769	19396
895.891	19476
896.012	19502
896.134	19403
896.255	19358
896.376	19244
896.498	19422
896.619	19457
896.74	19415
896.861	19392
896.982	19769
897.103	19860
897.224	19689
897.345	19578
897.466	19499
897.587	19556
897.708	19864
897.828	19704
897.949	19510
898.07	19499
898.19	19620
898.311	19715
898.431	19529
898.552	19571
898.672	19620
898.792	19605
898.913	19533
899.033	19514
899.153	19377
899.273	19297
899.393	19384
899.513	19365
899.633	19297
899.753	19327
899.873	19301
899.993	19358
900.113	19304
900.232	19449
900.352	19217
900.472	19114
900.591	19080
900.711	19141
900.83	19034
900.95	19324
901.069	19206
901.189	18947
901.308	18779
901.427	18696
901.546	18779
901.665	18681
901.784	18696
901.904	18616
902.023	18608
902.141	18232
902.26	18216
902.379	18346
902.498	18327
902.617	18190
902.735	18235
902.854	18125
902.973	18068
903.091	17870
903.21	17901
903.328	17878
903.446	17748
903.565	17703
903.683	17847
903.801	17570
903.919	17665
904.038	17619
904.156	17554
904.274	17558
904.392	17478
904.51	17497
904.627	17425
904.745	17535
904.863	17512
904.981	17296
905.098	17098
905.216	17113
905.334	17006
905.451	17200
905.569	17178
905.686	17155
905.803	16980
905.921	16938
906.038	17098
906.155	16987
906.272	16820
906.389	16858
906.506	16763
906.623	16656
906.74	16641
906.857	16474
906.974	16637
907.091	16748
907.208	16744
907.324	16717
907.441	16615
907.557	16409
907.674	16459
907.79	16329
907.907	16333
908.023	16325
908.139	16424
908.256	16299
908.372	16287
908.488	16249
908.604	16093
908.72	16093
908.836	16017
908.952	16021
909.068	16082
909.184	16181
909.3	15979
909.415	16071
909.531	16025
909.647	15915
909.762	15751
909.878	15755
909.993	15903
910.108	15755
910.224	15755
910.339	15732
910.454	15709
910.57	15606
910.685	15523
910.8	15743
910.915	15717
911.03	15504
911.145	15405
911.259	15336
911.374	15412
911.489	15329
911.604	15237
911.718	15043
911.833	15157
911.947	15043
912.062	14986
912.176	15062
912.291	15123
912.405	15157
912.519	15287
912.633	15378
912.748	15154
912.862	15119
912.976	15024
913.09	14746
913.204	14857
913.318	14990
913.431	15001
913.545	15112
913.659	15020
913.772	14811
913.886	14876
914	14716
914.113	14811
914.226	14971
914.34	14830
914.453	14765
914.566	14853
914.68	14701
914.793	14648
914.906	14473
915.019	14301
915.132	14324
915.245	14400
915.358	14450
915.47	14362
915.583	14446
915.696	14366
915.809	14579
915.921	14651
916.034	14362
916.146	14256
916.259	14290
916.371	14427
916.483	14309
916.595	14237
916.708	14301
916.82	14176
916.932	14275
917.044	14244
917.156	14107
917.268	14069
917.38	14046
917.491	14065
917.603	14084
917.715	14138
917.826	14145
917.938	14008
918.049	13947
918.161	14043
918.272	14103
918.384	14115
918.495	14016
918.606	13841
918.717	13833
918.828	13830
918.939	13913
919.05	13772
919.161	13769
919.272	13609
919.383	13597
919.494	13868
919.604	13986
919.715	13700
919.826	13685
919.936	13780
920.047	13833
920.157	13772
920.267	14046
920.378	13890
920.488	13750
920.598	13940
920.708	14123
920.818	13967
920.928	14005
921.038	14206
921.148	14088
921.258	13727
921.368	13693
921.477	13628
921.587	13597
921.697	13441
921.806	13567
921.916	13346
922.025	13335
922.134	13225
922.244	13168
922.353	13247
922.462	13084
922.571	13012
922.68	12928
922.789	12795
922.898	12810
923.007	12760
923.116	12920
923.224	12707
923.333	12787
923.442	12707
923.55	12738
923.659	12623
923.767	12787
923.876	12601
923.984	12662
924.092	12612
924.201	12616
924.309	12589
924.417	12589
924.525	12563
924.633	12532
924.741	13255
924.849	12353
924.956	12426
925.064	12426
925.172	12175
925.279	12201
925.387	12327
925.494	12319
925.602	12372
925.709	12330
925.816	12205
925.924	12258
926.031	12357
926.138	12304
926.245	12243
926.352	12140
926.459	12235
926.566	12273
926.673	12110
926.779	12079
926.886	12015
926.993	11992
927.099	11874
927.206	11828
927.312	11878
927.419	11771
927.525	11878
927.631	11863
927.737	11745
927.843	11748
927.95	11642
928.056	11661
928.162	11657
928.267	11775
928.373	12334
928.479	11866
928.585	11627
928.69	11676
928.796	11722
928.901	11604
929.007	11463
929.112	11623
929.218	11528
929.323	11433
929.428	11459
929.533	11630
929.638	11376
929.743	11444
929.848	11398
929.953	11341
930.058	11299
930.163	11181
930.267	11151
930.372	11296
930.477	11094
930.581	11410
930.685	11239
930.79	11041
930.894	11067
930.998	10976
931.103	11102
931.207	10828
931.311	10786
931.415	10634
931.519	10436
931.623	10398
