Data from test_V78500241_3501.txt Node
Date: Fri Mar 25 15:34:14 CST 2022
User: usil
Spectrometer: V785-0024
Trigger mode: 0
Integration Time (sec): 4.000000E-1
Scans to average: 1
Nonlinearity correction enabled: false
Boxcar width: 0
Storing dark spectrum: false
XAxis mode: Wavelengths
Number of Pixels in Spectrum: 1024
>>>>>Begin Spectral Data<<<<<
801.071	27363
801.214	27287
801.356	26975
801.499	26918
801.641	26758
801.783	26963
801.926	26781
802.068	26849
802.211	26708
802.353	26686
802.496	26625
802.638	26476
802.78	26495
802.923	26457
803.065	26408
803.208	26191
803.35	26461
803.492	26655
803.635	26682
803.777	26579
803.919	26720
804.061	26967
804.204	26693
804.346	26617
804.488	26587
804.63	26693
804.773	26480
804.915	26465
805.057	26640
805.199	26708
805.341	26830
805.483	26834
805.626	26724
805.768	26819
805.91	26727
806.052	26853
806.194	26602
806.336	26960
806.478	26640
806.62	26670
806.762	26857
806.904	27009
807.046	27203
807.188	26986
807.33	27096
807.472	27298
807.614	27173
807.756	27051
807.898	26967
808.04	26811
808.182	26986
808.324	27051
808.465	27142
808.607	27256
808.749	27389
808.891	27534
809.033	27561
809.174	27374
809.316	27302
809.458	27382
809.6	27260
809.741	27298
809.883	27427
810.025	27587
810.166	27606
810.308	27660
810.45	27629
810.591	27595
810.733	27332
810.875	27237
811.016	27355
811.158	27325
811.299	27370
811.441	27519
811.582	27424
811.724	27359
811.865	27466
812.007	27340
812.148	27298
812.29	27427
812.431	27587
812.573	27603
812.714	27743
812.855	27774
812.997	27956
813.138	28063
813.279	28105
813.421	27736
813.562	27766
813.703	27751
813.845	27545
813.986	27241
814.127	27119
814.268	27066
814.41	27013
814.551	27070
814.692	26982
814.833	27058
814.974	26982
815.115	26963
815.256	26891
815.397	26849
815.539	26864
815.68	26716
815.821	26762
815.962	26804
816.103	26731
816.244	26705
816.385	26560
816.526	26374
816.666	26309
816.807	26221
816.948	26400
817.089	26404
817.23	26221
817.371	26286
817.512	26267
817.653	26092
817.793	26210
817.934	26244
818.075	26347
818.216	26400
818.356	26210
818.497	26001
818.638	25864
818.778	26081
818.919	25963
819.06	26088
819.2	26229
819.341	26221
819.481	26305
819.622	26358
819.762	26552
819.903	26511
820.043	26488
820.184	26309
820.324	26415
820.465	26404
820.605	26423
820.746	26305
820.886	26256
821.026	26290
821.167	26328
821.307	26400
821.447	26385
821.588	26119
821.728	26043
821.868	25917
822.008	25833
822.149	25719
822.289	25643
822.429	25487
822.569	25331
822.709	25464
822.849	25263
822.99	25179
823.13	25282
823.27	25126
823.41	25148
823.55	24886
823.69	25046
823.83	25099
823.97	24996
824.11	24829
824.25	24753
824.389	24947
824.529	24920
824.669	24901
824.809	24970
824.949	24875
825.089	24935
825.228	24954
825.368	24757
825.508	24684
825.648	24814
825.787	24673
825.927	24916
826.067	24654
826.206	24654
826.346	24722
826.485	24920
826.625	24757
826.765	24913
826.904	24798
827.044	24551
827.183	24521
827.323	24540
827.462	24570
827.601	24429
827.741	24311
827.88	24521
828.02	24369
828.159	24289
828.298	24582
828.437	24589
828.577	24372
828.716	24509
828.855	24270
828.994	24121
829.134	24186
829.273	24361
829.412	24209
829.551	24201
829.69	24194
829.829	24220
829.968	24266
830.107	24251
830.246	24022
830.385	24117
830.524	24045
830.663	23912
830.802	23980
830.941	23794
831.08	23790
831.219	23805
831.357	23923
831.496	23965
831.635	23737
831.774	23703
831.913	23756
832.051	23547
832.19	23516
832.329	23596
832.467	23490
832.606	23398
832.744	23482
832.883	23379
833.022	23406
833.16	23402
833.299	23452
833.437	23395
833.576	23630
833.714	23589
833.852	23551
833.991	23627
834.129	23672
834.267	23539
834.406	23581
834.544	23665
834.682	23551
834.821	23520
834.959	23623
835.097	23566
835.235	23573
835.373	23634
835.511	23391
835.65	23398
835.788	23330
835.926	23254
836.064	23212
836.202	23162
836.34	23433
836.478	23509
836.615	23299
836.753	23334
836.891	23482
837.029	23349
837.167	23410
837.305	23231
837.443	23417
837.58	23288
837.718	23280
837.856	23296
837.993	23223
838.131	23166
838.269	23124
838.406	23155
838.544	23079
838.681	22858
838.819	22831
838.956	22729
839.094	22679
839.231	22862
839.369	22930
839.506	23128
839.643	22957
839.781	22790
839.918	22679
840.055	22801
840.193	22694
840.33	22694
840.467	22679
840.604	22702
840.742	22828
840.879	22580
841.016	22577
841.153	22531
841.29	22805
841.427	22618
841.564	22786
841.701	22592
841.838	22569
841.975	22565
842.112	22470
842.249	22478
842.385	22379
842.522	22649
842.659	22531
842.796	22470
842.933	22443
843.069	22405
843.206	22325
843.343	22443
843.479	22375
843.616	22481
843.752	22147
843.889	22318
844.025	22402
844.162	22158
844.298	22306
844.435	22059
844.571	22147
844.708	22131
844.844	22333
844.98	22318
845.117	22348
845.253	22109
845.389	22002
845.525	22090
845.661	22055
845.798	21968
845.934	21975
846.07	21876
846.206	21888
846.342	22025
846.478	21907
846.614	21819
846.75	21622
846.886	21690
847.022	21762
847.158	21755
847.294	21698
847.429	21675
847.565	21637
847.701	21838
847.837	21382
847.972	21344
848.108	21504
848.244	21488
848.379	21367
848.515	21184
848.65	21249
848.786	21317
848.921	21351
849.057	21393
849.192	21268
849.328	21332
849.463	21275
849.598	21233
849.734	21176
849.869	21070
850.004	20979
850.14	21081
850.275	21032
850.41	21055
850.545	21077
850.68	20971
850.815	20998
850.95	21017
851.085	21180
851.22	21131
851.355	21089
851.49	20937
851.625	21028
851.76	20883
851.895	20864
852.03	20967
852.165	21062
852.299	21058
852.434	21142
852.569	21074
852.703	20982
852.838	21093
852.973	21188
853.107	21127
853.242	21009
853.376	20857
853.511	20670
853.645	20834
853.78	20986
853.914	20921
854.048	20792
854.183	20880
854.317	20921
854.451	21081
854.585	20838
854.72	20830
854.854	20937
854.988	20769
855.122	20887
855.256	20807
855.39	20663
855.524	20796
855.658	21032
855.792	20853
855.926	20883
856.06	20914
856.194	21070
856.327	20838
856.461	20845
856.595	20830
856.729	20819
856.862	20868
856.996	20845
857.13	20971
857.263	20910
857.397	20872
857.53	20735
857.664	20815
857.797	20929
857.931	20853
858.064	20857
858.197	20944
858.331	20910
858.464	20895
858.597	20792
858.731	20921
858.864	20796
858.997	20845
859.13	20872
859.263	20857
859.396	21020
859.529	20876
859.662	20834
859.795	20804
859.928	20861
860.061	20990
860.194	20986
860.327	20921
860.46	20765
860.592	20986
860.725	20948
860.858	20883
860.99	20861
861.123	20777
861.256	20739
861.388	20887
861.521	21572
861.653	20663
861.786	20636
861.918	20636
862.05	20716
862.183	20834
862.315	20746
862.447	20823
862.58	20796
862.712	20617
862.844	20412
862.976	20537
863.108	20651
863.24	21127
863.372	20454
863.504	20708
863.636	20511
863.768	20625
863.9	20583
864.032	20514
864.164	20514
864.296	20693
864.428	20583
864.559	20663
864.691	20613
864.823	20545
864.954	20568
865.086	20484
865.217	20438
865.349	20419
865.48	20514
865.612	20556
865.743	20590
865.875	20465
866.006	20427
866.137	20400
866.269	20495
866.4	20412
866.531	20400
866.662	20393
866.793	20320
866.924	20415
867.055	20442
867.186	20434
867.317	20434
867.448	20366
867.579	20400
867.71	20332
867.841	20336
867.972	20400
868.103	20400
868.233	20457
868.364	20564
868.495	20469
868.625	20640
868.756	20739
868.886	20560
869.017	20632
869.147	20746
869.278	20849
869.408	20716
869.539	20488
869.669	20838
869.799	20720
869.929	20777
870.06	20743
870.19	20921
870.32	20880
870.45	20910
870.58	21085
870.71	21096
870.84	21089
870.97	21260
871.1	21055
871.23	21287
871.36	21306
871.489	21062
871.619	21135
871.749	21298
871.879	21230
872.008	21397
872.138	21230
872.267	21245
872.397	21138
872.526	21085
872.656	21165
872.785	21070
872.915	21226
873.044	21329
873.173	21336
873.303	21431
873.432	21241
873.561	21367
873.69	21317
873.819	21211
873.948	21336
874.077	21199
874.206	21241
874.335	21329
874.464	21367
874.593	21420
874.722	21340
874.851	21583
874.979	21466
875.108	21553
875.237	21466
875.365	21439
875.494	21553
875.623	21553
875.751	21454
875.88	21606
876.008	21644
876.136	21728
876.265	21842
876.393	22074
876.521	21991
876.65	22059
876.778	21846
876.906	21759
877.034	21865
877.162	21876
877.29	21831
877.418	21850
877.546	21876
877.674	21869
877.802	21869
877.93	21789
878.058	21846
878.185	21720
878.313	21915
878.441	21873
878.568	21618
878.696	21766
878.824	21808
878.951	21979
879.079	21983
879.206	22120
879.333	22086
879.461	21781
879.588	22013
879.715	22124
879.842	22150
879.97	21903
880.097	21762
880.224	21633
880.351	21717
880.478	21766
880.605	21660
880.732	21698
880.859	21918
880.986	21682
881.112	21690
881.239	21576
881.366	21492
881.493	21291
881.619	21237
881.746	21351
881.872	21287
881.999	21256
882.125	21226
882.252	21329
882.378	21214
882.505	21367
882.631	21112
882.757	20914
882.883	20998
883.01	21005
883.136	20971
883.262	20891
883.388	20811
883.514	20952
883.64	20895
883.766	20872
883.892	20651
884.018	20838
884.143	21070
884.269	21024
884.395	20640
884.52	20602
884.646	20697
884.772	20571
884.897	20655
885.023	20743
885.148	20727
885.274	20826
885.399	20807
885.524	20632
885.65	20530
885.775	20663
885.9	20556
886.025	20689
886.15	20575
886.275	20594
886.4	20530
886.525	20560
886.65	20533
886.775	20560
886.9	20815
887.025	20838
887.149	20571
887.274	20549
887.399	20408
887.523	20370
887.648	20336
887.773	20271
887.897	20457
888.021	20408
888.146	20358
888.27	20484
888.395	20495
888.519	20507
888.643	20427
888.767	20492
888.891	20305
889.015	20195
889.139	20259
889.263	20210
889.387	20332
889.511	20465
889.635	20290
889.759	20172
889.883	20172
890.006	20145
890.13	20343
890.254	20115
890.377	20122
890.501	19993
890.624	19963
890.748	19951
890.871	19814
890.995	19799
891.118	19738
891.241	19852
891.364	19757
891.488	20001
891.611	19818
891.734	19860
891.857	19913
891.98	19795
892.103	19807
892.226	19769
892.349	19719
892.471	19696
892.594	19750
892.717	19761
892.839	19609
892.962	19647
893.085	19734
893.207	19681
893.33	19518
893.452	19578
893.575	19772
893.697	19734
893.819	19890
893.941	19909
894.064	19845
894.186	19609
894.308	19594
894.43	19685
894.552	19864
894.674	19780
894.796	19533
894.918	19605
895.04	19670
895.161	19868
895.283	19685
895.405	19708
895.526	19632
895.648	19723
895.769	19700
895.891	19719
896.012	19727
896.134	19719
896.255	19784
896.376	19715
896.498	19780
896.619	19696
896.74	19632
896.861	19788
896.982	20103
897.103	20157
897.224	19947
897.345	19830
897.466	19845
897.587	20069
897.708	20103
897.828	19898
897.949	19936
898.07	19700
898.19	19849
898.311	19932
898.431	19894
898.552	19986
898.672	19951
898.792	20020
898.913	19928
899.033	19864
899.153	19742
899.273	19685
899.393	19731
899.513	19681
899.633	19677
899.753	19651
899.873	19647
899.993	19658
900.113	19586
900.232	19715
900.352	19609
900.472	19502
900.591	19434
900.711	19514
900.83	19377
900.95	19529
901.069	19434
901.189	19434
901.308	19095
901.427	19122
901.546	19213
901.665	19061
901.784	19057
901.904	18932
902.023	18977
902.141	18635
902.26	18544
902.379	18601
902.498	18506
902.617	18631
902.735	18566
902.854	18574
902.973	18441
903.091	18308
903.21	18159
903.328	18182
903.446	18125
903.565	18076
903.683	18034
903.801	17965
903.919	18053
904.038	18011
904.156	17737
904.274	17901
904.392	17817
904.51	17809
904.627	17775
904.745	17836
904.863	17817
904.981	17615
905.098	17524
905.216	17532
905.334	17577
905.451	17444
905.569	17417
905.686	17433
905.803	17520
905.921	17250
906.038	17493
906.155	17284
906.272	17239
906.389	17250
906.506	17052
906.623	17086
906.74	16995
906.857	16984
906.974	16885
907.091	17105
907.208	17155
907.324	17064
907.441	16919
907.557	16683
907.674	16691
907.79	16694
907.907	16675
908.023	16805
908.139	16744
908.256	16725
908.372	16649
908.488	16675
908.604	16569
908.72	16421
908.836	16504
908.952	16497
909.068	16402
909.184	16485
909.3	16519
909.415	16561
909.531	16447
909.647	16272
909.762	16188
909.878	16139
909.993	16265
910.108	16154
910.224	16074
910.339	16124
910.454	15956
910.57	15911
910.685	15941
910.8	16238
910.915	16097
911.03	16010
911.145	15842
911.259	15793
911.374	15819
911.489	15743
911.604	15701
911.718	15511
911.833	15603
911.947	15439
912.062	15412
912.176	15542
912.291	15591
912.405	15511
912.519	15728
912.633	15759
912.748	15576
912.862	15481
912.976	15462
913.09	15264
913.204	15279
913.318	15359
913.431	15469
913.545	15458
913.659	15485
913.772	15367
913.886	15203
914	15077
914.113	15287
914.226	15252
914.34	15062
914.453	15036
914.566	15207
914.68	15062
914.793	15036
914.906	14750
915.019	14826
915.132	14750
915.245	14750
915.358	14880
915.47	14762
915.583	14815
915.696	14876
915.809	14838
915.921	14971
916.034	14796
916.146	14678
916.259	14765
916.371	14686
916.483	14788
916.595	14526
916.708	14625
916.82	14632
916.932	14571
917.044	14575
917.156	14541
917.268	14457
917.38	14503
917.491	14442
917.603	14492
917.715	14514
917.826	14461
917.938	14366
918.049	14275
918.161	14408
918.272	14537
918.384	14556
918.495	14313
918.606	14199
918.717	14168
918.828	14305
918.939	14248
919.05	14195
919.161	14130
919.272	13997
919.383	14062
919.494	14244
919.604	14343
919.715	14263
919.826	14115
919.936	14126
920.047	14263
920.157	14149
920.267	14385
920.378	14142
920.488	14111
920.598	14278
920.708	14571
920.818	14305
920.928	14389
921.038	14484
921.148	14465
921.258	14134
921.368	14008
921.477	13833
921.587	13940
921.697	13780
921.806	13909
921.916	13677
922.025	13670
922.134	13556
922.244	13601
922.353	13499
922.462	13540
922.571	13350
922.68	13244
922.789	13103
922.898	13274
923.007	13190
923.116	13289
923.224	13217
923.333	13263
923.442	13137
923.55	12966
923.659	13122
923.767	13126
923.876	13053
923.984	13107
924.092	12935
924.201	12996
924.309	12962
924.417	12977
924.525	12928
924.633	12935
924.741	13715
924.849	12711
924.956	12734
925.064	12696
925.172	12601
925.279	12593
925.387	12696
925.494	12582
925.602	12688
925.709	12665
925.816	12475
925.924	12506
926.031	12597
926.138	12642
926.245	12612
926.352	12570
926.459	12608
926.566	12639
926.673	12513
926.779	12407
926.886	12418
926.993	12243
927.099	12266
927.206	12205
927.312	12205
927.419	12258
927.525	12258
927.631	12224
927.737	12121
927.843	12057
927.95	11897
928.056	12106
928.162	12129
928.267	12049
928.373	12540
928.479	12167
928.585	11916
928.69	12030
928.796	12095
928.901	11863
929.007	11843
929.112	11885
929.218	11878
929.323	11729
929.428	11745
929.533	11908
929.638	11707
929.743	11672
929.848	11741
929.953	11752
930.058	11520
930.163	11493
930.267	11410
930.372	11566
930.477	11459
930.581	11707
930.685	11566
930.79	11376
930.894	11356
930.998	11334
931.103	11463
931.207	11067
931.311	11056
931.415	10995
931.519	10717
931.623	10736
