Data from test_V78500241_2353.txt Node
Date: Fri Mar 25 15:26:14 CST 2022
User: usil
Spectrometer: V785-0024
Trigger mode: 0
Integration Time (sec): 4.000000E-1
Scans to average: 1
Nonlinearity correction enabled: false
Boxcar width: 0
Storing dark spectrum: false
XAxis mode: Wavelengths
Number of Pixels in Spectrum: 1024
>>>>>Begin Spectral Data<<<<<
801.071	27401
801.214	27427
801.356	27237
801.499	27062
801.641	26998
801.783	26921
801.926	26929
802.068	27085
802.211	26880
802.353	26800
802.496	26667
802.638	26590
802.78	26541
802.923	26625
803.065	26431
803.208	26648
803.35	26560
803.492	26590
803.635	26876
803.777	26739
803.919	26845
804.061	27127
804.204	26895
804.346	26769
804.488	26746
804.63	26727
804.773	26606
804.915	26811
805.057	26857
805.199	26731
805.341	26933
805.483	27169
805.626	26880
805.768	26777
805.91	26864
806.052	26887
806.194	26940
806.336	27176
806.478	27028
806.62	27001
806.762	26975
806.904	27169
807.046	27397
807.188	27431
807.33	27344
807.472	27443
807.614	27211
807.756	27408
807.898	27298
808.04	27024
808.182	27096
808.324	27146
808.465	27150
808.607	27420
808.749	27450
808.891	27530
809.033	27587
809.174	27492
809.316	27523
809.458	27492
809.6	27481
809.741	27660
809.883	27660
810.025	27641
810.166	27736
810.308	27755
810.45	27610
810.591	27663
810.733	27515
810.875	27466
811.016	27408
811.158	27294
811.299	27641
811.441	27549
811.582	27583
811.724	27378
811.865	27424
812.007	27443
812.148	27386
812.29	27401
812.431	27606
812.573	27831
812.714	27800
812.855	28021
812.997	28135
813.138	28192
813.279	28048
813.421	28051
813.562	27979
813.703	27819
813.845	27648
813.986	27447
814.127	27447
814.268	27173
814.41	27062
814.551	27051
814.692	27222
814.833	27009
814.974	27093
815.115	27287
815.256	27135
815.397	27184
815.539	27195
815.68	26998
815.821	26967
815.962	26815
816.103	26788
816.244	26876
816.385	26731
816.526	26735
816.666	26560
816.807	26579
816.948	26541
817.089	26514
817.23	26503
817.371	26492
817.512	26415
817.653	26324
817.793	26298
817.934	26286
818.075	26419
818.216	26324
818.356	26320
818.497	26423
818.638	26081
818.778	26248
818.919	26096
819.06	26134
819.2	26248
819.341	26404
819.481	26415
819.622	26526
819.762	26785
819.903	26720
820.043	26587
820.184	26556
820.324	26488
820.465	26488
820.605	26556
820.746	26450
820.886	26362
821.026	26522
821.167	26518
821.307	26686
821.447	26434
821.588	26366
821.728	26221
821.868	26016
822.008	25917
822.149	25963
822.289	25738
822.429	25559
822.569	25628
822.709	25700
822.849	25396
822.99	25514
823.13	25278
823.27	25343
823.41	25285
823.55	25206
823.69	25198
823.83	25263
823.97	25198
824.11	25004
824.25	24897
824.389	24996
824.529	25069
824.669	25076
824.809	25221
824.949	25095
825.089	25137
825.228	25141
825.368	24928
825.508	24966
825.648	24951
825.787	24844
825.927	24913
826.067	24920
826.206	24783
826.346	24886
826.485	24859
826.625	24878
826.765	24867
826.904	24905
827.044	24677
827.183	24593
827.323	24544
827.462	24688
827.601	24604
827.741	24582
827.88	24639
828.02	24505
828.159	24700
828.298	24703
828.437	24798
828.577	24452
828.716	24608
828.855	24540
828.994	24277
829.134	24251
829.273	24380
829.412	24334
829.551	24273
829.69	24289
829.829	24426
829.968	24460
830.107	24391
830.246	24369
830.385	24197
830.524	24148
830.663	24091
830.802	23996
830.941	23969
831.08	23927
831.219	24091
831.357	23992
831.496	24201
831.635	23942
831.774	23836
831.913	23859
832.051	23699
832.19	23665
832.329	23790
832.467	23573
832.606	23524
832.744	23562
832.883	23551
833.022	23551
833.16	23604
833.299	23684
833.437	23653
833.576	23585
833.714	23573
833.852	23783
833.991	23745
834.129	23672
834.267	23691
834.406	23600
834.544	23764
834.682	23665
834.821	23661
834.959	23802
835.097	23680
835.235	23490
835.373	23554
835.511	23611
835.65	23486
835.788	23695
835.926	23376
836.064	23315
836.202	23280
836.34	23455
836.478	23490
836.615	23387
836.753	23417
836.891	23520
837.029	23566
837.167	23414
837.305	23558
837.443	23398
837.58	23303
837.718	23360
837.856	23337
837.993	23318
838.131	23299
838.269	23079
838.406	23208
838.544	23132
838.681	23037
838.819	22862
838.956	22816
839.094	22767
839.231	22919
839.369	22942
839.506	23197
839.643	23052
839.781	22763
839.918	22824
840.055	22748
840.193	22763
840.33	22820
840.467	22641
840.604	22740
840.742	23025
840.879	22516
841.016	22622
841.153	22565
841.29	22816
841.427	22683
841.564	22721
841.701	22778
841.838	22626
841.975	22637
842.112	22771
842.249	22546
842.385	22519
842.522	22630
842.659	22481
842.796	22508
842.933	22557
843.069	22417
843.206	22523
843.343	22557
843.479	22577
843.616	22478
843.752	22173
843.889	22371
844.025	22333
844.162	22303
844.298	22344
844.435	22238
844.571	22272
844.708	22303
844.844	22344
844.98	22466
845.117	22337
845.253	22253
845.389	22219
845.525	22188
845.661	22105
845.798	21953
845.934	22059
846.07	22021
846.206	21926
846.342	22192
846.478	21930
846.614	21854
846.75	21682
846.886	21751
847.022	21717
847.158	21583
847.294	21709
847.429	21812
847.565	21701
847.701	21876
847.837	21504
847.972	21329
848.108	21500
848.244	21496
848.379	21363
848.515	21203
848.65	21336
848.786	21256
848.921	21302
849.057	21450
849.192	21405
849.328	21355
849.463	21359
849.598	21272
849.734	21169
849.869	21119
850.004	21005
850.14	21070
850.275	21169
850.41	21077
850.545	21154
850.68	21062
850.815	21085
850.95	21013
851.085	21260
851.22	21241
851.355	21112
851.49	21039
851.625	20986
851.76	21077
851.895	20918
852.03	20986
852.165	21036
852.299	21013
852.434	21226
852.569	20971
852.703	21039
852.838	21127
852.973	21165
853.107	21249
853.242	21009
853.376	20929
853.511	20796
853.645	20842
853.78	21081
853.914	20876
854.048	20914
854.183	20811
854.317	21043
854.451	21013
854.585	20925
854.72	20883
854.854	21009
854.988	20906
855.122	20982
855.256	20804
855.39	20876
855.524	20883
855.658	20906
855.792	20864
855.926	20990
856.06	21009
856.194	20975
856.327	20963
856.461	20902
856.595	20887
856.729	20891
856.862	21020
856.996	20982
857.13	21024
857.263	20941
857.397	21051
857.53	20754
857.664	20979
857.797	20941
857.931	21005
858.064	20910
858.197	20952
858.331	20918
858.464	20811
858.597	20800
858.731	20845
858.864	20906
858.997	20826
859.13	20948
859.263	20925
859.396	20956
859.529	20693
859.662	20804
859.795	20796
859.928	20982
860.061	21108
860.194	21226
860.327	20960
860.46	20857
860.592	21017
860.725	21058
860.858	21013
860.99	20891
861.123	20838
861.256	20853
861.388	21024
861.521	21458
861.653	20792
861.786	20670
861.918	20712
862.05	20868
862.183	20845
862.315	20804
862.447	20872
862.58	20941
862.712	20526
862.844	20651
862.976	20667
863.108	20746
863.24	21108
863.372	20613
863.504	20560
863.636	20621
863.768	20568
863.9	20526
864.032	20568
864.164	20492
864.296	20640
864.428	20701
864.559	20602
864.691	20686
864.823	20613
864.954	20712
865.086	20606
865.217	20571
865.349	20434
865.48	20651
865.612	20473
865.743	20667
865.875	20526
866.006	20454
866.137	20541
866.269	20568
866.4	20499
866.531	20431
866.662	20495
866.793	20492
866.924	20400
867.055	20484
867.186	20530
867.317	20419
867.448	20301
867.579	20355
867.71	20347
867.841	20511
867.972	20465
868.103	20400
868.233	20465
868.364	20503
868.495	20492
868.625	20746
868.756	20762
868.886	20716
869.017	20697
869.147	20773
869.278	20853
869.408	20663
869.539	20686
869.669	20819
869.799	20579
869.929	20731
870.06	20872
870.19	21119
870.32	21036
870.45	21013
870.58	21085
870.71	21062
870.84	21237
870.97	21138
871.1	20986
871.23	21355
871.36	21298
871.489	21203
871.619	21313
871.749	21291
871.879	21397
872.008	21325
872.138	21355
872.267	21272
872.397	21154
872.526	21047
872.656	21131
872.785	21173
872.915	21317
873.044	21462
873.173	21298
873.303	21363
873.432	21351
873.561	21511
873.69	21348
873.819	21348
873.948	21370
874.077	21249
874.206	21268
874.335	21245
874.464	21504
874.593	21580
874.722	21526
874.851	21553
874.979	21534
875.108	21644
875.237	21572
875.365	21389
875.494	21500
875.623	21606
875.751	21564
875.88	21466
876.008	21743
876.136	21808
876.265	22040
876.393	22040
876.521	21991
876.65	22051
876.778	21892
876.906	21892
877.034	21823
877.162	21998
877.29	21800
877.418	21941
877.546	21903
877.674	21884
877.802	21800
877.93	21956
878.058	21819
878.185	21793
878.313	21717
878.441	21842
878.568	21660
878.696	21656
878.824	21884
878.951	21998
879.079	22135
879.206	22158
879.333	22128
879.461	21838
879.588	22200
879.715	22055
879.842	22055
879.97	21895
880.097	21682
880.224	21656
880.351	21762
880.478	21675
880.605	21793
880.732	21751
880.859	22048
880.986	21709
881.112	21724
881.239	21629
881.366	21530
881.493	21294
881.619	21405
881.746	21332
881.872	21245
881.999	21340
882.125	21268
882.252	21348
882.378	21332
882.505	21412
882.631	21146
882.757	21013
882.883	21104
883.01	21119
883.136	20895
883.262	20918
883.388	20910
883.514	21058
883.64	21058
883.766	20956
883.892	20724
884.018	20826
884.143	20937
884.269	20998
884.395	20743
884.52	20663
884.646	20533
884.772	20632
884.897	20514
885.023	20670
885.148	20819
885.274	20754
885.399	20712
885.524	20663
885.65	20613
885.775	20613
885.9	20549
886.025	20750
886.15	20708
886.275	20689
886.4	20541
886.525	20731
886.65	20533
886.775	20457
886.9	20758
887.025	20762
887.149	20552
887.274	20457
887.399	20351
887.523	20465
887.648	20370
887.773	20313
887.897	20442
888.021	20476
888.146	20328
888.27	20560
888.395	20514
888.519	20415
888.643	20492
888.767	20419
888.891	20221
889.015	20191
889.139	20172
889.263	20214
889.387	20290
889.511	20355
889.635	20358
889.759	20142
889.883	20237
890.006	20275
890.13	20339
890.254	20149
890.377	20126
890.501	20005
890.624	20031
890.748	20005
890.871	19856
890.995	19696
891.118	19750
891.241	19723
891.364	19875
891.488	19951
891.611	19769
891.734	19776
891.857	19830
891.98	19693
892.103	19803
892.226	19712
892.349	19674
892.471	19616
892.594	19727
892.717	19727
892.839	19632
892.962	19590
893.085	19757
893.207	19719
893.33	19624
893.452	19712
893.575	19750
893.697	19662
893.819	19871
893.941	19932
894.064	19868
894.186	19613
894.308	19563
894.43	19772
894.552	19788
894.674	19704
894.796	19639
894.918	19719
895.04	19594
895.161	19776
895.283	19769
895.405	19578
895.526	19731
895.648	19674
895.769	19818
895.891	19742
896.012	19837
896.134	19811
896.255	19731
896.376	19712
896.498	19780
896.619	19849
896.74	19738
896.861	19776
896.982	20001
897.103	20092
897.224	19913
897.345	20020
897.466	19940
897.587	20005
897.708	19989
897.828	19898
897.949	19902
898.07	19852
898.19	19944
898.311	20012
898.431	20043
898.552	19917
898.672	19906
898.792	19978
898.913	20050
899.033	19830
899.153	19845
899.273	19597
899.393	19689
899.513	19852
899.633	19681
899.753	19693
899.873	19601
899.993	19715
900.113	19670
900.232	19582
900.352	19704
900.472	19605
900.591	19354
900.711	19453
900.83	19388
900.95	19480
901.069	19544
901.189	19365
901.308	19179
901.427	19080
901.546	19076
901.665	19023
901.784	19084
901.904	19015
902.023	18947
902.141	18623
902.26	18597
902.379	18806
902.498	18604
902.617	18498
902.735	18722
902.854	18627
902.973	18574
903.091	18239
903.21	18235
903.328	18353
903.446	18155
903.565	18049
903.683	18091
903.801	17942
903.919	18091
904.038	17950
904.156	17847
904.274	17855
904.392	17904
904.51	17729
904.627	17897
904.745	17935
904.863	17855
904.981	17771
905.098	17505
905.216	17604
905.334	17471
905.451	17570
905.569	17455
905.686	17455
905.803	17547
905.921	17292
906.038	17364
906.155	17360
906.272	17200
906.389	17261
906.506	17090
906.623	17083
906.74	17079
906.857	16972
906.974	16885
907.091	17102
907.208	17197
907.324	17071
907.441	16987
907.557	16854
907.674	16847
907.79	16694
907.907	16767
908.023	16771
908.139	16809
908.256	16679
908.372	16717
908.488	16729
908.604	16527
908.72	16577
908.836	16459
908.952	16500
909.068	16485
909.184	16611
909.3	16512
909.415	16538
909.531	16462
909.647	16181
909.762	16303
909.878	16158
909.993	16280
910.108	16261
910.224	16158
910.339	16013
910.454	16074
910.57	16082
910.685	15895
910.8	16211
910.915	16090
911.03	16002
911.145	15892
911.259	15709
911.374	15789
911.489	15747
911.604	15701
911.718	15667
911.833	15637
911.947	15481
912.062	15424
912.176	15530
912.291	15568
912.405	15545
912.519	15694
912.633	15603
912.748	15553
912.862	15462
912.976	15504
913.09	15287
913.204	15294
913.318	15340
913.431	15401
913.545	15416
913.659	15511
913.772	15355
913.886	15272
914	15154
914.113	15203
914.226	15310
914.34	15211
914.453	15055
914.566	15203
914.68	15024
914.793	15123
914.906	14834
915.019	14861
915.132	14777
915.245	14701
915.358	14876
915.47	14800
915.583	14876
915.696	14796
915.809	14880
915.921	14887
916.034	14765
916.146	14644
916.259	14731
916.371	14785
916.483	14731
916.595	14640
916.708	14727
916.82	14651
916.932	14575
917.044	14613
917.156	14663
917.268	14454
917.38	14545
917.491	14450
917.603	14552
917.715	14533
917.826	14488
917.938	14476
918.049	14290
918.161	14347
918.272	14556
918.384	14511
918.495	14408
918.606	14320
918.717	14145
918.828	14278
918.939	14275
919.05	14107
919.161	14142
919.272	13982
919.383	14046
919.494	14130
919.604	14355
919.715	14244
919.826	14081
919.936	14210
920.047	14202
920.157	14199
920.267	14320
920.378	14145
920.488	14142
920.598	14256
920.708	14469
920.818	14305
920.928	14267
921.038	14419
921.148	14400
921.258	14084
921.368	14024
921.477	13902
921.587	13970
921.697	13776
921.806	13940
921.916	13681
922.025	13616
922.134	13559
922.244	13491
922.353	13613
922.462	13457
922.571	13346
922.68	13232
922.789	13217
922.898	13236
923.007	13126
923.116	13270
923.224	13156
923.333	13183
923.442	13145
923.55	13046
923.659	13076
923.767	13118
923.876	13031
923.984	13069
924.092	13023
924.201	13057
924.309	12958
924.417	12958
924.525	12920
924.633	12867
924.741	13856
924.849	12696
924.956	12844
925.064	12703
925.172	12616
925.279	12658
925.387	12764
925.494	12665
925.602	12738
925.709	12703
925.816	12601
925.924	12589
926.031	12654
926.138	12601
926.245	12646
926.352	12441
926.459	12612
926.566	12681
926.673	12593
926.779	12467
926.886	12391
926.993	12273
927.099	12232
927.206	12117
927.312	12129
927.419	12266
927.525	12216
927.631	12239
927.737	12133
927.843	12167
927.95	11969
928.056	12079
928.162	12068
928.267	12144
928.373	12551
928.479	12121
928.585	11847
928.69	11999
928.796	12038
928.901	11939
929.007	11745
929.112	11897
929.218	11973
929.323	11893
929.428	11882
929.533	11916
929.638	11741
929.743	11745
929.848	11813
929.953	11726
930.058	11615
930.163	11436
930.267	11562
930.372	11760
930.477	11482
930.581	11741
930.685	11474
930.79	11288
930.894	11414
930.998	11360
931.103	11463
931.207	11098
931.311	11056
931.415	10968
931.519	10733
931.623	10763
