Data from test_V78500241_1277.txt Node
Date: Fri Mar 25 15:18:44 CST 2022
User: usil
Spectrometer: V785-0024
Trigger mode: 0
Integration Time (sec): 4.000000E-1
Scans to average: 1
Nonlinearity correction enabled: false
Boxcar width: 0
Storing dark spectrum: false
XAxis mode: Wavelengths
Number of Pixels in Spectrum: 1024
>>>>>Begin Spectral Data<<<<<
801.071	28166
801.214	28048
801.356	27759
801.499	27671
801.641	27477
801.783	27477
801.926	27728
802.068	27759
802.211	27477
802.353	27629
802.496	27435
802.638	27378
802.78	27275
802.923	27180
803.065	27188
803.208	27230
803.35	27291
803.492	27462
803.635	27507
803.777	27268
803.919	27553
804.061	27778
804.204	27454
804.346	27458
804.488	27363
804.63	27511
804.773	27424
804.915	27603
805.057	27534
805.199	27408
805.341	27743
805.483	27701
805.626	27629
805.768	27557
805.91	27614
806.052	27606
806.194	27599
806.336	27656
806.478	27583
806.62	27675
806.762	27743
806.904	27831
807.046	28124
807.188	28090
807.33	27941
807.472	28291
807.614	28059
807.756	27994
807.898	27937
808.04	27781
808.182	27800
808.324	27838
808.465	27823
808.607	28158
808.749	28303
808.891	28474
809.033	28375
809.174	28333
809.316	28249
809.458	28268
809.6	28154
809.741	28493
809.883	28424
810.025	28759
810.166	28577
810.308	28584
810.45	28489
810.591	28531
810.733	28261
810.875	28291
811.016	28154
811.158	28120
811.299	28299
811.441	28459
811.582	28386
811.724	28360
811.865	28246
812.007	28295
812.148	28284
812.29	28337
812.431	28428
812.573	28630
812.714	28668
812.855	28904
812.997	29044
813.138	29064
813.279	28965
813.421	28900
813.562	28835
813.703	28618
813.845	28588
813.986	28382
814.127	28139
814.268	27869
814.41	27972
814.551	28040
814.692	28082
814.833	27953
814.974	27953
815.115	27960
815.256	27785
815.397	27876
815.539	27850
815.68	27808
815.821	27572
815.962	27793
816.103	27861
816.244	27549
816.385	27599
816.526	27450
816.666	27298
816.807	27367
816.948	27386
817.089	27351
817.23	27344
817.371	27150
817.512	27389
817.653	27310
817.793	27272
817.934	27370
818.075	27397
818.216	27233
818.356	27241
818.497	27218
818.638	27020
818.778	27051
818.919	27096
819.06	27150
819.2	27218
819.341	27325
819.481	27203
819.622	27431
819.762	27770
819.903	27523
820.043	27466
820.184	27332
820.324	27348
820.465	27500
820.605	27351
820.746	27511
820.886	27264
821.026	27473
821.167	27466
821.307	27469
821.447	27344
821.588	27252
821.728	27195
821.868	27104
822.008	26857
822.149	26887
822.289	26804
822.429	26461
822.569	26377
822.709	26492
822.849	26358
822.99	26328
823.13	26332
823.27	26244
823.41	26081
823.55	26054
823.69	26191
823.83	26199
823.97	26126
824.11	25875
824.25	25887
824.389	25898
824.529	26115
824.669	25997
824.809	26069
824.949	25982
825.089	26096
825.228	26039
825.368	25830
825.508	25837
825.648	25860
825.787	25875
825.927	26005
826.067	25822
826.206	25864
826.346	25925
826.485	25932
826.625	25807
826.765	25890
826.904	25986
827.044	25639
827.183	25666
827.323	25529
827.462	25556
827.601	25651
827.741	25540
827.88	25552
828.02	25396
828.159	25518
828.298	25597
828.437	25567
828.577	25537
828.716	25597
828.855	25464
828.994	25244
829.134	25266
829.273	25301
829.412	25209
829.551	25346
829.69	25301
829.829	25285
829.968	25297
830.107	25289
830.246	25266
830.385	25126
830.524	25183
830.663	25194
830.802	24970
830.941	24795
831.08	24863
831.219	25038
831.357	24867
831.496	25095
831.635	24886
831.774	24848
831.913	24749
832.051	24544
832.19	24646
832.329	24639
832.467	24582
832.606	24502
832.744	24578
832.883	24388
833.022	24620
833.16	24601
833.299	24604
833.437	24604
833.576	24620
833.714	24703
833.852	24635
833.991	24696
834.129	24631
834.267	24692
834.406	24692
834.544	24738
834.682	24517
834.821	24540
834.959	24795
835.097	24563
835.235	24639
835.373	24650
835.511	24601
835.65	24384
835.788	24353
835.926	24350
836.064	24319
836.202	24232
836.34	24521
836.478	24521
836.615	24380
836.753	24441
836.891	24452
837.029	24361
837.167	24433
837.305	24369
837.443	24247
837.58	24338
837.718	24369
837.856	24258
837.993	24216
838.131	24289
838.269	24072
838.406	24159
838.544	24076
838.681	23954
838.819	23813
838.956	23741
839.094	23661
839.231	23821
839.369	23927
839.506	24125
839.643	23965
839.781	23786
839.918	23714
840.055	23779
840.193	23699
840.33	23794
840.467	23691
840.604	23714
840.742	23961
840.879	23684
841.016	23539
841.153	23619
841.29	23699
841.427	23547
841.564	23729
841.701	23642
841.838	23668
841.975	23402
842.112	23520
842.249	23398
842.385	23349
842.522	23619
842.659	23486
842.796	23307
842.933	23433
843.069	23273
843.206	23356
843.343	23539
843.479	23368
843.616	23387
843.752	23200
843.889	23265
844.025	23277
844.162	23193
844.298	23277
844.435	23174
844.571	23273
844.708	23334
844.844	23356
844.98	23330
845.117	23337
845.253	23121
845.389	22991
845.525	23010
845.661	23098
845.798	22976
845.934	22881
846.07	22881
846.206	22866
846.342	22934
846.478	22854
846.614	22717
846.75	22592
846.886	22615
847.022	22721
847.158	22573
847.294	22622
847.429	22649
847.565	22630
847.701	22767
847.837	22478
847.972	22318
848.108	22497
848.244	22333
848.379	22333
848.515	22211
848.65	22188
848.786	22268
848.921	22272
849.057	22276
849.192	22223
849.328	22303
849.463	22162
849.598	22287
849.734	22112
849.869	21987
850.004	22093
850.14	22063
850.275	22067
850.41	22032
850.545	21854
850.68	22010
850.815	22059
850.95	22002
851.085	22276
851.22	22139
851.355	22021
851.49	21972
851.625	22048
851.76	21991
851.895	21827
852.03	21934
852.165	21994
852.299	22021
852.434	22017
852.569	21964
852.703	21987
852.838	22059
852.973	22135
853.107	22063
853.242	21941
853.376	21816
853.511	21713
853.645	21842
853.78	21953
853.914	21899
854.048	21869
854.183	21785
854.317	21804
854.451	22067
854.585	21766
854.72	21884
854.854	21846
854.988	21739
855.122	21770
855.256	21717
855.39	21766
855.524	21937
855.658	21884
855.792	21854
855.926	21895
856.06	21861
856.194	21915
856.327	21759
856.461	21762
856.595	21671
856.729	21793
856.862	21884
856.996	21713
857.13	21907
857.263	21991
857.397	21918
857.53	21766
857.664	21941
857.797	21892
857.931	21956
858.064	21903
858.197	21911
858.331	21804
858.464	21816
858.597	21671
858.731	21652
858.864	21861
858.997	21724
859.13	21698
859.263	21800
859.396	21793
859.529	21895
859.662	21720
859.795	21690
859.928	21880
860.061	21865
860.194	22112
860.327	21972
860.46	21857
860.592	21854
860.725	22013
860.858	22006
860.99	21865
861.123	21671
861.256	21827
861.388	21865
861.521	22432
861.653	21633
861.786	21526
861.918	21671
862.05	21690
862.183	21755
862.315	21709
862.447	21835
862.58	21751
862.712	21469
862.844	21469
862.976	21606
863.108	21591
863.24	21842
863.372	21447
863.504	21428
863.636	21473
863.768	21397
863.9	21564
864.032	21370
864.164	21454
864.296	21466
864.428	21618
864.559	21614
864.691	21534
864.823	21610
864.954	21420
865.086	21466
865.217	21374
865.349	21344
865.48	21405
865.612	21458
865.743	21511
865.875	21355
866.006	21477
866.137	21393
866.269	21405
866.4	21443
866.531	21325
866.662	21245
866.793	21397
866.924	21302
867.055	21431
867.186	21306
867.317	21279
867.448	21207
867.579	21382
867.71	21241
867.841	21344
867.972	21363
868.103	21279
868.233	21435
868.364	21355
868.495	21507
868.625	21564
868.756	21595
868.886	21519
869.017	21553
869.147	21694
869.278	21743
869.408	21557
869.539	21530
869.669	21709
869.799	21610
869.929	21736
870.06	21759
870.19	21850
870.32	21838
870.45	21850
870.58	21964
870.71	22086
870.84	22112
870.97	22006
871.1	21983
871.23	22192
871.36	22204
871.489	22017
871.619	22128
871.749	22158
871.879	22204
872.008	22360
872.138	22196
872.267	22139
872.397	22044
872.526	21930
872.656	21857
872.785	22002
872.915	22070
873.044	22257
873.173	22120
873.303	22097
873.432	22207
873.561	22253
873.69	22158
873.819	22234
873.948	22268
874.077	22211
874.206	22215
874.335	22169
874.464	22287
874.593	22417
874.722	22352
874.851	22561
874.979	22428
875.108	22443
875.237	22363
875.365	22261
875.494	22299
875.623	22504
875.751	22325
875.88	22432
876.008	22500
876.136	22550
876.265	22733
876.393	22953
876.521	22881
876.65	22854
876.778	22763
876.906	22748
877.034	22778
877.162	22774
877.29	22653
877.418	22763
877.546	22733
877.674	22599
877.802	22679
877.93	22755
878.058	22687
878.185	22626
878.313	22698
878.441	22664
878.568	22596
878.696	22771
878.824	22843
878.951	22816
879.079	22892
879.206	23037
879.333	22816
879.461	22774
879.588	22854
879.715	22915
879.842	23033
879.97	22831
880.097	22493
880.224	22577
880.351	22729
880.478	22550
880.605	22588
880.732	22542
880.859	22774
880.986	22504
881.112	22630
881.239	22428
881.366	22303
881.493	22162
881.619	22090
881.746	22181
881.872	22166
881.999	22128
882.125	22070
882.252	22135
882.378	21964
882.505	22219
882.631	21930
882.757	21846
882.883	21846
883.01	21835
883.136	21865
883.262	21644
883.388	21568
883.514	21804
883.64	21907
883.766	21682
883.892	21599
884.018	21557
884.143	21751
884.269	21861
884.395	21511
884.52	21511
884.646	21485
884.772	21298
884.897	21302
885.023	21397
885.148	21667
885.274	21667
885.399	21599
885.524	21469
885.65	21435
885.775	21428
885.9	21412
886.025	21504
886.15	21538
886.275	21424
886.4	21355
886.525	21473
886.65	21367
886.775	21382
886.9	21519
887.025	21797
887.149	21519
887.274	21332
887.399	21173
887.523	21214
887.648	21131
887.773	21108
887.897	21351
888.021	21325
888.146	21203
888.27	21180
888.395	21226
888.519	21214
888.643	21367
888.767	21207
888.891	21150
889.015	20918
889.139	20986
889.263	21085
889.387	21161
889.511	21169
889.635	21169
889.759	20967
889.883	21032
890.006	21020
890.13	21116
890.254	21005
890.377	20910
890.501	20773
890.624	20705
890.748	20731
890.871	20640
890.995	20724
891.118	20545
891.241	20541
891.364	20651
891.488	20663
891.611	20522
891.734	20724
891.857	20606
891.98	20606
892.103	20697
892.226	20598
892.349	20541
892.471	20446
892.594	20514
892.717	20507
892.839	20541
892.962	20492
893.085	20518
893.207	20332
893.33	20412
893.452	20366
893.575	20514
893.697	20530
893.819	20640
893.941	20636
894.064	20526
894.186	20355
894.308	20381
894.43	20568
894.552	20511
894.674	20552
894.796	20374
894.918	20446
895.04	20469
895.161	20461
895.283	20575
895.405	20450
895.526	20571
895.648	20385
895.769	20385
895.891	20495
896.012	20583
896.134	20518
896.255	20484
896.376	20461
896.498	20511
896.619	20526
896.74	20450
896.861	20484
896.982	20796
897.103	20914
897.224	20644
897.345	20625
897.466	20609
897.587	20632
897.708	20796
897.828	20663
897.949	20583
898.07	20484
898.19	20678
898.311	20845
898.431	20518
898.552	20613
898.672	20750
898.792	20693
898.913	20678
899.033	20575
899.153	20511
899.273	20427
899.393	20450
899.513	20488
899.633	20431
899.753	20412
899.873	20419
899.993	20450
900.113	20317
900.232	20305
900.352	20317
900.472	20168
900.591	20142
900.711	20172
900.83	20259
900.95	20199
901.069	20347
901.189	20081
901.308	19795
901.427	19868
901.546	19723
901.665	19757
901.784	19803
901.904	19700
902.023	19594
902.141	19244
902.26	19434
902.379	19419
902.498	19365
902.617	19308
902.735	19278
902.854	19270
902.973	19069
903.091	19015
903.21	18890
903.328	18966
903.446	18932
903.565	18741
903.683	18852
903.801	18642
903.919	18665
904.038	18791
904.156	18509
904.274	18521
904.392	18532
904.51	18528
904.627	18407
904.745	18547
904.863	18517
904.981	18300
905.098	18194
905.216	18174
905.334	18247
905.451	18216
905.569	18247
905.686	18247
905.803	18296
905.921	17984
906.038	17969
906.155	18034
906.272	17870
906.389	17805
906.506	17657
906.623	17726
906.74	17714
906.857	17577
906.974	17566
907.091	17710
907.208	17775
907.324	17646
907.441	17558
907.557	17349
907.674	17482
907.79	17360
907.907	17330
908.023	17516
908.139	17433
908.256	17349
908.372	17341
908.488	17288
908.604	17124
908.72	17014
908.836	17181
908.952	17121
909.068	17227
909.184	17269
909.3	17200
909.415	17079
909.531	17265
909.647	16972
909.762	16816
909.878	16835
909.993	16820
910.108	16835
910.224	16717
910.339	16873
910.454	16656
910.57	16664
910.685	16637
910.8	16927
910.915	16812
911.03	16580
911.145	16436
911.259	16402
911.374	16409
911.489	16443
911.604	16249
911.718	16158
911.833	16181
911.947	16074
912.062	15972
912.176	16192
912.291	16154
912.405	16093
912.519	16375
912.633	16318
912.748	16291
912.862	16101
912.976	16105
913.09	15850
913.204	15960
913.318	15994
913.431	16120
913.545	16128
913.659	16128
913.772	15884
913.886	15850
914	15831
914.113	15816
914.226	15953
914.34	15922
914.453	15690
914.566	15865
914.68	15720
914.793	15679
914.906	15397
915.019	15351
915.132	15416
915.245	15340
915.358	15431
915.47	15329
915.583	15397
915.696	15450
915.809	15526
915.921	15496
916.034	15378
916.146	15336
916.259	15230
916.371	15382
916.483	15359
916.595	15207
916.708	15146
916.82	15230
916.932	15199
917.044	15176
917.156	15138
917.268	15028
917.38	15039
917.491	15020
917.603	15039
917.715	15100
917.826	15036
917.938	14921
918.049	14880
918.161	14956
918.272	15112
918.384	15097
918.495	14982
918.606	14857
918.717	14785
918.828	14773
918.939	14739
919.05	14636
919.161	14731
919.272	14571
919.383	14594
919.494	14807
919.604	14948
919.715	14686
919.826	14724
919.936	14724
920.047	14842
920.157	14788
920.267	14952
920.378	14743
920.488	14705
920.598	14891
920.708	15058
920.818	14944
920.928	14864
921.038	14971
921.148	15020
921.258	14689
921.368	14636
921.477	14511
921.587	14461
921.697	14358
921.806	14492
921.916	14290
922.025	14035
922.134	14123
922.244	14195
922.353	14111
922.462	13997
922.571	13963
922.68	13856
922.789	13723
922.898	13742
923.007	13693
923.116	13689
923.224	13788
923.333	13769
923.442	13655
923.55	13514
923.659	13533
923.767	13632
923.876	13563
923.984	13597
924.092	13400
924.201	13434
924.309	13495
924.417	13495
924.525	13445
924.633	13339
924.741	14195
924.849	13190
924.956	13388
925.064	13209
925.172	13091
925.279	13183
925.387	13194
925.494	13107
925.602	13285
925.709	13164
925.816	13019
925.924	13019
926.031	13194
926.138	13061
926.245	13122
926.352	12905
926.459	13179
926.566	13171
926.673	13012
926.779	12875
926.886	12821
926.993	12760
927.099	12692
927.206	12662
927.312	12650
927.419	12768
927.525	12715
927.631	12703
927.737	12620
927.843	12517
927.95	12502
928.056	12517
928.162	12490
928.267	12517
928.373	13145
928.479	12593
928.585	12384
928.69	12429
928.796	12502
928.901	12372
929.007	12213
929.112	12490
929.218	12388
929.323	12281
929.428	12254
929.533	12407
929.638	12182
929.743	12228
929.848	12315
929.953	12110
930.058	12117
930.163	11942
930.267	11832
930.372	12129
930.477	11855
930.581	12136
930.685	11920
930.79	11874
930.894	11847
930.998	11824
931.103	11950
931.207	11596
931.311	11512
931.415	11334
931.519	11235
931.623	11109
