Data from test_V78500241_404.txt Node
Date: Fri Mar 25 15:12:40 CST 2022
User: usil
Spectrometer: V785-0024
Trigger mode: 0
Integration Time (sec): 4.000000E-1
Scans to average: 1
Nonlinearity correction enabled: false
Boxcar width: 0
Storing dark spectrum: false
XAxis mode: Wavelengths
Number of Pixels in Spectrum: 1024
>>>>>Begin Spectral Data<<<<<
801.071	26872
801.214	26807
801.356	26530
801.499	26689
801.641	26522
801.783	26408
801.926	26461
802.068	26332
802.211	26366
802.353	26248
802.496	26111
802.638	26107
802.78	26145
802.923	26062
803.065	26054
803.208	26126
803.35	26134
803.492	26309
803.635	26164
803.777	26187
803.919	26263
804.061	26594
804.204	26195
804.346	26172
804.488	26073
804.63	26206
804.773	26142
804.915	26069
805.057	26370
805.199	26275
805.341	26248
805.483	26309
805.626	26244
805.768	26336
805.91	26187
806.052	26259
806.194	26263
806.336	26484
806.478	26366
806.62	26332
806.762	26419
806.904	26568
807.046	26887
807.188	26659
807.33	26720
807.472	26807
807.614	26735
807.756	26678
807.898	26590
808.04	26492
808.182	26476
808.324	26522
808.465	26465
808.607	26731
808.749	26872
808.891	26963
809.033	27077
809.174	27093
809.316	26830
809.458	26944
809.6	26834
809.741	26986
809.883	27020
810.025	27085
810.166	27408
810.308	27298
810.45	27150
810.591	27036
810.733	27005
810.875	26876
811.016	26743
811.158	26712
811.299	27028
811.441	26948
811.582	27184
811.724	26811
811.865	26830
812.007	26937
812.148	26899
812.29	26880
812.431	27119
812.573	27161
812.714	27176
812.855	27367
812.997	27557
813.138	27485
813.279	27443
813.421	27492
813.562	27294
813.703	27161
813.845	27119
813.986	26765
814.127	26689
814.268	26465
814.41	26533
814.551	26457
814.692	26579
814.833	26511
814.974	26549
815.115	26511
815.256	26351
815.397	26393
815.539	26385
815.68	26286
815.821	26355
815.962	26336
816.103	26320
816.244	26103
816.385	26069
816.526	26130
816.666	25932
816.807	25951
816.948	25944
817.089	25883
817.23	25704
817.371	25860
817.512	25719
817.653	25852
817.793	25689
817.934	25795
818.075	25791
818.216	25902
818.356	25837
818.497	25750
818.638	25460
818.778	25559
818.919	25586
819.06	25647
819.2	25765
819.341	25757
819.481	25750
819.622	25951
819.762	26191
819.903	26046
820.043	25963
820.184	25947
820.324	25894
820.465	26005
820.605	26107
820.746	26062
820.886	25765
821.026	25788
821.167	25803
821.307	25902
821.447	25799
821.588	25719
821.728	25700
821.868	25304
822.008	25263
822.149	25327
822.289	25141
822.429	24985
822.569	25012
822.709	24894
822.849	24734
822.99	24741
823.13	24711
823.27	24589
823.41	24593
823.55	24437
823.69	24589
823.83	24570
823.97	24505
824.11	24350
824.25	24262
824.389	24464
824.529	24536
824.669	24426
824.809	24483
824.949	24544
825.089	24460
825.228	24418
825.368	24152
825.508	24239
825.648	24350
825.787	24144
825.927	24410
826.067	24155
826.206	24190
826.346	24289
826.485	24292
826.625	24334
826.765	24494
826.904	24285
827.044	24041
827.183	23973
827.323	23954
827.462	24030
827.601	24015
827.741	23939
827.88	23863
828.02	23889
828.159	23843
828.298	23840
828.437	24087
828.577	23923
828.716	24011
828.855	23874
828.994	23733
829.134	23741
829.273	23775
829.412	23745
829.551	23619
829.69	23672
829.829	23691
829.968	23767
830.107	23767
830.246	23680
830.385	23665
830.524	23615
830.663	23402
830.802	23402
830.941	23265
831.08	23242
831.219	23349
831.357	23376
831.496	23566
831.635	23292
831.774	23288
831.913	23181
832.051	23258
832.19	23090
832.329	23143
832.467	23037
832.606	23029
832.744	22976
832.883	23025
833.022	22923
833.16	22881
833.299	22957
833.437	23025
833.576	23094
833.714	23048
833.852	23109
833.991	23052
834.129	23113
834.267	23102
834.406	23067
834.544	23227
834.682	22938
834.821	23010
834.959	23208
835.097	22949
835.235	23071
835.373	23075
835.511	22976
835.65	22923
835.788	22946
835.926	22713
836.064	22717
836.202	22759
836.34	22934
836.478	22968
836.615	22854
836.753	23037
836.891	23010
837.029	22965
837.167	22729
837.305	22812
837.443	22896
837.58	22748
837.718	22858
837.856	22839
837.993	22763
838.131	22672
838.269	22656
838.406	22653
838.544	22580
838.681	22497
838.819	22405
838.956	22215
839.094	22291
839.231	22272
839.369	22352
839.506	22615
839.643	22348
839.781	22299
839.918	22306
840.055	22230
840.193	22268
840.33	22200
840.467	22169
840.604	22211
840.742	22474
840.879	22200
841.016	22112
841.153	22147
841.29	22268
841.427	22276
841.564	22325
841.701	22128
841.838	22162
841.975	22021
842.112	22078
842.249	21994
842.385	21994
842.522	22139
842.659	21861
842.796	21918
842.933	21842
843.069	21808
843.206	21998
843.343	22013
843.479	21964
843.616	22055
843.752	21728
843.889	21679
844.025	21869
844.162	21812
844.298	21781
844.435	21732
844.571	21614
844.708	21846
844.844	21812
844.98	21907
845.117	21838
845.253	21701
845.389	21709
845.525	21698
845.661	21549
845.798	21443
845.934	21591
846.07	21481
846.206	21439
846.342	21599
846.478	21450
846.614	21294
846.75	21077
846.886	21203
847.022	21283
847.158	21211
847.294	21226
847.429	21283
847.565	21199
847.701	21477
847.837	20933
847.972	20933
848.108	21047
848.244	21017
848.379	20880
848.515	20849
848.65	20739
848.786	20880
848.921	20861
849.057	20902
849.192	20834
849.328	20902
849.463	20872
849.598	20682
849.734	20777
849.869	20701
850.004	20765
850.14	20533
850.275	20629
850.41	20473
850.545	20541
850.68	20511
850.815	20530
850.95	20579
851.085	20720
851.22	20697
851.355	20556
851.49	20522
851.625	20434
851.76	20545
851.895	20495
852.03	20522
852.165	20362
852.299	20667
852.434	20674
852.569	20629
852.703	20396
852.838	20674
852.973	20781
853.107	20746
853.242	20488
853.376	20522
853.511	20324
853.645	20313
853.78	20488
853.914	20408
854.048	20332
854.183	20419
854.317	20438
854.451	20583
854.585	20362
854.72	20427
854.854	20488
854.988	20259
855.122	20347
855.256	20339
855.39	20374
855.524	20514
855.658	20442
855.792	20396
855.926	20412
856.06	20465
856.194	20446
856.327	20309
856.461	20362
856.595	20324
856.729	20294
856.862	20480
856.996	20381
857.13	20503
857.263	20590
857.397	20434
857.53	20389
857.664	20415
857.797	20385
857.931	20526
858.064	20389
858.197	20522
858.331	20488
858.464	20282
858.597	20389
858.731	20461
858.864	20438
858.997	20278
859.13	20336
859.263	20434
859.396	20556
859.529	20526
859.662	20309
859.795	20343
859.928	20370
860.061	20602
860.194	20575
860.327	20313
860.46	20374
860.592	20370
860.725	20651
860.858	20617
860.99	20423
861.123	20240
861.256	20332
861.388	20347
861.521	21169
861.653	20164
861.786	20142
861.918	20282
862.05	20309
862.183	20259
862.315	20362
862.447	20541
862.58	20244
862.712	20240
862.844	20168
862.976	20126
863.108	20122
863.24	20613
863.372	20096
863.504	20168
863.636	20069
863.768	20142
863.9	20096
864.032	20088
864.164	19940
864.296	20100
864.428	20244
864.559	20176
864.691	20244
864.823	20142
864.954	20062
865.086	20130
865.217	20008
865.349	19947
865.48	20122
865.612	20073
865.743	20176
865.875	20020
866.006	19909
866.137	19936
866.269	20020
866.4	20096
866.531	19921
866.662	20039
866.793	20046
866.924	20058
867.055	19967
867.186	19963
867.317	19875
867.448	19989
867.579	19978
867.71	19822
867.841	19887
867.972	19898
868.103	19894
868.233	19921
868.364	20005
868.495	19967
868.625	20157
868.756	20332
868.886	20092
869.017	20244
869.147	20256
869.278	20320
869.408	20248
869.539	20180
869.669	20305
869.799	20343
869.929	20244
870.06	20404
870.19	20454
870.32	20507
870.45	20629
870.58	20579
870.71	20667
870.84	20788
870.97	20629
871.1	20568
871.23	20861
871.36	20735
871.489	20609
871.619	20807
871.749	20785
871.879	20842
872.008	20811
872.138	20807
872.267	20891
872.397	20872
872.526	20739
872.656	20686
872.785	20667
872.915	20788
873.044	20956
873.173	20838
873.303	20830
873.432	20872
873.561	20883
873.69	20830
873.819	20872
873.948	20990
874.077	20880
874.206	20765
874.335	20823
874.464	20933
874.593	21043
874.722	20948
874.851	21142
874.979	21135
875.108	21203
875.237	21104
875.365	21043
875.494	20944
875.623	21150
875.751	21036
875.88	21119
876.008	21192
876.136	21150
876.265	21454
876.393	21538
876.521	21564
876.65	21507
876.778	21545
876.906	21386
877.034	21397
877.162	21458
877.29	21302
877.418	21428
877.546	21530
877.674	21428
877.802	21393
877.93	21568
878.058	21424
878.185	21272
878.313	21507
878.441	21523
878.568	21332
878.696	21306
878.824	21500
878.951	21424
879.079	21580
879.206	21732
879.333	21526
879.461	21523
879.588	21492
879.715	21583
879.842	21709
879.97	21469
880.097	21260
880.224	21222
880.351	21279
880.478	21237
880.605	21146
880.732	21264
880.859	21428
880.986	21207
881.112	21195
881.239	21104
881.366	20975
881.493	20876
881.619	20800
881.746	20876
881.872	20872
881.999	20864
882.125	20727
882.252	20811
882.378	20785
882.505	20952
882.631	20636
882.757	20629
882.883	20640
883.01	20495
883.136	20530
883.262	20518
883.388	20568
883.514	20644
883.64	20590
883.766	20415
883.892	20347
884.018	20282
884.143	20533
884.269	20499
884.395	20431
884.52	20153
884.646	20275
884.772	20191
884.897	20183
885.023	20286
885.148	20290
885.274	20332
885.399	20309
885.524	20145
885.65	20263
885.775	20199
885.9	20088
886.025	20294
886.15	20252
886.275	20062
886.4	20054
886.525	20202
886.65	20187
886.775	20180
886.9	20320
887.025	20465
887.149	20199
887.274	20016
887.399	20100
887.523	20024
887.648	19944
887.773	19894
887.897	20130
888.021	20119
888.146	19879
888.27	20100
888.395	19967
888.519	19978
888.643	20103
888.767	20084
888.891	19944
889.015	19894
889.139	19864
889.263	19788
889.387	19856
889.511	20016
889.635	19906
889.759	19658
889.883	19814
890.006	19795
890.13	19890
890.254	19639
890.377	19681
890.501	19594
890.624	19552
890.748	19537
890.871	19537
890.995	19441
891.118	19270
891.241	19438
891.364	19388
891.488	19556
891.611	19282
891.734	19293
891.857	19464
891.98	19426
892.103	19384
892.226	19411
892.349	19301
892.471	19247
892.594	19312
892.717	19362
892.839	19327
892.962	19301
893.085	19225
893.207	19236
893.33	19168
893.452	19236
893.575	19255
893.697	19232
893.819	19407
893.941	19632
894.064	19487
894.186	19122
894.308	19244
894.43	19388
894.552	19430
894.674	19320
894.796	19175
894.918	19236
895.04	19365
895.161	19464
895.283	19407
895.405	19190
895.526	19274
895.648	19251
895.769	19270
895.891	19297
896.012	19327
896.134	19327
896.255	19282
896.376	19247
896.498	19228
896.619	19365
896.74	19183
896.861	19331
896.982	19609
897.103	19658
897.224	19571
897.345	19510
897.466	19510
897.587	19643
897.708	19651
897.828	19529
897.949	19514
898.07	19346
898.19	19426
898.311	19624
898.431	19365
898.552	19655
898.672	19480
898.792	19548
898.913	19533
899.033	19419
899.153	19331
899.273	19274
899.393	19198
899.513	19411
899.633	19278
899.753	19244
899.873	19213
899.993	19285
900.113	19194
900.232	19179
900.352	19251
900.472	19110
900.591	19057
900.711	19099
900.83	19057
900.95	19190
901.069	19206
901.189	18977
901.308	18852
901.427	18741
901.546	18681
901.665	18696
901.784	18658
901.904	18612
902.023	18380
902.141	18254
902.26	18209
902.379	18251
902.498	18152
902.617	18114
902.735	18289
902.854	18167
902.973	18057
903.091	17923
903.21	17901
903.328	17935
903.446	17802
903.565	17604
903.683	17604
903.801	17638
903.919	17668
904.038	17611
904.156	17478
904.274	17547
904.392	17490
904.51	17471
904.627	17406
904.745	17558
904.863	17558
904.981	17227
905.098	17071
905.216	17105
905.334	17239
905.451	17208
905.569	17212
905.686	17128
905.803	17159
905.921	16949
906.038	17079
906.155	16911
906.272	16927
906.389	16915
906.506	16744
906.623	16706
906.74	16672
906.857	16538
906.974	16561
907.091	16858
907.208	16828
907.324	16812
907.441	16622
907.557	16493
907.674	16440
907.79	16337
907.907	16322
908.023	16443
908.139	16443
908.256	16299
908.372	16356
908.488	16306
908.604	16211
908.72	16067
908.836	16063
908.952	16105
909.068	16166
909.184	16314
909.3	16059
909.415	16238
909.531	16154
909.647	15915
909.762	15846
909.878	15911
909.993	15983
910.108	15808
910.224	15838
910.339	15876
910.454	15701
910.57	15717
910.685	15469
910.8	15823
910.915	15789
911.03	15595
911.145	15519
911.259	15519
911.374	15462
911.489	15367
911.604	15287
911.718	15169
911.833	15233
911.947	15214
912.062	14971
912.176	15100
912.291	15150
912.405	15131
912.519	15340
912.633	15428
912.748	15260
912.862	15195
912.976	15028
913.09	14944
913.204	15055
913.318	15047
913.431	15222
913.545	15001
913.659	15039
913.772	14956
913.886	14937
914	14933
914.113	14986
914.226	14960
914.34	14921
914.453	14693
914.566	14864
914.68	14750
914.793	14689
914.906	14514
915.019	14461
915.132	14358
915.245	14454
915.358	14549
915.47	14484
915.583	14465
915.696	14492
915.809	14613
915.921	14648
916.034	14389
916.146	14385
916.259	14324
916.371	14537
916.483	14377
916.595	14419
916.708	14400
916.82	14332
916.932	14389
917.044	14381
917.156	14256
917.268	14039
917.38	14157
917.491	14069
917.603	14142
917.715	14168
917.826	14267
917.938	14111
918.049	14073
918.161	14065
918.272	14305
918.384	14229
918.495	14092
918.606	13982
918.717	13852
918.828	13902
918.939	13936
919.05	13898
919.161	13811
919.272	13715
919.383	13791
919.494	14031
919.604	14172
919.715	13879
919.826	13837
919.936	13860
920.047	13970
920.157	14027
920.267	14039
920.378	13978
920.488	13890
920.598	14103
920.708	14096
920.818	14050
920.928	14058
921.038	14157
921.148	14168
921.258	13951
921.368	13784
921.477	13643
921.587	13681
921.697	13480
921.806	13708
921.916	13537
922.025	13304
922.134	13293
922.244	13255
922.353	13316
922.462	13225
922.571	13141
922.68	12935
922.789	13004
922.898	13004
923.007	12928
923.116	13042
923.224	12848
923.333	12833
923.442	12798
923.55	12749
923.659	12871
923.767	12806
923.876	12730
923.984	12783
924.092	12726
924.201	12734
924.309	12631
924.417	12700
924.525	12616
924.633	12684
924.741	13597
924.849	12525
924.956	12597
925.064	12388
925.172	12399
925.279	12376
925.387	12403
925.494	12407
925.602	12525
925.709	12407
925.816	12308
925.924	12414
926.031	12479
926.138	12365
926.245	12361
926.352	12270
926.459	12437
926.566	12445
926.673	12277
926.779	12251
926.886	12175
926.993	11988
927.099	12015
927.206	11927
927.312	12011
927.419	12003
927.525	11935
927.631	12072
927.737	12022
927.843	11809
927.95	11779
928.056	11741
928.162	11874
928.267	11828
928.373	12483
928.479	11843
928.585	11642
928.69	11707
928.796	11912
928.901	11661
929.007	11543
929.112	11710
929.218	11646
929.323	11528
929.428	11615
929.533	11771
929.638	11577
929.743	11417
929.848	11486
929.953	11478
930.058	11391
930.163	11280
930.267	11258
930.372	11410
930.477	11189
930.581	11436
930.685	11406
930.79	11227
930.894	11223
930.998	11086
931.103	11254
931.207	11003
931.311	10805
931.415	10759
931.519	10573
931.623	10558
