Data from test_V78500241_2368.txt Node
Date: Fri Mar 25 15:26:20 CST 2022
User: usil
Spectrometer: V785-0024
Trigger mode: 0
Integration Time (sec): 4.000000E-1
Scans to average: 1
Nonlinearity correction enabled: false
Boxcar width: 0
Storing dark spectrum: false
XAxis mode: Wavelengths
Number of Pixels in Spectrum: 1024
>>>>>Begin Spectral Data<<<<<
801.071	27500
801.214	27389
801.356	27188
801.499	27135
801.641	26971
801.783	27047
801.926	27043
802.068	27009
802.211	27085
802.353	26952
802.496	26621
802.638	26537
802.78	26754
802.923	26469
803.065	26522
803.208	26552
803.35	26785
803.492	26750
803.635	26796
803.777	26796
803.919	26807
804.061	27013
804.204	26788
804.346	26689
804.488	26743
804.63	26883
804.773	26800
804.915	26788
805.057	26979
805.199	26724
805.341	26876
805.483	26948
805.626	26940
805.768	26842
805.91	26895
806.052	26864
806.194	26754
806.336	27192
806.478	26937
806.62	26811
806.762	27112
806.904	27123
807.046	27469
807.188	27272
807.33	27283
807.472	27351
807.614	27264
807.756	27367
807.898	27230
808.04	27131
808.182	27055
808.324	27207
808.465	27203
808.607	27485
808.749	27515
808.891	27511
809.033	27561
809.174	27561
809.316	27511
809.458	27389
809.6	27485
809.741	27545
809.883	27732
810.025	27831
810.166	27698
810.308	27713
810.45	27819
810.591	27618
810.733	27504
810.875	27485
811.016	27325
811.158	27370
811.299	27652
811.441	27580
811.582	27656
811.724	27447
811.865	27504
812.007	27515
812.148	27530
812.29	27454
812.431	27595
812.573	27804
812.714	27930
812.855	27907
812.997	28055
813.138	28181
813.279	28128
813.421	28025
813.562	28048
813.703	27778
813.845	27717
813.986	27279
814.127	27218
814.268	27173
814.41	27077
814.551	27138
814.692	27355
814.833	27039
814.974	27089
815.115	27192
815.256	26933
815.397	26929
815.539	27131
815.68	26998
815.821	26868
815.962	26986
816.103	26910
816.244	26830
816.385	26792
816.526	26602
816.666	26560
816.807	26488
816.948	26488
817.089	26609
817.23	26457
817.371	26362
817.512	26404
817.653	26457
817.793	26427
817.934	26309
818.075	26259
818.216	26385
818.356	26351
818.497	26237
818.638	26309
818.778	26073
818.919	26126
819.06	26332
819.2	26370
819.341	26408
819.481	26412
819.622	26533
819.762	26686
819.903	26689
820.043	26674
820.184	26457
820.324	26427
820.465	26697
820.605	26670
820.746	26514
820.886	26393
821.026	26473
821.167	26393
821.307	26636
821.447	26492
821.588	26355
821.728	26221
821.868	26119
822.008	25833
822.149	25795
822.289	25875
822.429	25643
822.569	25704
822.709	25567
822.849	25403
822.99	25373
823.13	25434
823.27	25407
823.41	25282
823.55	25168
823.69	25259
823.83	25247
823.97	25335
824.11	25072
824.25	25042
824.389	25133
824.529	25221
824.669	25008
824.809	25232
824.949	25145
825.089	25274
825.228	25156
825.368	24943
825.508	24947
825.648	24901
825.787	24867
825.927	25080
826.067	24905
826.206	24897
826.346	24913
826.485	24943
826.625	24856
826.765	25031
826.904	24958
827.044	24707
827.183	24711
827.323	24802
827.462	24840
827.601	24711
827.741	24551
827.88	24715
828.02	24536
828.159	24566
828.298	24601
828.437	24700
828.577	24532
828.716	24639
828.855	24635
828.994	24456
829.134	24365
829.273	24300
829.412	24395
829.551	24361
829.69	24353
829.829	24433
829.968	24380
830.107	24361
830.246	24410
830.385	24281
830.524	24209
830.663	24281
830.802	24152
830.941	23999
831.08	23920
831.219	24015
831.357	24053
831.496	24205
831.635	23996
831.774	23821
831.913	23733
832.051	23832
832.19	23684
832.329	23741
832.467	23653
832.606	23691
832.744	23649
832.883	23539
833.022	23497
833.16	23615
833.299	23707
833.437	23573
833.576	23661
833.714	23710
833.852	23718
833.991	23798
834.129	23608
834.267	23745
834.406	23668
834.544	23668
834.682	23729
834.821	23615
834.959	23870
835.097	23543
835.235	23676
835.373	23611
835.511	23676
835.65	23547
835.788	23551
835.926	23455
836.064	23410
836.202	23341
836.34	23699
836.478	23718
836.615	23512
836.753	23638
836.891	23642
837.029	23531
837.167	23452
837.305	23436
837.443	23410
837.58	23436
837.718	23433
837.856	23455
837.993	23277
838.131	23364
838.269	23242
838.406	23208
838.544	23128
838.681	23075
838.819	22999
838.956	22946
839.094	22782
839.231	23014
839.369	22885
839.506	23261
839.643	23052
839.781	22866
839.918	22744
840.055	22774
840.193	22881
840.33	22744
840.467	22809
840.604	22702
840.742	23003
840.879	22630
841.016	22725
841.153	22637
841.29	22793
841.427	22713
841.564	22744
841.701	22839
841.838	22744
841.975	22656
842.112	22630
842.249	22607
842.385	22599
842.522	22786
842.659	22565
842.796	22531
842.933	22538
843.069	22599
843.206	22481
843.343	22508
843.479	22470
843.616	22497
843.752	22360
843.889	22325
844.025	22394
844.162	22200
844.298	22318
844.435	22280
844.571	22314
844.708	22497
844.844	22459
844.98	22592
845.117	22375
845.253	22268
845.389	22150
845.525	22211
845.661	22219
845.798	21945
845.934	22204
846.07	22082
846.206	22192
846.342	22135
846.478	22002
846.614	21873
846.75	21690
846.886	21823
847.022	21854
847.158	21808
847.294	21903
847.429	21774
847.565	21827
847.701	21964
847.837	21458
847.972	21526
848.108	21652
848.244	21580
848.379	21507
848.515	21382
848.65	21401
848.786	21359
848.921	21382
849.057	21485
849.192	21526
849.328	21336
849.463	21317
849.598	21355
849.734	21317
849.869	21218
850.004	21104
850.14	21077
850.275	21093
850.41	21222
850.545	21104
850.68	21142
850.815	21195
850.95	21116
851.085	21317
851.22	21264
851.355	21146
851.49	21138
851.625	21169
851.76	21096
851.895	20960
852.03	20990
852.165	21001
852.299	21058
852.434	21150
852.569	21184
852.703	21066
852.838	21112
852.973	21310
853.107	21226
853.242	21093
853.376	21024
853.511	20838
853.645	20914
853.78	20967
853.914	20937
854.048	20838
854.183	21024
854.317	20963
854.451	21184
854.585	21020
854.72	20941
854.854	21024
854.988	20880
855.122	20971
855.256	20834
855.39	20975
855.524	21058
855.658	20929
855.792	20880
855.926	21051
856.06	20937
856.194	20925
856.327	20982
856.461	20883
856.595	20963
856.729	20872
856.862	21074
856.996	20899
857.13	21001
857.263	20994
857.397	20986
857.53	20857
857.664	21074
857.797	20887
857.931	21108
858.064	21017
858.197	21077
858.331	20937
858.464	21024
858.597	20838
858.731	20880
858.864	20910
858.997	20910
859.13	20834
859.263	21028
859.396	21001
859.529	20902
859.662	20853
859.795	20876
859.928	20929
860.061	21017
860.194	21157
860.327	21051
860.46	20941
860.592	20944
860.725	21039
860.858	21096
860.99	21001
861.123	20868
861.256	20895
861.388	20918
861.521	21564
861.653	20861
861.786	20746
861.918	20758
862.05	20769
862.183	20845
862.315	20853
862.447	20902
862.58	20758
862.712	20731
862.844	20598
862.976	20640
863.108	20686
863.24	21039
863.372	20644
863.504	20651
863.636	20636
863.768	20686
863.9	20606
864.032	20617
864.164	20640
864.296	20613
864.428	20716
864.559	20708
864.691	20785
864.823	20712
864.954	20682
865.086	20655
865.217	20598
865.349	20507
865.48	20575
865.612	20659
865.743	20712
865.875	20598
866.006	20530
866.137	20499
866.269	20583
866.4	20590
866.531	20488
866.662	20442
866.793	20560
866.924	20511
867.055	20636
867.186	20507
867.317	20511
867.448	20400
867.579	20503
867.71	20583
867.841	20339
867.972	20495
868.103	20427
868.233	20564
868.364	20507
868.495	20602
868.625	20693
868.756	20834
868.886	20648
869.017	20659
869.147	20899
869.278	20861
869.408	20701
869.539	20716
869.669	20800
869.799	20769
869.929	20925
870.06	20914
870.19	21089
870.32	21020
870.45	21112
870.58	21165
870.71	21272
870.84	21283
870.97	21062
871.1	21100
871.23	21287
871.36	21325
871.489	21237
871.619	21294
871.749	21397
871.879	21382
872.008	21523
872.138	21405
872.267	21317
872.397	21199
872.526	21332
872.656	21135
872.785	21188
872.915	21435
873.044	21466
873.173	21351
873.303	21435
873.432	21443
873.561	21401
873.69	21336
873.819	21317
873.948	21466
874.077	21443
874.206	21405
874.335	21370
874.464	21458
874.593	21572
874.722	21428
874.851	21709
874.979	21580
875.108	21603
875.237	21583
875.365	21568
875.494	21477
875.623	21675
875.751	21511
875.88	21549
876.008	21724
876.136	21797
876.265	22032
876.393	22143
876.521	21956
876.65	22051
876.778	22006
876.906	22074
877.034	21895
877.162	21888
877.29	21911
877.418	22017
877.546	21922
877.674	21869
877.802	21987
877.93	21964
878.058	21861
878.185	21831
878.313	21915
878.441	21960
878.568	21736
878.696	21915
878.824	21907
878.951	22044
879.079	22143
879.206	22230
879.333	22120
879.461	21895
879.588	22090
879.715	22078
879.842	22135
879.97	21972
880.097	21857
880.224	21816
880.351	21774
880.478	21743
880.605	21694
880.732	21797
880.859	21949
880.986	21648
881.112	21633
881.239	21595
881.366	21568
881.493	21477
881.619	21310
881.746	21332
881.872	21405
881.999	21283
882.125	21382
882.252	21329
882.378	21332
882.505	21389
882.631	21260
882.757	21093
882.883	21135
883.01	21108
883.136	20971
883.262	20914
883.388	20823
883.514	21085
883.64	21032
883.766	20986
883.892	20895
884.018	20811
884.143	20979
884.269	21013
884.395	20743
884.52	20701
884.646	20735
884.772	20636
884.897	20701
885.023	20701
885.148	20682
885.274	20758
885.399	20769
885.524	20712
885.65	20705
885.775	20712
885.9	20613
886.025	20765
886.15	20739
886.275	20629
886.4	20606
886.525	20522
886.65	20689
886.775	20609
886.9	20800
887.025	20887
887.149	20686
887.274	20442
887.399	20461
887.523	20465
887.648	20385
887.773	20385
887.897	20438
888.021	20530
888.146	20526
888.27	20560
888.395	20533
888.519	20499
888.643	20442
888.767	20549
888.891	20336
889.015	20278
889.139	20248
889.263	20286
889.387	20492
889.511	20465
889.635	20427
889.759	20290
889.883	20290
890.006	20317
890.13	20492
890.254	20126
890.377	20138
890.501	20012
890.624	19978
890.748	20088
890.871	19951
890.995	19772
891.118	19708
891.241	19883
891.364	19826
891.488	19993
891.611	19997
891.734	19833
891.857	19902
891.98	19864
892.103	19883
892.226	19841
892.349	19902
892.471	19575
892.594	19769
892.717	19849
892.839	19731
892.962	19830
893.085	19776
893.207	19765
893.33	19769
893.452	19666
893.575	19769
893.697	19674
893.819	19947
893.941	19913
894.064	19909
894.186	19811
894.308	19548
894.43	19811
894.552	19959
894.674	19852
894.796	19597
894.918	19715
895.04	19753
895.161	19837
895.283	19791
895.405	19662
895.526	19700
895.648	19696
895.769	19742
895.891	19909
896.012	19856
896.134	19856
896.255	19765
896.376	19635
896.498	19864
896.619	19837
896.74	19769
896.861	19791
896.982	20050
897.103	20206
897.224	20020
897.345	19982
897.466	19970
897.587	19989
897.708	20096
897.828	19986
897.949	19951
898.07	19750
898.19	19928
898.311	20081
898.431	19913
898.552	19955
898.672	20103
898.792	20077
898.913	20027
899.033	19921
899.153	19795
899.273	19670
899.393	19784
899.513	19727
899.633	19712
899.753	19826
899.873	19750
899.993	19677
900.113	19658
900.232	19708
900.352	19708
900.472	19559
900.591	19449
900.711	19658
900.83	19441
900.95	19491
901.069	19514
901.189	19381
901.308	19148
901.427	19080
901.546	19206
901.665	19050
901.784	19107
901.904	19000
902.023	18878
902.141	18688
902.26	18589
902.379	18749
902.498	18555
902.617	18719
902.735	18722
902.854	18589
902.973	18525
903.091	18384
903.21	18403
903.328	18342
903.446	18319
903.565	18072
903.683	18194
903.801	17973
903.919	18117
904.038	18125
904.156	17752
904.274	17931
904.392	17893
904.51	17923
904.627	17878
904.745	18034
904.863	17954
904.981	17539
905.098	17581
905.216	17649
905.334	17585
905.451	17558
905.569	17486
905.686	17535
905.803	17615
905.921	17269
906.038	17459
906.155	17299
906.272	17307
906.389	17345
906.506	17124
906.623	17067
906.74	17105
906.857	17010
906.974	16980
907.091	17067
907.208	17185
907.324	17014
907.441	16984
907.557	16862
907.674	16790
907.79	16782
907.907	16790
908.023	16854
908.139	16847
908.256	16752
908.372	16679
908.488	16717
908.604	16573
908.72	16599
908.836	16592
908.952	16538
909.068	16523
909.184	16611
909.3	16531
909.415	16618
909.531	16478
909.647	16299
909.762	16226
909.878	16147
909.993	16310
910.108	16211
910.224	16185
910.339	16219
910.454	16185
910.57	16139
910.685	15987
910.8	16242
910.915	16124
911.03	16082
911.145	15880
911.259	15895
911.374	15789
911.489	15709
911.604	15781
911.718	15549
911.833	15652
911.947	15523
912.062	15378
912.176	15564
912.291	15576
912.405	15538
912.519	15831
912.633	15728
912.748	15736
912.862	15610
912.976	15424
913.09	15321
913.204	15386
913.318	15332
913.431	15511
913.545	15481
913.659	15488
913.772	15348
913.886	15233
914	15146
914.113	15363
914.226	15310
914.34	15367
914.453	15085
914.566	15302
914.68	15062
914.793	15062
914.906	14876
915.019	14826
915.132	14708
915.245	14819
915.358	14906
915.47	14815
915.583	14861
915.696	14796
915.809	15017
915.921	14891
916.034	14731
916.146	14708
916.259	14689
916.371	14823
916.483	14750
916.595	14644
916.708	14678
916.82	14636
916.932	14651
917.044	14644
917.156	14613
917.268	14457
917.38	14492
917.491	14476
917.603	14419
917.715	14621
917.826	14602
917.938	14370
918.049	14317
918.161	14370
918.272	14644
918.384	14617
918.495	14412
918.606	14320
918.717	14142
918.828	14259
918.939	14271
919.05	14149
919.161	14229
919.272	14016
919.383	14050
919.494	14267
919.604	14400
919.715	14237
919.826	14138
919.936	14191
920.047	14404
920.157	14339
920.267	14415
920.378	14225
920.488	14237
920.598	14385
920.708	14396
920.818	14347
920.928	14328
921.038	14499
921.148	14362
921.258	14123
921.368	14077
921.477	13925
921.587	14008
921.697	13902
921.806	13955
921.916	13822
922.025	13670
922.134	13525
922.244	13578
922.353	13685
922.462	13460
922.571	13388
922.68	13255
922.789	13316
922.898	13251
923.007	13213
923.116	13251
923.224	13255
923.333	13213
923.442	13156
923.55	13023
923.659	13103
923.767	13091
923.876	13053
923.984	13034
924.092	13080
924.201	13012
924.309	12962
924.417	13072
924.525	12958
924.633	12905
924.741	13856
924.849	12779
924.956	12821
925.064	12711
925.172	12684
925.279	12662
925.387	12734
925.494	12722
925.602	12749
925.709	12753
925.816	12555
925.924	12578
926.031	12753
926.138	12627
926.245	12673
926.352	12563
926.459	12563
926.566	12772
926.673	12490
926.779	12570
926.886	12456
926.993	12429
927.099	12308
927.206	12273
927.312	12243
927.419	12228
927.525	12342
927.631	12254
927.737	12076
927.843	12155
927.95	11984
928.056	12049
928.162	12152
928.267	12121
928.373	12719
928.479	12205
928.585	11977
928.69	12045
928.796	12060
928.901	11874
929.007	11817
929.112	11927
929.218	11916
929.323	11874
929.428	11767
929.533	11988
929.638	11672
929.743	11790
929.848	11790
929.953	11714
930.058	11608
930.163	11554
930.267	11520
930.372	11554
930.477	11516
930.581	11680
930.685	11573
930.79	11353
930.894	11478
930.998	11330
931.103	11501
931.207	11204
931.311	11064
931.415	11018
931.519	10873
931.623	10763
