Data from test_V78500241_2095.txt Node
Date: Fri Mar 25 15:24:26 CST 2022
User: usil
Spectrometer: V785-0024
Trigger mode: 0
Integration Time (sec): 4.000000E-1
Scans to average: 1
Nonlinearity correction enabled: false
Boxcar width: 0
Storing dark spectrum: false
XAxis mode: Wavelengths
Number of Pixels in Spectrum: 1024
>>>>>Begin Spectral Data<<<<<
801.071	27838
801.214	27789
801.356	27610
801.499	27447
801.641	27332
801.783	27245
801.926	27466
802.068	27450
802.211	27329
802.353	27340
802.496	27074
802.638	27066
802.78	27142
802.923	26861
803.065	26902
803.208	27024
803.35	27062
803.492	27127
803.635	27135
803.777	27184
803.919	27161
804.061	27458
804.204	27241
804.346	27195
804.488	27233
804.63	27264
804.773	27287
804.915	27192
805.057	27344
805.199	27283
805.341	27321
805.483	27310
805.626	27329
805.768	27245
805.91	27370
806.052	27389
806.194	27272
806.336	27557
806.478	27466
806.62	27408
806.762	27447
806.904	27660
807.046	27793
807.188	27850
807.33	27778
807.472	27876
807.614	27675
807.756	27827
807.898	27679
808.04	27610
808.182	27633
808.324	27606
808.465	27804
808.607	27789
808.749	27994
808.891	28185
809.033	28162
809.174	28036
809.316	27876
809.458	27994
809.6	27922
809.741	28124
809.883	28200
810.025	28318
810.166	28276
810.308	28291
810.45	28249
810.591	28154
810.733	28120
810.875	27899
811.016	27884
811.158	27926
811.299	28040
811.441	28044
811.582	28021
811.724	27991
811.865	27945
812.007	27899
812.148	28002
812.29	28051
812.431	28173
812.573	28310
812.714	28295
812.855	28584
812.997	28584
813.138	28797
813.279	28557
813.421	28599
813.562	28367
813.703	28287
813.845	28230
813.986	27835
814.127	27884
814.268	27606
814.41	27793
814.551	27701
814.692	27625
814.833	27785
814.974	27728
815.115	27682
815.256	27511
815.397	27545
815.539	27583
815.68	27553
815.821	27291
815.962	27496
816.103	27500
816.244	27245
816.385	27283
816.526	27222
816.666	27028
816.807	26967
816.948	27062
817.089	27123
817.23	26979
817.371	26952
817.512	26963
817.653	26986
817.793	26929
817.934	26868
818.075	26960
818.216	26979
818.356	26994
818.497	26746
818.638	26746
818.778	26739
818.919	26735
819.06	26750
819.2	26880
819.341	26960
819.481	26963
819.622	27096
819.762	27260
819.903	27237
820.043	27150
820.184	27108
820.324	27081
820.465	27104
820.605	26952
820.746	26998
820.886	27081
821.026	26948
821.167	27013
821.307	27256
821.447	27070
821.588	26781
821.728	26708
821.868	26708
822.008	26473
822.149	26446
822.289	26271
822.429	26202
822.569	26164
822.709	26103
822.849	25890
822.99	25986
823.13	25936
823.27	25913
823.41	25685
823.55	25803
823.69	25753
823.83	25830
823.97	25791
824.11	25575
824.25	25544
824.389	25578
824.529	25700
824.669	25594
824.809	25723
824.949	25674
825.089	25658
825.228	25544
825.368	25445
825.508	25468
825.648	25476
825.787	25632
825.927	25510
826.067	25396
826.206	25293
826.346	25571
826.485	25396
826.625	25365
826.765	25540
826.904	25441
827.044	25278
827.183	25175
827.323	25080
827.462	25320
827.601	25152
827.741	25179
827.88	25156
828.02	25061
828.159	25206
828.298	24996
828.437	25133
828.577	25046
828.716	25335
828.855	24894
828.994	24817
829.134	24810
829.273	24958
829.412	24935
829.551	24798
829.69	24768
829.829	24939
829.968	24867
830.107	24901
830.246	24924
830.385	24852
830.524	24635
830.663	24665
830.802	24505
830.941	24456
831.08	24346
831.219	24547
831.357	24601
831.496	24719
831.635	24486
831.774	24407
831.913	24391
832.051	24159
832.19	24327
832.329	24270
832.467	24243
832.606	24114
832.744	24095
832.883	24197
833.022	24182
833.16	24106
833.299	24171
833.437	24235
833.576	24235
833.714	24038
833.852	24201
833.991	24232
834.129	24197
834.267	24251
834.406	24167
834.544	24201
834.682	24064
834.821	24209
834.959	24426
835.097	24148
835.235	24144
835.373	24140
835.511	24098
835.65	24034
835.788	24007
835.926	23958
836.064	23889
836.202	23908
836.34	24030
836.478	23999
836.615	23950
836.753	23977
836.891	24083
837.029	23946
837.167	23973
837.305	23950
837.443	24018
837.58	23889
837.718	24114
837.856	23874
837.993	23813
838.131	23923
838.269	23737
838.406	23668
838.544	23703
838.681	23543
838.819	23497
838.956	23326
839.094	23318
839.231	23315
839.369	23570
839.506	23756
839.643	23691
839.781	23318
839.918	23280
840.055	23349
840.193	23330
840.33	23280
840.467	23242
840.604	23189
840.742	23436
840.879	23037
841.016	23143
841.153	23174
841.29	23368
841.427	23292
841.564	23315
841.701	23265
841.838	23220
841.975	23090
842.112	23223
842.249	23071
842.385	22927
842.522	23296
842.659	23140
842.796	22980
842.933	23052
843.069	22991
843.206	22885
843.343	23121
843.479	23048
843.616	23044
843.752	22812
843.889	22816
844.025	22961
844.162	22790
844.298	22896
844.435	22824
844.571	22672
844.708	22835
844.844	22873
844.98	22877
845.117	22976
845.253	22618
845.389	22675
845.525	22767
845.661	22683
845.798	22504
845.934	22573
846.07	22523
846.206	22546
846.342	22615
846.478	22443
846.614	22371
846.75	22120
846.886	22230
847.022	22428
847.158	22371
847.294	22303
847.429	22280
847.565	22082
847.701	22447
847.837	22006
847.972	21895
848.108	22040
848.244	22036
848.379	21850
848.515	21785
848.65	21884
848.786	21781
848.921	21911
849.057	21926
849.192	21972
849.328	21876
849.463	21873
849.598	21762
849.734	21743
849.869	21732
850.004	21637
850.14	21599
850.275	21652
850.41	21507
850.545	21633
850.68	21603
850.815	21686
850.95	21568
851.085	21743
851.22	21755
851.355	21660
851.49	21663
851.625	21595
851.76	21458
851.895	21545
852.03	21374
852.165	21462
852.299	21496
852.434	21698
852.569	21561
852.703	21656
852.838	21622
852.973	21717
853.107	21781
853.242	21530
853.376	21416
853.511	21336
853.645	21344
853.78	21542
853.914	21416
854.048	21378
854.183	21424
854.317	21386
854.451	21587
854.585	21416
854.72	21424
854.854	21401
854.988	21268
855.122	21485
855.256	21260
855.39	21291
855.524	21412
855.658	21466
855.792	21428
855.926	21340
856.06	21462
856.194	21469
856.327	21405
856.461	21355
856.595	21431
856.729	21504
856.862	21545
856.996	21294
857.13	21428
857.263	21534
857.397	21515
857.53	21401
857.664	21477
857.797	21496
857.931	21641
858.064	21374
858.197	21466
858.331	21351
858.464	21332
858.597	21378
858.731	21454
858.864	21306
858.997	21454
859.13	21412
859.263	21370
859.396	21351
859.529	21439
859.662	21306
859.795	21355
859.928	21416
860.061	21549
860.194	21576
860.327	21408
860.46	21511
860.592	21466
860.725	21641
860.858	21675
860.99	21405
861.123	21336
861.256	21348
861.388	21397
861.521	22044
861.653	21348
861.786	21146
861.918	21207
862.05	21142
862.183	21378
862.315	21310
862.447	21382
862.58	21332
862.712	21268
862.844	21058
862.976	21275
863.108	21283
863.24	21454
863.372	20944
863.504	21180
863.636	21207
863.768	20990
863.9	21112
864.032	21024
864.164	21142
864.296	21173
864.428	21203
864.559	21123
864.691	21146
864.823	21138
864.954	21131
865.086	21146
865.217	20971
865.349	20921
865.48	21089
865.612	20979
865.743	21055
865.875	21112
866.006	20929
866.137	20906
866.269	20842
866.4	20948
866.531	20902
866.662	20925
866.793	20906
866.924	20895
867.055	21032
867.186	20990
867.317	20918
867.448	20994
867.579	20902
867.71	20899
867.841	20823
867.972	20921
868.103	21020
868.233	20982
868.364	20944
868.495	20979
868.625	21104
868.756	21302
868.886	21074
869.017	21188
869.147	21351
869.278	21325
869.408	21207
869.539	21192
869.669	21169
869.799	21237
869.929	21264
870.06	21283
870.19	21496
870.32	21458
870.45	21496
870.58	21454
870.71	21679
870.84	21606
870.97	21538
871.1	21515
871.23	21755
871.36	21865
871.489	21671
871.619	21739
871.749	21656
871.879	21835
872.008	21880
872.138	21698
872.267	21831
872.397	21686
872.526	21553
872.656	21587
872.785	21580
872.915	21873
873.044	21876
873.173	21812
873.303	21953
873.432	21827
873.561	21972
873.69	21800
873.819	21793
873.948	21895
874.077	21728
874.206	21679
874.335	21797
874.464	21907
874.593	22017
874.722	21831
874.851	22055
874.979	22013
875.108	21972
875.237	22021
875.365	21892
875.494	22013
875.623	22010
875.751	22032
875.88	21968
876.008	22169
876.136	22143
876.265	22398
876.393	22413
876.521	22603
876.65	22485
876.778	22413
876.906	22295
877.034	22436
877.162	22367
877.29	22329
877.418	22333
877.546	22265
877.674	22363
877.802	22443
877.93	22363
878.058	22287
878.185	22181
878.313	22337
878.441	22284
878.568	22280
878.696	22291
878.824	22455
878.951	22394
879.079	22459
879.206	22767
879.333	22451
879.461	22481
879.588	22417
879.715	22470
879.842	22546
879.97	22462
880.097	22238
880.224	22303
880.351	22402
880.478	22238
880.605	22139
880.732	22112
880.859	22440
880.986	22173
881.112	22246
881.239	22086
881.366	21770
881.493	21934
881.619	21781
881.746	21831
881.872	21720
881.999	21736
882.125	21785
882.252	21755
882.378	21705
882.505	21876
882.631	21641
882.757	21370
882.883	21473
883.01	21591
883.136	21370
883.262	21279
883.388	21313
883.514	21477
883.64	21466
883.766	21332
883.892	21119
884.018	21233
884.143	21523
884.269	21435
884.395	21252
884.52	21081
884.646	21184
884.772	21112
884.897	21036
885.023	21096
885.148	21214
885.274	21298
885.399	21325
885.524	21146
885.65	21214
885.775	21077
885.9	21161
886.025	21245
886.15	21150
886.275	21131
886.4	21020
886.525	21184
886.65	20960
886.775	21039
886.9	21157
887.025	21344
887.149	21051
887.274	20948
887.399	20910
887.523	20861
887.648	20823
887.773	20667
887.897	21013
888.021	20880
888.146	20823
888.27	21017
888.395	20914
888.519	20788
888.643	20963
888.767	20933
888.891	20785
889.015	20644
889.139	20689
889.263	20708
889.387	20773
889.511	20864
889.635	20807
889.759	20731
889.883	20724
890.006	20670
890.13	20727
890.254	20518
890.377	20609
890.501	20408
890.624	20389
890.748	20465
890.871	20370
890.995	20275
891.118	20153
891.241	20180
891.364	20339
891.488	20385
891.611	20195
891.734	20183
891.857	20309
891.98	20195
892.103	20191
892.226	20278
892.349	20183
892.471	19993
892.594	20161
892.717	20058
892.839	20164
892.962	20176
893.085	20252
893.207	20103
893.33	20046
893.452	19947
893.575	20157
893.697	19959
893.819	20324
893.941	20305
894.064	20233
894.186	20084
894.308	19989
894.43	20016
894.552	20320
894.674	20161
894.796	19932
894.918	19993
895.04	20012
895.161	20168
895.283	20115
895.405	20111
895.526	20145
895.648	20020
895.769	20214
895.891	20180
896.012	20256
896.134	20134
896.255	20206
896.376	20149
896.498	20088
896.619	20195
896.74	20115
896.861	20195
896.982	20575
897.103	20556
897.224	20461
897.345	20374
897.466	20305
897.587	20301
897.708	20507
897.828	20495
897.949	20366
898.07	20157
898.19	20290
898.311	20499
898.431	20237
898.552	20294
898.672	20336
898.792	20442
898.913	20393
899.033	20305
899.153	20115
899.273	20016
899.393	20134
899.513	20130
899.633	20153
899.753	20122
899.873	20073
899.993	20119
900.113	20008
900.232	20069
900.352	20043
900.472	19917
900.591	19830
900.711	19909
900.83	19818
900.95	19928
901.069	19890
901.189	19772
901.308	19616
901.427	19495
901.546	19601
901.665	19502
901.784	19468
901.904	19358
902.023	19232
902.141	19129
902.26	18970
902.379	19145
902.498	19000
902.617	18913
902.735	19072
902.854	18913
902.973	18954
903.091	18757
903.21	18776
903.328	18623
903.446	18532
903.565	18563
903.683	18475
903.801	18289
903.919	18460
904.038	18418
904.156	18194
904.274	18266
904.392	18182
904.51	18327
904.627	18209
904.745	18296
904.863	18155
904.981	18011
905.098	17942
905.216	17764
905.334	17954
905.451	18007
905.569	17855
905.686	17950
905.803	17863
905.921	17638
906.038	17752
906.155	17699
906.272	17581
906.389	17627
906.506	17433
906.623	17490
906.74	17322
906.857	17296
906.974	17258
907.091	17505
907.208	17459
907.324	17444
907.441	17406
907.557	17166
907.674	17079
907.79	17075
907.907	17029
908.023	17265
908.139	17155
908.256	17124
908.372	17041
908.488	17048
908.604	16896
908.72	16835
908.836	16847
908.952	16862
909.068	16824
909.184	16908
909.3	16805
909.415	16911
909.531	16866
909.647	16656
909.762	16618
909.878	16550
909.993	16535
910.108	16580
910.224	16569
910.339	16577
910.454	16462
910.57	16382
910.685	16405
910.8	16519
910.915	16356
911.03	16299
911.145	16200
911.259	16280
911.374	16234
911.489	16150
911.604	16040
911.718	15975
911.833	15876
911.947	15804
912.062	15705
912.176	15804
912.291	15949
912.405	15888
912.519	15991
912.633	16105
912.748	15949
912.862	15892
912.976	15800
913.09	15660
913.204	15648
913.318	15682
913.431	15816
913.545	15739
913.659	15816
913.772	15778
913.886	15511
914	15488
914.113	15614
914.226	15595
914.34	15542
914.453	15466
914.566	15523
914.68	15363
914.793	15378
914.906	15199
915.019	15203
915.132	15062
915.245	15154
915.358	15097
915.47	15146
915.583	15116
915.696	15207
915.809	15169
915.921	15264
916.034	15089
916.146	15051
916.259	15036
916.371	15001
916.483	15020
916.595	14902
916.708	14952
916.82	15013
916.932	14941
917.044	14845
917.156	14910
917.268	14830
917.38	14864
917.491	14819
917.603	14876
917.715	14853
917.826	14914
917.938	14727
918.049	14678
918.161	14701
918.272	14849
918.384	14830
918.495	14644
918.606	14537
918.717	14389
918.828	14575
918.939	14518
919.05	14396
919.161	14579
919.272	14370
919.383	14355
919.494	14598
919.604	14708
919.715	14556
919.826	14370
919.936	14587
920.047	14522
920.157	14514
920.267	14667
920.378	14434
920.488	14377
920.598	14625
920.708	14811
920.818	14659
920.928	14651
921.038	14857
921.148	14758
921.258	14526
921.368	14313
921.477	14309
921.587	14202
921.697	14096
921.806	14298
921.916	14062
922.025	13871
922.134	13849
922.244	13860
922.353	13898
922.462	13738
922.571	13761
922.68	13601
922.789	13529
922.898	13518
923.007	13491
923.116	13529
923.224	13521
923.333	13483
923.442	13365
923.55	13346
923.659	13304
923.767	13407
923.876	13247
923.984	13514
924.092	13198
924.201	13392
924.309	13327
924.417	13266
924.525	13129
924.633	13228
924.741	13955
924.849	13053
924.956	13118
925.064	12962
925.172	12776
925.279	12928
925.387	12985
925.494	12935
925.602	13034
925.709	13015
925.816	12871
925.924	12817
926.031	13012
926.138	12932
926.245	12886
926.352	12837
926.459	12871
926.566	12928
926.673	12844
926.779	12715
926.886	12738
926.993	12570
927.099	12540
927.206	12384
927.312	12464
927.419	12540
927.525	12498
927.631	12570
927.737	12372
927.843	12289
927.95	12270
928.056	12357
928.162	12330
928.267	12350
928.373	12966
928.479	12384
928.585	12121
928.69	12273
928.796	12346
928.901	12247
929.007	12015
929.112	12258
929.218	12167
929.323	12064
929.428	12038
929.533	12159
929.638	11984
929.743	12095
929.848	11920
929.953	12041
930.058	11939
930.163	11851
930.267	11764
930.372	11897
930.477	11661
930.581	11828
930.685	11821
930.79	11676
930.894	11665
930.998	11566
931.103	11714
931.207	11360
931.311	11292
931.415	11159
931.519	10991
931.623	11033
