Data from test_V78500241_782.txt Node
Date: Fri Mar 25 15:15:18 CST 2022
User: usil
Spectrometer: V785-0024
Trigger mode: 0
Integration Time (sec): 4.000000E-1
Scans to average: 1
Nonlinearity correction enabled: false
Boxcar width: 0
Storing dark spectrum: false
XAxis mode: Wavelengths
Number of Pixels in Spectrum: 1024
>>>>>Begin Spectral Data<<<<<
801.071	28367
801.214	28196
801.356	28120
801.499	28078
801.641	27831
801.783	27914
801.926	27884
802.068	27823
802.211	27728
802.353	27622
802.496	27572
802.638	27530
802.78	27420
802.923	27545
803.065	27481
803.208	27553
803.35	27466
803.492	27492
803.635	27774
803.777	27530
803.919	27789
804.061	27934
804.204	27804
804.346	27587
804.488	27648
804.63	27648
804.773	27564
804.915	27686
805.057	27953
805.199	27793
805.341	27694
805.483	27956
805.626	27808
805.768	27686
805.91	27842
806.052	27926
806.194	27930
806.336	28025
806.478	27956
806.62	27983
806.762	28051
806.904	28131
807.046	28455
807.188	28341
807.33	28215
807.472	28287
807.614	28268
807.756	28481
807.898	28105
808.04	28112
808.182	28143
808.324	28173
808.465	28135
808.607	28333
808.749	28508
808.891	28736
809.033	28698
809.174	28538
809.316	28691
809.458	28637
809.6	28611
809.741	28763
809.883	28683
810.025	28858
810.166	28831
810.308	28991
810.45	28824
810.591	28824
810.733	28596
810.875	28557
811.016	28417
811.158	28382
811.299	28656
811.441	28698
811.582	28672
811.724	28504
811.865	28424
812.007	28603
812.148	28443
812.29	28531
812.431	28733
812.573	28923
812.714	29018
812.855	29124
812.997	29223
813.138	29368
813.279	29387
813.421	29060
813.562	29090
813.703	28965
813.845	28866
813.986	28588
814.127	28474
814.268	28238
814.41	28234
814.551	28215
814.692	28386
814.833	28265
814.974	28097
815.115	28379
815.256	28234
815.397	28158
815.539	28128
815.68	28067
815.821	27998
815.962	28112
816.103	28055
816.244	27953
816.385	27800
816.526	27770
816.666	27587
816.807	27553
816.948	27656
817.089	27717
817.23	27637
817.371	27652
817.512	27519
817.653	27663
817.793	27523
817.934	27583
818.075	27557
818.216	27561
818.356	27564
818.497	27549
818.638	27291
818.778	27291
818.919	27313
819.06	27367
819.2	27549
819.341	27622
819.481	27633
819.622	27709
819.762	27968
819.903	27812
820.043	27713
820.184	27732
820.324	27637
820.465	27747
820.605	27755
820.746	27736
820.886	27485
821.026	27663
821.167	27671
821.307	27743
821.447	27530
821.588	27504
821.728	27370
821.868	27192
822.008	27093
822.149	27005
822.289	27020
822.429	26773
822.569	26739
822.709	26731
822.849	26457
822.99	26530
823.13	26560
823.27	26484
823.41	26408
823.55	26233
823.69	26309
823.83	26343
823.97	26412
824.11	26233
824.25	26187
824.389	26180
824.529	26339
824.669	26332
824.809	26404
824.949	26355
825.089	26282
825.228	26366
825.368	26145
825.508	26214
825.648	26153
825.787	26301
825.927	26294
826.067	26168
826.206	26035
826.346	26161
826.485	26256
826.625	26115
826.765	26237
826.904	26214
827.044	25875
827.183	25986
827.323	25677
827.462	25898
827.601	25909
827.741	25765
827.88	25822
828.02	25837
828.159	25799
828.298	25845
828.437	25909
828.577	25700
828.716	25986
828.855	25624
828.994	25533
829.134	25373
829.273	25556
829.412	25483
829.551	25457
829.69	25552
829.829	25597
829.968	25628
830.107	25479
830.246	25575
830.385	25434
830.524	25510
830.663	25354
830.802	25263
830.941	25175
831.08	25145
831.219	25187
831.357	25122
831.496	25365
831.635	25148
831.774	25110
831.913	25000
832.051	24894
832.19	24928
832.329	24859
832.467	24890
832.606	24681
832.744	24684
832.883	24852
833.022	24791
833.16	24825
833.299	24913
833.437	24916
833.576	24935
833.714	24924
833.852	24916
833.991	24932
834.129	25061
834.267	24913
834.406	24863
834.544	24844
834.682	24859
834.821	24757
834.959	24970
835.097	24875
835.235	24840
835.373	24814
835.511	24859
835.65	24669
835.788	24734
835.926	24460
836.064	24589
836.202	24555
836.34	24795
836.478	24798
836.615	24749
836.753	24688
836.891	24681
837.029	24642
837.167	24563
837.305	24665
837.443	24582
837.58	24601
837.718	24650
837.856	24547
837.993	24547
838.131	24467
838.269	24460
838.406	24471
838.544	24422
838.681	24194
838.819	24110
838.956	24098
839.094	24057
839.231	23973
839.369	24144
839.506	24372
839.643	24144
839.781	24091
839.918	23969
840.055	23954
840.193	23832
840.33	23946
840.467	23878
840.604	23969
840.742	24258
840.879	23817
841.016	23859
841.153	23783
841.29	24003
841.427	23965
841.564	23889
841.701	23969
841.838	23851
841.975	23737
842.112	23672
842.249	23668
842.385	23695
842.522	23863
842.659	23832
842.796	23528
842.933	23520
843.069	23592
843.206	23573
843.343	23665
843.479	23722
843.616	23551
843.752	23440
843.889	23395
844.025	23577
844.162	23425
844.298	23455
844.435	23379
844.571	23391
844.708	23444
844.844	23676
844.98	23505
845.117	23486
845.253	23341
845.389	23341
845.525	23372
845.661	23223
845.798	23128
845.934	23090
846.07	23083
846.206	23079
846.342	23216
846.478	23105
846.614	22908
846.75	22854
846.886	22934
847.022	22911
847.158	22881
847.294	22873
847.429	22942
847.565	22938
847.701	23098
847.837	22698
847.972	22645
848.108	22675
848.244	22717
848.379	22554
848.515	22451
848.65	22531
848.786	22538
848.921	22440
849.057	22516
849.192	22573
849.328	22478
849.463	22462
849.598	22386
849.734	22390
849.869	22284
850.004	22257
850.14	22143
850.275	22318
850.41	22207
850.545	22101
850.68	22131
850.815	22280
850.95	22238
851.085	22390
851.22	22360
851.355	22238
851.49	22139
851.625	22112
851.76	22207
851.895	22013
852.03	22082
852.165	22147
852.299	22333
852.434	22257
852.569	22268
852.703	22158
852.838	22249
852.973	22440
853.107	22344
853.242	22154
853.376	22124
853.511	21953
853.645	21975
853.78	22105
853.914	22013
854.048	22029
854.183	22025
854.317	22029
854.451	22238
854.585	22059
854.72	22143
854.854	22166
854.988	21968
855.122	22192
855.256	21960
855.39	22070
855.524	22063
855.658	22063
855.792	22032
855.926	22116
856.06	22139
856.194	22131
856.327	22006
856.461	21964
856.595	21945
856.729	22097
856.862	22109
856.996	22185
857.13	22067
857.263	22196
857.397	22169
857.53	22112
857.664	22013
857.797	22101
857.931	22204
858.064	21991
858.197	22055
858.331	22086
858.464	21953
858.597	21808
858.731	21934
858.864	22017
858.997	22055
859.13	22082
859.263	22059
859.396	22032
859.529	22029
859.662	22029
859.795	21956
859.928	22067
860.061	22234
860.194	22101
860.327	22112
860.46	21968
860.592	22131
860.725	22295
860.858	22112
860.99	21926
861.123	21945
861.256	21880
861.388	21972
861.521	22713
861.653	21956
861.786	21907
861.918	21835
862.05	21926
862.183	21918
862.315	21953
862.447	22029
862.58	21937
862.712	21724
862.844	21625
862.976	21774
863.108	21808
863.24	22234
863.372	21614
863.504	21778
863.636	21591
863.768	21774
863.9	21804
864.032	21648
864.164	21641
864.296	21747
864.428	21827
864.559	21785
864.691	21838
864.823	21713
864.954	21671
865.086	21671
865.217	21507
865.349	21435
865.48	21504
865.612	21663
865.743	21679
865.875	21720
866.006	21595
866.137	21641
866.269	21747
866.4	21633
866.531	21599
866.662	21515
866.793	21587
866.924	21576
867.055	21534
867.186	21504
867.317	21378
867.448	21340
867.579	21481
867.71	21428
867.841	21424
867.972	21583
868.103	21648
868.233	21481
868.364	21610
868.495	21587
868.625	21857
868.756	21964
868.886	21595
869.017	21739
869.147	21808
869.278	21880
869.408	21686
869.539	21880
869.669	21884
869.799	21766
869.929	21918
870.06	21915
870.19	22109
870.32	22055
870.45	22124
870.58	22135
870.71	22265
870.84	22207
870.97	22036
871.1	22204
871.23	22253
871.36	22455
871.489	22238
871.619	22382
871.749	22371
871.879	22436
872.008	22451
872.138	22360
872.267	22314
872.397	22295
872.526	22120
872.656	22280
872.785	22131
872.915	22382
873.044	22455
873.173	22310
873.303	22394
873.432	22402
873.561	22565
873.69	22310
873.819	22390
873.948	22440
874.077	22413
874.206	22360
874.335	22306
874.464	22344
874.593	22493
874.722	22554
874.851	22580
874.979	22577
875.108	22641
875.237	22554
875.365	22603
875.494	22527
875.623	22611
875.751	22542
875.88	22615
876.008	22881
876.136	22896
876.265	22953
876.393	23044
876.521	23140
876.65	22995
876.778	23003
876.906	22927
877.034	22862
877.162	22858
877.29	22850
877.418	22873
877.546	22812
877.674	23079
877.802	22999
877.93	22942
878.058	22915
878.185	22793
878.313	22911
878.441	22824
878.568	22767
878.696	22896
878.824	22843
878.951	22991
879.079	23025
879.206	23292
879.333	23060
879.461	22900
879.588	23029
879.715	23159
879.842	23197
879.97	23018
880.097	22733
880.224	22793
880.351	22816
880.478	22683
880.605	22725
880.732	22694
880.859	23022
880.986	22805
881.112	22740
881.239	22641
881.366	22500
881.493	22379
881.619	22337
881.746	22440
881.872	22390
881.999	22257
882.125	22367
882.252	22322
882.378	22341
882.505	22413
882.631	22169
882.757	22051
882.883	21987
883.01	22124
883.136	22029
883.262	21854
883.388	21838
883.514	21934
883.64	22105
883.766	21941
883.892	21728
884.018	21739
884.143	21953
884.269	21953
884.395	21633
884.52	21637
884.646	21629
884.772	21625
884.897	21652
885.023	21682
885.148	21720
885.274	21865
885.399	21755
885.524	21644
885.65	21679
885.775	21682
885.9	21557
886.025	21709
886.15	21800
886.275	21564
886.4	21583
886.525	21709
886.65	21564
886.775	21511
886.9	21781
887.025	21846
887.149	21576
887.274	21466
887.399	21492
887.523	21386
887.648	21416
887.773	21332
887.897	21462
888.021	21492
888.146	21397
888.27	21511
888.395	21637
888.519	21431
888.643	21534
888.767	21553
888.891	21332
889.015	21127
889.139	21329
889.263	21173
889.387	21275
889.511	21370
889.635	21405
889.759	21157
889.883	21142
890.006	21211
890.13	21272
890.254	21264
890.377	21043
890.501	20880
890.624	20785
890.748	21009
890.871	20861
890.995	20697
891.118	20693
891.241	20819
891.364	20644
891.488	20842
891.611	20659
891.734	20682
891.857	20777
891.98	20815
892.103	20712
892.226	20670
892.349	20678
892.471	20473
892.594	20686
892.717	20765
892.839	20693
892.962	20731
893.085	20792
893.207	20720
893.33	20625
893.452	20571
893.575	20777
893.697	20492
893.819	20765
893.941	20773
894.064	20682
894.186	20602
894.308	20518
894.43	20750
894.552	20788
894.674	20731
894.796	20564
894.918	20598
895.04	20632
895.161	20720
895.283	20693
895.405	20526
895.526	20644
895.648	20632
895.769	20644
895.891	20743
896.012	20693
896.134	20617
896.255	20705
896.376	20621
896.498	20697
896.619	20758
896.74	20606
896.861	20674
896.982	21032
897.103	21058
897.224	20967
897.345	20876
897.466	20746
897.587	20857
897.708	21043
897.828	20716
897.949	20739
898.07	20708
898.19	20697
898.311	20842
898.431	20731
898.552	20853
898.672	20819
898.792	20967
898.913	20826
899.033	20739
899.153	20731
899.273	20579
899.393	20609
899.513	20579
899.633	20514
899.753	20667
899.873	20518
899.993	20530
900.113	20476
900.232	20549
900.352	20503
900.472	20339
900.591	20370
900.711	20347
900.83	20259
900.95	20362
901.069	20419
901.189	20240
901.308	19917
901.427	19921
901.546	20005
901.665	19970
901.784	19906
901.904	19772
902.023	19643
902.141	19647
902.26	19449
902.379	19445
902.498	19434
902.617	19415
902.735	19373
902.854	19320
902.973	19343
903.091	19221
903.21	19160
903.328	19164
903.446	18973
903.565	18939
903.683	19012
903.801	18719
903.919	18825
904.038	18973
904.156	18726
904.274	18757
904.392	18764
904.51	18661
904.627	18654
904.745	18738
904.863	18692
904.981	18437
905.098	18410
905.216	18372
905.334	18319
905.451	18300
905.569	18300
905.686	18380
905.803	18273
905.921	18079
906.038	18129
906.155	18174
906.272	18064
906.389	18045
906.506	17863
906.623	17912
906.74	17866
906.857	17901
906.974	17802
907.091	17935
907.208	17961
907.324	17889
907.441	17767
907.557	17509
907.674	17608
907.79	17539
907.907	17558
908.023	17619
908.139	17551
908.256	17448
908.372	17532
908.488	17372
908.604	17322
908.72	17254
908.836	17315
908.952	17254
909.068	17349
909.184	17387
909.3	17311
909.415	17383
909.531	17269
909.647	17067
909.762	17067
909.878	16915
909.993	17079
910.108	16976
910.224	16877
910.339	17010
910.454	16801
910.57	16725
910.685	16675
910.8	17041
910.915	16949
911.03	16778
911.145	16550
911.259	16645
911.374	16645
911.489	16500
911.604	16398
911.718	16322
911.833	16318
911.947	16299
912.062	16185
912.176	16337
912.291	16306
912.405	16257
912.519	16485
912.633	16413
912.748	16341
912.862	16287
912.976	16040
913.09	16101
913.204	16173
913.318	16071
913.431	16131
913.545	16200
913.659	16185
913.772	16051
913.886	15968
914	15911
914.113	16025
914.226	16032
914.34	16029
914.453	15747
914.566	15956
914.68	15720
914.793	15720
914.906	15686
915.019	15534
915.132	15477
915.245	15523
915.358	15523
915.47	15523
915.583	15603
915.696	15397
915.809	15622
915.921	15587
916.034	15492
916.146	15378
916.259	15401
916.371	15481
916.483	15477
916.595	15359
916.708	15313
916.82	15370
916.932	15397
917.044	15260
917.156	15313
917.268	15184
917.38	15218
917.491	15169
917.603	15199
917.715	15195
917.826	15252
917.938	15116
918.049	15074
918.161	15051
918.272	15241
918.384	15070
918.495	15055
918.606	14929
918.717	14796
918.828	14868
918.939	14933
919.05	14758
919.161	14952
919.272	14758
919.383	14807
919.494	14956
919.604	15047
919.715	14967
919.826	14777
919.936	14861
920.047	14823
920.157	14769
920.267	14925
920.378	14823
920.488	14781
920.598	15119
920.708	15169
920.818	14902
920.928	14960
921.038	15161
921.148	15211
921.258	14834
921.368	14716
921.477	14594
921.587	14556
921.697	14549
921.806	14587
921.916	14476
922.025	14214
922.134	14195
922.244	14233
922.353	14313
922.462	14039
922.571	14100
922.68	13921
922.789	13807
922.898	13906
923.007	13765
923.116	13826
923.224	13830
923.333	13807
923.442	13685
923.55	13757
923.659	13712
923.767	13818
923.876	13658
923.984	13719
924.092	13601
924.201	13696
924.309	13552
924.417	13533
924.525	13430
924.633	13525
924.741	14271
924.849	13381
924.956	13373
925.064	13343
925.172	13206
925.279	13293
925.387	13335
925.494	13293
925.602	13373
925.709	13331
925.816	13293
925.924	13259
926.031	13324
926.138	13251
926.245	13297
926.352	13061
926.459	13251
926.566	13289
926.673	13160
926.779	13084
926.886	13084
926.993	12875
927.099	12806
927.206	12791
927.312	12734
927.419	12817
927.525	12719
927.631	12833
927.737	12711
927.843	12692
927.95	12585
928.056	12658
928.162	12589
928.267	12658
928.373	13244
928.479	12684
928.585	12414
928.69	12608
928.796	12639
928.901	12521
929.007	12353
929.112	12566
929.218	12422
929.323	12361
929.428	12346
929.533	12384
929.638	12262
929.743	12315
929.848	12304
929.953	12315
930.058	12239
930.163	12053
930.267	12007
930.372	12140
930.477	12007
930.581	12266
930.685	12041
930.79	11973
930.894	11901
930.998	11870
931.103	12034
931.207	11688
931.311	11600
931.415	11512
931.519	11322
931.623	11258
