Data from test_V78500241_550.txt Node
Date: Fri Mar 25 15:13:41 CST 2022
User: usil
Spectrometer: V785-0024
Trigger mode: 0
Integration Time (sec): 4.000000E-1
Scans to average: 1
Nonlinearity correction enabled: false
Boxcar width: 0
Storing dark spectrum: false
XAxis mode: Wavelengths
Number of Pixels in Spectrum: 1024
>>>>>Begin Spectral Data<<<<<
801.071	27127
801.214	27047
801.356	26826
801.499	26773
801.641	26575
801.783	26632
801.926	26743
802.068	26568
802.211	26415
802.353	26393
802.496	26313
802.638	26237
802.78	26164
802.923	26317
803.065	26210
803.208	26138
803.35	26431
803.492	26278
803.635	26438
803.777	26248
803.919	26374
804.061	26644
804.204	26442
804.346	26320
804.488	26332
804.63	26351
804.773	26317
804.915	26343
805.057	26484
805.199	26332
805.341	26545
805.483	26484
805.626	26537
805.768	26396
805.91	26549
806.052	26358
806.194	26396
806.336	26629
806.478	26400
806.62	26495
806.762	26693
806.904	26781
807.046	27009
807.188	26918
807.33	26853
807.472	26880
807.614	26716
807.756	26990
807.898	26777
808.04	26754
808.182	26659
808.324	26674
808.465	26800
808.607	26940
808.749	26986
808.891	27043
809.033	27100
809.174	27142
809.316	27055
809.458	27157
809.6	27062
809.741	27256
809.883	27268
810.025	27416
810.166	27454
810.308	27370
810.45	27355
810.591	27466
810.733	27161
810.875	27154
811.016	26914
811.158	27028
811.299	27146
811.441	27207
811.582	27230
811.724	26982
811.865	27009
812.007	26998
812.148	27142
812.29	27135
812.431	27237
812.573	27397
812.714	27496
812.855	27591
812.997	27625
813.138	27816
813.279	27770
813.421	27694
813.562	27595
813.703	27298
813.845	27195
813.986	26956
814.127	26944
814.268	26815
814.41	26826
814.551	26902
814.692	26864
814.833	26674
814.974	26735
815.115	26735
815.256	26632
815.397	26545
815.539	26640
815.68	26560
815.821	26427
815.962	26552
816.103	26499
816.244	26347
816.385	26164
816.526	26290
816.666	26210
816.807	26142
816.948	26069
817.089	26221
817.23	26107
817.371	26031
817.512	26027
817.653	25982
817.793	25890
817.934	25970
818.075	25989
818.216	25970
818.356	25989
818.497	25841
818.638	25723
818.778	25761
818.919	25700
819.06	25856
819.2	25871
819.341	26130
819.481	25913
819.622	26073
819.762	26332
819.903	26214
820.043	26153
820.184	26100
820.324	26214
820.465	26286
820.605	25940
820.746	26088
820.886	26088
821.026	26115
821.167	26062
821.307	26240
821.447	26024
821.588	25856
821.728	25913
821.868	25769
822.008	25540
822.149	25377
822.289	25491
822.429	25312
822.569	25293
822.709	25145
822.849	25000
822.99	25057
823.13	24966
823.27	24890
823.41	24825
823.55	24673
823.69	24871
823.83	24829
823.97	24722
824.11	24703
824.25	24585
824.389	24585
824.529	24692
824.669	24696
824.809	24741
824.949	24776
825.089	24669
825.228	24631
825.368	24369
825.508	24574
825.648	24486
825.787	24589
825.927	24620
826.067	24403
826.206	24528
826.346	24479
826.485	24521
826.625	24566
826.765	24566
826.904	24490
827.044	24209
827.183	24270
827.323	24121
827.462	24273
827.601	24235
827.741	24281
827.88	24144
828.02	24152
828.159	24045
828.298	24083
828.437	24300
828.577	24144
828.716	24315
828.855	24247
828.994	23889
829.134	23916
829.273	24007
829.412	23996
829.551	23817
829.69	24018
829.829	23870
829.968	23984
830.107	23927
830.246	23988
830.385	23786
830.524	23843
830.663	23691
830.802	23687
830.941	23421
831.08	23562
831.219	23573
831.357	23687
831.496	23764
831.635	23649
831.774	23402
831.913	23364
832.051	23288
832.19	23265
832.329	23353
832.467	23292
832.606	23227
832.744	23166
832.883	23117
833.022	23147
833.16	23212
833.299	23261
833.437	23136
833.576	23216
833.714	23220
833.852	23246
833.991	23341
834.129	23395
834.267	23429
834.406	23360
834.544	23269
834.682	23239
834.821	23212
834.959	23356
835.097	23200
835.235	23315
835.373	23162
835.511	23136
835.65	23109
835.788	23170
835.926	22930
836.064	22850
836.202	22839
836.34	23094
836.478	23136
836.615	23090
836.753	23102
836.891	23132
837.029	23330
837.167	23022
837.305	22995
837.443	23105
837.58	22877
837.718	23083
837.856	22850
837.993	22923
838.131	22889
838.269	22763
838.406	22923
838.544	22634
838.681	22573
838.819	22573
838.956	22538
839.094	22417
839.231	22535
839.369	22584
839.506	22824
839.643	22565
839.781	22440
839.918	22375
840.055	22421
840.193	22504
840.33	22337
840.467	22348
840.604	22402
840.742	22626
840.879	22360
841.016	22310
841.153	22287
841.29	22512
841.427	22455
841.564	22375
841.701	22352
841.838	22325
841.975	22261
842.112	22268
842.249	22105
842.385	22120
842.522	22363
842.659	22265
842.796	22120
842.933	22128
843.069	21998
843.206	22128
843.343	22211
843.479	22074
843.616	22116
843.752	21972
843.889	21956
844.025	22032
844.162	21937
844.298	21956
844.435	21838
844.571	21922
844.708	21930
844.844	22150
844.98	22086
845.117	22093
845.253	21808
845.389	21728
845.525	21949
845.661	21701
845.798	21637
845.934	21736
846.07	21660
846.206	21759
846.342	21724
846.478	21686
846.614	21420
846.75	21412
846.886	21272
847.022	21405
847.158	21458
847.294	21485
847.429	21348
847.565	21462
847.701	21641
847.837	21085
847.972	21138
848.108	21275
848.244	21184
848.379	21013
848.515	20956
848.65	20944
848.786	20967
848.921	21005
849.057	21123
849.192	21036
849.328	20994
849.463	20944
849.598	20979
849.734	20807
849.869	20849
850.004	20868
850.14	20788
850.275	20811
850.41	20629
850.545	20594
850.68	20644
850.815	20826
850.95	20705
851.085	20929
851.22	20800
851.355	20788
851.49	20762
851.625	20716
851.76	20731
851.895	20617
852.03	20613
852.165	20663
852.299	20804
852.434	20613
852.569	20758
852.703	20746
852.838	20769
852.973	20861
853.107	20910
853.242	20697
853.376	20632
853.511	20488
853.645	20488
853.78	20571
853.914	20598
854.048	20602
854.183	20583
854.317	20545
854.451	20674
854.585	20632
854.72	20469
854.854	20609
854.988	20499
855.122	20587
855.256	20419
855.39	20587
855.524	20640
855.658	20663
855.792	20552
855.926	20648
856.06	20632
856.194	20632
856.327	20511
856.461	20556
856.595	20366
856.729	20564
856.862	20606
856.996	20712
857.13	20609
857.263	20686
857.397	20682
857.53	20511
857.664	20613
857.797	20609
857.931	20674
858.064	20777
858.197	20632
858.331	20564
858.464	20583
858.597	20488
858.731	20560
858.864	20602
858.997	20568
859.13	20457
859.263	20598
859.396	20590
859.529	20552
859.662	20457
859.795	20530
859.928	20533
860.061	20682
860.194	20705
860.327	20621
860.46	20530
860.592	20769
860.725	20682
860.858	20693
860.99	20587
861.123	20583
861.256	20511
861.388	20526
861.521	21367
861.653	20366
861.786	20446
861.918	20446
862.05	20469
862.183	20507
862.315	20526
862.447	20495
862.58	20571
862.712	20294
862.844	20252
862.976	20313
863.108	20366
863.24	20746
863.372	20351
863.504	20362
863.636	20256
863.768	20370
863.9	20275
864.032	20256
864.164	20256
864.296	20362
864.428	20419
864.559	20339
864.691	20351
864.823	20408
864.954	20275
865.086	20282
865.217	20252
865.349	20050
865.48	20263
865.612	20084
865.743	20298
865.875	20153
866.006	20263
866.137	20103
866.269	20153
866.4	20069
866.531	20183
866.662	20088
866.793	20103
866.924	20199
867.055	20100
867.186	20115
867.317	20191
867.448	20050
867.579	20035
867.71	20092
867.841	20008
867.972	20016
868.103	20111
868.233	20157
868.364	20199
868.495	20153
868.625	20313
868.756	20434
868.886	20263
869.017	20415
869.147	20480
869.278	20511
869.408	20438
869.539	20275
869.669	20568
869.799	20381
869.929	20358
870.06	20431
870.19	20617
870.32	20678
870.45	20724
870.58	20762
870.71	20796
870.84	20845
870.97	20667
871.1	20701
871.23	20906
871.36	20880
871.489	20857
871.619	20891
871.749	20914
871.879	21001
872.008	21051
872.138	20937
872.267	21032
872.397	20857
872.526	20845
872.656	20727
872.785	20777
872.915	21009
873.044	21150
873.173	21058
873.303	20990
873.432	21043
873.561	21001
873.69	20937
873.819	21055
873.948	21135
874.077	21074
874.206	20941
874.335	21066
874.464	21127
874.593	21100
874.722	21142
874.851	21340
874.979	21382
875.108	21279
875.237	21230
875.365	21112
875.494	21211
875.623	21256
875.751	21150
875.88	21241
876.008	21389
876.136	21408
876.265	21580
876.393	21732
876.521	21660
876.65	21648
876.778	21690
876.906	21534
877.034	21534
877.162	21583
877.29	21526
877.418	21633
877.546	21629
877.674	21549
877.802	21542
877.93	21629
878.058	21500
878.185	21428
878.313	21599
878.441	21439
878.568	21485
878.696	21595
878.824	21603
878.951	21701
879.079	21705
879.206	21854
879.333	21709
879.461	21751
879.588	21739
879.715	21667
879.842	21911
879.97	21519
880.097	21363
880.224	21412
880.351	21435
880.478	21443
880.605	21378
880.732	21485
880.859	21549
880.986	21393
881.112	21386
881.239	21287
881.366	21096
881.493	21013
881.619	20986
881.746	21104
881.872	21039
881.999	20823
882.125	20948
882.252	21005
882.378	20967
882.505	21077
882.631	20864
882.757	20712
882.883	20838
883.01	20693
883.136	20648
883.262	20617
883.388	20632
883.514	20762
883.64	20781
883.766	20537
883.892	20465
884.018	20575
884.143	20731
884.269	20792
884.395	20343
884.52	20362
884.646	20374
884.772	20259
884.897	20191
885.023	20454
885.148	20396
885.274	20571
885.399	20385
885.524	20343
885.65	20412
885.775	20248
885.9	20355
886.025	20526
886.15	20355
886.275	20358
886.4	20275
886.525	20244
886.65	20275
886.775	20237
886.9	20560
887.025	20518
887.149	20343
887.274	20115
887.399	20073
887.523	20180
887.648	20115
887.773	20145
887.897	20069
888.021	20065
888.146	20119
888.27	20256
888.395	20164
888.519	20256
888.643	20111
888.767	20145
888.891	20058
889.015	19852
889.139	19978
889.263	19951
889.387	20115
889.511	20206
889.635	20020
889.759	19868
889.883	19871
890.006	19951
890.13	19944
890.254	19837
890.377	19856
890.501	19738
890.624	19708
890.748	19868
890.871	19563
890.995	19567
891.118	19422
891.241	19487
891.364	19639
891.488	19586
891.611	19468
891.734	19487
891.857	19609
891.98	19487
892.103	19460
892.226	19567
892.349	19506
892.471	19388
892.594	19460
892.717	19441
892.839	19457
892.962	19495
893.085	19556
893.207	19441
893.33	19350
893.452	19365
893.575	19457
893.697	19400
893.819	19529
893.941	19590
894.064	19635
894.186	19381
894.308	19266
894.43	19403
894.552	19590
894.674	19445
894.796	19354
894.918	19426
895.04	19419
895.161	19430
895.283	19521
895.405	19304
895.526	19422
895.648	19400
895.769	19506
895.891	19464
896.012	19518
896.134	19434
896.255	19358
896.376	19495
896.498	19407
896.619	19373
896.74	19422
896.861	19544
896.982	19784
897.103	19871
897.224	19700
897.345	19742
897.466	19666
897.587	19791
897.708	19784
897.828	19753
897.949	19605
898.07	19422
898.19	19734
898.311	19635
898.431	19677
898.552	19712
898.672	19734
898.792	19681
898.913	19757
899.033	19514
899.153	19521
899.273	19464
899.393	19514
899.513	19533
899.633	19377
899.753	19464
899.873	19289
899.993	19457
900.113	19316
900.232	19369
900.352	19312
900.472	19247
900.591	19225
900.711	19266
900.83	19198
900.95	19308
901.069	19228
901.189	19114
901.308	18856
901.427	18749
901.546	18776
901.665	18897
901.784	18738
901.904	18589
902.023	18658
902.141	18403
902.26	18285
902.379	18418
902.498	18372
902.617	18372
902.735	18399
902.854	18194
902.973	18266
903.091	17946
903.21	18015
903.328	17969
903.446	17920
903.565	17794
903.683	17969
903.801	17733
903.919	17653
904.038	17729
904.156	17566
904.274	17665
904.392	17627
904.51	17596
904.627	17539
904.745	17741
904.863	17615
904.981	17299
905.098	17360
905.216	17277
905.334	17292
905.451	17341
905.569	17250
905.686	17337
905.803	17421
905.921	17151
906.038	17132
906.155	17086
906.272	16934
906.389	16968
906.506	16873
906.623	16965
906.74	16850
906.857	16736
906.974	16828
907.091	16873
907.208	16976
907.324	16866
907.441	16744
907.557	16573
907.674	16512
907.79	16466
907.907	16402
908.023	16573
908.139	16580
908.256	16432
908.372	16417
908.488	16428
908.604	16322
908.72	16185
908.836	16276
908.952	16257
909.068	16246
909.184	16363
909.3	16219
909.415	16272
909.531	16303
909.647	16040
909.762	15968
909.878	15926
909.993	16109
910.108	15819
910.224	15880
910.339	15945
910.454	15759
910.57	15789
910.685	15759
910.8	16044
910.915	15949
911.03	15736
911.145	15633
911.259	15587
911.374	15629
911.489	15504
911.604	15431
911.718	15268
911.833	15211
911.947	15226
912.062	15245
912.176	15351
912.291	15317
912.405	15256
912.519	15488
912.633	15485
912.748	15359
912.862	15260
912.976	15093
913.09	14975
913.204	15154
913.318	15119
913.431	15203
913.545	15195
913.659	15135
913.772	15112
913.886	15047
914	14994
914.113	15081
914.226	15173
914.34	14971
914.453	14800
914.566	14956
914.68	14826
914.793	14842
914.906	14583
915.019	14594
915.132	14465
915.245	14564
915.358	14644
915.47	14583
915.583	14541
915.696	14594
915.809	14693
915.921	14701
916.034	14499
916.146	14495
916.259	14484
916.371	14560
916.483	14537
916.595	14419
916.708	14358
916.82	14370
916.932	14328
917.044	14351
917.156	14309
917.268	14229
917.38	14275
917.491	14252
917.603	14263
917.715	14339
917.826	14298
917.938	14168
918.049	14084
918.161	14206
918.272	14309
918.384	14317
918.495	14218
918.606	14123
918.717	14020
918.828	14039
918.939	14027
919.05	14024
919.161	13887
919.272	13830
919.383	13818
919.494	14142
919.604	14263
919.715	13963
919.826	13868
919.936	14073
920.047	14046
920.157	13944
920.267	14058
920.378	14077
920.488	14039
920.598	14252
920.708	14290
920.818	14176
920.928	14035
921.038	14252
921.148	14240
921.258	14039
921.368	13906
921.477	13772
921.587	13689
921.697	13624
921.806	13719
921.916	13643
922.025	13403
922.134	13407
922.244	13346
922.353	13362
922.462	13301
922.571	13240
922.68	13129
922.789	13008
922.898	13038
923.007	12977
923.116	13053
923.224	12947
923.333	13038
923.442	12905
923.55	12856
923.659	12970
923.767	12932
923.876	12764
923.984	12901
924.092	12738
924.201	12798
924.309	12825
924.417	12753
924.525	12684
924.633	12783
924.741	13483
924.849	12547
924.956	12696
925.064	12555
925.172	12467
925.279	12479
925.387	12555
925.494	12563
925.602	12574
925.709	12585
925.816	12422
925.924	12437
926.031	12498
926.138	12372
926.245	12399
926.352	12300
926.459	12483
926.566	12498
926.673	12384
926.779	12304
926.886	12247
926.993	12076
927.099	12068
927.206	12022
927.312	12030
927.419	12182
927.525	12072
927.631	12140
927.737	11965
927.843	11866
927.95	11882
928.056	11866
928.162	11889
928.267	11889
928.373	12460
928.479	12038
928.585	11809
928.69	11882
928.796	11847
928.901	11794
929.007	11619
929.112	11733
929.218	11748
929.323	11657
929.428	11638
929.533	11851
929.638	11600
929.743	11547
929.848	11535
929.953	11592
930.058	11478
930.163	11391
930.267	11345
930.372	11585
930.477	11223
930.581	11543
930.685	11425
930.79	11258
930.894	11326
930.998	11315
931.103	11372
931.207	10980
931.311	10904
931.415	10774
931.519	10630
931.623	10607
