Data from test_V78500241_329.txt Node
Date: Fri Mar 25 15:12:09 CST 2022
User: usil
Spectrometer: V785-0024
Trigger mode: 0
Integration Time (sec): 4.000000E-1
Scans to average: 1
Nonlinearity correction enabled: false
Boxcar width: 0
Storing dark spectrum: false
XAxis mode: Wavelengths
Number of Pixels in Spectrum: 1024
>>>>>Begin Spectral Data<<<<<
801.071	27199
801.214	27146
801.356	26876
801.499	26849
801.641	26830
801.783	26796
801.926	26876
802.068	26731
802.211	26648
802.353	26609
802.496	26484
802.638	26415
802.78	26400
802.923	26286
803.065	26134
803.208	26240
803.35	26320
803.492	26434
803.635	26518
803.777	26355
803.919	26640
804.061	26727
804.204	26514
804.346	26434
804.488	26355
804.63	26511
804.773	26374
804.915	26453
805.057	26480
805.199	26461
805.341	26518
805.483	26590
805.626	26541
805.768	26446
805.91	26644
806.052	26488
806.194	26514
806.336	26640
806.478	26511
806.62	26552
806.762	26689
806.904	26724
807.046	27085
807.188	26982
807.33	26937
807.472	26982
807.614	27028
807.756	26952
807.898	26853
808.04	26705
808.182	26800
808.324	26765
808.465	26864
808.607	27032
808.749	27005
808.891	27195
809.033	27272
809.174	27192
809.316	27230
809.458	27070
809.6	27135
809.741	27329
809.883	27306
810.025	27370
810.166	27363
810.308	27435
810.45	27389
810.591	27306
810.733	27199
810.875	27161
811.016	27009
811.158	26933
811.299	27313
811.441	27214
811.582	27252
811.724	27188
811.865	27169
812.007	26982
812.148	27089
812.29	27142
812.431	27222
812.573	27545
812.714	27485
812.855	27701
812.997	27991
813.138	27975
813.279	27800
813.421	27606
813.562	27667
813.703	27523
813.845	27370
813.986	27116
814.127	26910
814.268	26754
814.41	26746
814.551	26686
814.692	26800
814.833	26807
814.974	26811
815.115	26712
815.256	26533
815.397	26526
815.539	26697
815.68	26663
815.821	26560
815.962	26640
816.103	26533
816.244	26533
816.385	26442
816.526	26278
816.666	26107
816.807	26027
816.948	26054
817.089	26180
817.23	26088
817.371	26122
817.512	26081
817.653	26225
817.793	26008
817.934	26138
818.075	26062
818.216	26176
818.356	25906
818.497	25780
818.638	25772
818.778	25685
818.919	25708
819.06	25681
819.2	25917
819.341	25913
819.481	26088
819.622	26248
819.762	26256
819.903	26301
820.043	26168
820.184	26084
820.324	26153
820.465	26081
820.605	26157
820.746	26202
820.886	25993
821.026	26176
821.167	26103
821.307	26183
821.447	25875
821.588	25963
821.728	25662
821.868	25746
822.008	25563
822.149	25529
822.289	25483
822.429	25358
822.569	25118
822.709	25304
822.849	25023
822.99	25061
823.13	24886
823.27	25023
823.41	24760
823.55	24810
823.69	24806
823.83	24802
823.97	24722
824.11	24479
824.25	24582
824.389	24574
824.529	24612
824.669	24665
824.809	24593
824.949	24760
825.089	24639
825.228	24715
825.368	24464
825.508	24399
825.648	24536
825.787	24642
825.927	24460
826.067	24380
826.206	24574
826.346	24486
826.485	24494
826.625	24391
826.765	24574
826.904	24589
827.044	24285
827.183	24289
827.323	24110
827.462	24266
827.601	24174
827.741	24197
827.88	24292
828.02	24163
828.159	24254
828.298	24133
828.437	24311
828.577	24068
828.716	24350
828.855	24125
828.994	23786
829.134	23832
829.273	24034
829.412	23885
829.551	23874
829.69	23999
829.829	24034
829.968	23996
830.107	24057
830.246	24064
830.385	23870
830.524	23931
830.663	23790
830.802	23699
830.941	23558
831.08	23524
831.219	23528
831.357	23596
831.496	23893
831.635	23585
831.774	23402
831.913	23349
832.051	23497
832.19	23280
832.329	23356
832.467	23334
832.606	23197
832.744	23086
832.883	23197
833.022	23193
833.16	23159
833.299	23258
833.437	23280
833.576	23322
833.714	23360
833.852	23486
833.991	23341
834.129	23360
834.267	23455
834.406	23288
834.544	23349
834.682	23280
834.821	23273
834.959	23391
835.097	23102
835.235	23277
835.373	23326
835.511	23318
835.65	23086
835.788	23132
835.926	23071
836.064	22965
836.202	22862
836.34	23086
836.478	23197
836.615	23102
836.753	23128
836.891	23189
837.029	23223
837.167	23174
837.305	23006
837.443	22946
837.58	22904
837.718	23014
837.856	23041
837.993	22961
838.131	22991
838.269	22896
838.406	22812
838.544	22771
838.681	22569
838.819	22637
838.956	22413
839.094	22554
839.231	22554
839.369	22656
839.506	22782
839.643	22641
839.781	22459
839.918	22421
840.055	22341
840.193	22500
840.33	22398
840.467	22333
840.604	22379
840.742	22740
840.879	22192
841.016	22329
841.153	22261
841.29	22500
841.427	22424
841.564	22325
841.701	22417
841.838	22390
841.975	22268
842.112	22318
842.249	22169
842.385	22169
842.522	22322
842.659	22154
842.796	22131
842.933	22097
843.069	22112
843.206	22112
843.343	22128
843.479	22154
843.616	22116
843.752	21922
843.889	21930
844.025	22082
844.162	21827
844.298	21934
844.435	21865
844.571	21865
844.708	21876
844.844	22090
844.98	22067
845.117	22059
845.253	21880
845.389	21804
845.525	21838
845.661	21770
845.798	21618
845.934	21736
846.07	21572
846.206	21675
846.342	21701
846.478	21739
846.614	21428
846.75	21351
846.886	21348
847.022	21450
847.158	21363
847.294	21363
847.429	21473
847.565	21351
847.701	21603
847.837	21123
847.972	21241
848.108	21268
848.244	21157
848.379	20868
848.515	20956
848.65	20857
848.786	20967
848.921	21001
849.057	21214
849.192	21119
849.328	20956
849.463	20880
849.598	20849
849.734	21013
849.869	20975
850.004	20792
850.14	20823
850.275	20716
850.41	20765
850.545	20693
850.68	20678
850.815	20686
850.95	20857
851.085	20861
851.22	20811
851.355	20720
851.49	20651
851.625	20792
851.76	20613
851.895	20697
852.03	20648
852.165	20769
852.299	20762
852.434	20762
852.569	20819
852.703	20727
852.838	20785
852.973	20914
853.107	20944
853.242	20796
853.376	20518
853.511	20412
853.645	20594
853.78	20777
853.914	20632
854.048	20480
854.183	20495
854.317	20590
854.451	20769
854.585	20488
854.72	20518
854.854	20625
854.988	20488
855.122	20541
855.256	20454
855.39	20522
855.524	20762
855.658	20617
855.792	20598
855.926	20511
856.06	20571
856.194	20465
856.327	20590
856.461	20465
856.595	20461
856.729	20495
856.862	20659
856.996	20583
857.13	20621
857.263	20716
857.397	20564
857.53	20651
857.664	20636
857.797	20629
857.931	20674
858.064	20598
858.197	20727
858.331	20590
858.464	20587
858.597	20480
858.731	20537
858.864	20579
858.997	20522
859.13	20575
859.263	20514
859.396	20609
859.529	20457
859.662	20598
859.795	20598
859.928	20568
860.061	20720
860.194	20842
860.327	20541
860.46	20484
860.592	20735
860.725	20777
860.858	20667
860.99	20484
861.123	20419
861.256	20431
861.388	20549
861.521	21066
861.653	20552
861.786	20328
861.918	20492
862.05	20442
862.183	20404
862.315	20446
862.447	20556
862.58	20393
862.712	20358
862.844	20290
862.976	20457
863.108	20423
863.24	20701
863.372	20229
863.504	20229
863.636	20347
863.768	20332
863.9	20271
864.032	20290
864.164	20210
864.296	20317
864.428	20347
864.559	20339
864.691	20400
864.823	20263
864.954	20240
865.086	20164
865.217	20157
865.349	20149
865.48	20142
865.612	20119
865.743	20286
865.875	20301
866.006	20157
866.137	20172
866.269	20126
866.4	20202
866.531	20138
866.662	20001
866.793	20058
866.924	20119
867.055	20142
867.186	20195
867.317	20065
867.448	20027
867.579	20119
867.71	19997
867.841	19974
867.972	20218
868.103	20058
868.233	20153
868.364	20149
868.495	20214
868.625	20469
868.756	20499
868.886	20290
869.017	20332
869.147	20381
869.278	20465
869.408	20419
869.539	20408
869.669	20317
869.799	20385
869.929	20499
870.06	20415
870.19	20648
870.32	20724
870.45	20769
870.58	20815
870.71	20971
870.84	20773
870.97	20777
871.1	20765
871.23	20921
871.36	20956
871.489	20857
871.619	20895
871.749	20990
871.879	20925
872.008	21104
872.138	21062
872.267	20990
872.397	20792
872.526	20800
872.656	20720
872.785	20910
872.915	21020
873.044	21085
873.173	20925
873.303	21119
873.432	21047
873.561	21051
873.69	20990
873.819	21017
873.948	21017
874.077	21108
874.206	20944
874.335	20990
874.464	21058
874.593	21283
874.722	21237
874.851	21298
874.979	21279
875.108	21336
875.237	21264
875.365	21211
875.494	21192
875.623	21310
875.751	21272
875.88	21195
876.008	21329
876.136	21351
876.265	21660
876.393	21804
876.521	21701
876.65	21663
876.778	21496
876.906	21694
877.034	21576
877.162	21481
877.29	21591
877.418	21587
877.546	21534
877.674	21572
877.802	21561
877.93	21599
878.058	21431
878.185	21405
878.313	21469
878.441	21587
878.568	21519
878.696	21393
878.824	21618
878.951	21618
879.079	21705
879.206	21907
879.333	21694
879.461	21648
879.588	21667
879.715	21831
879.842	21720
879.97	21682
880.097	21523
880.224	21397
880.351	21534
880.478	21416
880.605	21420
880.732	21466
880.859	21580
880.986	21504
881.112	21359
881.239	21203
881.366	21058
881.493	21043
881.619	20944
881.746	21036
881.872	20986
881.999	20952
882.125	20861
882.252	20883
882.378	21009
882.505	21123
882.631	20895
882.757	20701
882.883	20777
883.01	20864
883.136	20667
883.262	20651
883.388	20549
883.514	20621
883.64	20667
883.766	20598
883.892	20552
884.018	20530
884.143	20587
884.269	20720
884.395	20400
884.52	20240
884.646	20434
884.772	20320
884.897	20267
885.023	20415
885.148	20480
885.274	20549
885.399	20423
885.524	20366
885.65	20339
885.775	20343
885.9	20320
886.025	20579
886.15	20427
886.275	20221
886.4	20294
886.525	20278
886.65	20275
886.775	20210
886.9	20381
887.025	20598
887.149	20320
887.274	20164
887.399	20103
887.523	20168
887.648	20050
887.773	20020
887.897	20115
888.021	20191
888.146	20168
888.27	20054
888.395	20210
888.519	20115
888.643	20115
888.767	20103
888.891	20027
889.015	20016
889.139	20050
889.263	19871
889.387	20100
889.511	20237
889.635	20039
889.759	19925
889.883	20008
890.006	19864
890.13	19928
890.254	19795
890.377	19830
890.501	19635
890.624	19662
890.748	19765
890.871	19521
890.995	19464
891.118	19388
891.241	19430
891.364	19571
891.488	19525
891.611	19491
891.734	19518
891.857	19559
891.98	19449
892.103	19582
892.226	19468
892.349	19594
892.471	19350
892.594	19472
892.717	19510
892.839	19415
892.962	19392
893.085	19491
893.207	19388
893.33	19312
893.452	19384
893.575	19487
893.697	19316
893.819	19468
893.941	19643
894.064	19556
894.186	19430
894.308	19266
894.43	19537
894.552	19537
894.674	19533
894.796	19365
894.918	19369
895.04	19388
895.161	19453
895.283	19476
895.405	19339
895.526	19483
895.648	19491
895.769	19411
895.891	19460
896.012	19548
896.134	19540
896.255	19521
896.376	19476
896.498	19441
896.619	19514
896.74	19373
896.861	19514
896.982	19769
897.103	20020
897.224	19693
897.345	19628
897.466	19594
897.587	19708
897.708	19826
897.828	19727
897.949	19586
898.07	19483
898.19	19597
898.311	19651
898.431	19590
898.552	19677
898.672	19537
898.792	19753
898.913	19723
899.033	19499
899.153	19480
899.273	19407
899.393	19384
899.513	19556
899.633	19480
899.753	19411
899.873	19320
899.993	19457
900.113	19384
900.232	19274
900.352	19441
900.472	19365
900.591	19266
900.711	19236
900.83	19145
900.95	19335
901.069	19247
901.189	19080
901.308	18859
901.427	18795
901.546	18890
901.665	18798
901.784	18814
901.904	18604
902.023	18612
902.141	18437
902.26	18323
902.379	18342
902.498	18330
902.617	18281
902.735	18281
902.854	18258
902.973	18365
903.091	17954
903.21	17893
903.328	17942
903.446	17965
903.565	17843
903.683	17859
903.801	17680
903.919	17779
904.038	17695
904.156	17554
904.274	17760
904.392	17512
904.51	17455
904.627	17551
904.745	17577
904.863	17581
904.981	17425
905.098	17254
905.216	17318
905.334	17292
905.451	17303
905.569	17231
905.686	17326
905.803	17216
905.921	17022
906.038	17246
906.155	17060
906.272	17037
906.389	17014
906.506	16885
906.623	16668
906.74	16869
906.857	16721
906.974	16645
907.091	16805
907.208	17079
907.324	16778
907.441	16755
907.557	16478
907.674	16618
907.79	16478
907.907	16413
908.023	16584
908.139	16512
908.256	16481
908.372	16478
908.488	16386
908.604	16204
908.72	16154
908.836	16188
908.952	16226
909.068	16276
909.184	16322
909.3	16215
909.415	16306
909.531	16196
909.647	15884
909.762	15972
909.878	16013
909.993	15903
910.108	15945
910.224	15876
910.339	15918
910.454	15785
910.57	15751
910.685	15698
910.8	15941
910.915	15865
911.03	15739
911.145	15637
911.259	15553
911.374	15576
911.489	15458
911.604	15538
911.718	15367
911.833	15374
911.947	15195
912.062	15123
912.176	15336
912.291	15431
912.405	15241
912.519	15511
912.633	15485
912.748	15386
912.862	15313
912.976	15119
913.09	14933
913.204	15142
913.318	15051
913.431	15184
913.545	15294
913.659	15188
913.772	15062
913.886	14891
914	14872
914.113	15024
914.226	15005
914.34	14925
914.453	14887
914.566	15043
914.68	14849
914.793	14720
914.906	14632
915.019	14526
915.132	14613
915.245	14533
915.358	14556
915.47	14552
915.583	14541
915.696	14541
915.809	14659
915.921	14746
916.034	14503
916.146	14514
916.259	14434
916.371	14533
916.483	14461
916.595	14480
916.708	14499
916.82	14518
916.932	14263
917.044	14419
917.156	14381
917.268	14183
917.38	14100
917.491	14218
917.603	14263
917.715	14240
917.826	14313
917.938	14130
918.049	14130
918.161	14142
918.272	14343
918.384	14324
918.495	14134
918.606	14027
918.717	14050
918.828	13959
918.939	14024
919.05	13951
919.161	14054
919.272	13818
919.383	13822
919.494	14035
919.604	14244
919.715	14054
919.826	13936
919.936	13925
920.047	14043
920.157	13997
920.267	14183
920.378	14046
920.488	13883
920.598	14149
920.708	14218
920.818	14039
920.928	13951
921.038	14244
921.148	14164
921.258	13963
921.368	13890
921.477	13685
921.587	13704
921.697	13620
921.806	13689
921.916	13537
922.025	13422
922.134	13308
922.244	13301
922.353	13472
922.462	13247
922.571	13171
922.68	13091
922.789	13015
922.898	13080
923.007	13012
923.116	12973
923.224	13061
923.333	13023
923.442	12863
923.55	12897
923.659	12817
923.767	12962
923.876	12875
923.984	12886
924.092	12745
924.201	12825
924.309	12795
924.417	12825
924.525	12696
924.633	12760
924.741	13502
924.849	12513
924.956	12620
925.064	12532
925.172	12399
925.279	12452
925.387	12502
925.494	12525
925.602	12677
925.709	12521
925.816	12365
925.924	12502
926.031	12650
926.138	12399
926.245	12391
926.352	12342
926.459	12502
926.566	12422
926.673	12376
926.779	12239
926.886	12327
926.993	12140
927.099	12038
927.206	12019
927.312	12030
927.419	12057
927.525	12064
927.631	12083
927.737	11920
927.843	12045
927.95	11809
928.056	11847
928.162	11965
928.267	11973
928.373	12566
928.479	11942
928.585	11729
928.69	11828
928.796	11859
928.901	11756
929.007	11573
929.112	11710
929.218	11646
929.323	11703
929.428	11596
929.533	11649
929.638	11589
929.743	11608
929.848	11596
929.953	11589
930.058	11501
930.163	11280
930.267	11322
930.372	11509
930.477	11318
930.581	11509
930.685	11387
930.79	11261
930.894	11223
930.998	11181
931.103	11387
931.207	10968
931.311	10892
931.415	10786
931.519	10622
931.623	10588
