Data from test_V78500241_3539.txt Node
Date: Fri Mar 25 15:34:30 CST 2022
User: usil
Spectrometer: V785-0024
Trigger mode: 0
Integration Time (sec): 4.000000E-1
Scans to average: 1
Nonlinearity correction enabled: false
Boxcar width: 0
Storing dark spectrum: false
XAxis mode: Wavelengths
Number of Pixels in Spectrum: 1024
>>>>>Begin Spectral Data<<<<<
801.071	27222
801.214	27264
801.356	26918
801.499	26914
801.641	26868
801.783	26644
801.926	26842
802.068	26746
802.211	26617
802.353	26689
802.496	26560
802.638	26457
802.78	26393
802.923	26358
803.065	26225
803.208	26290
803.35	26530
803.492	26488
803.635	26590
803.777	26362
803.919	26648
804.061	26906
804.204	26609
804.346	26522
804.488	26473
804.63	26431
804.773	26530
804.915	26609
805.057	26560
805.199	26617
805.341	26632
805.483	26629
805.626	26693
805.768	26590
805.91	26716
806.052	26590
806.194	26644
806.336	26880
806.478	26598
806.62	26659
806.762	26735
806.904	26948
807.046	27062
807.188	27180
807.33	27028
807.472	27131
807.614	27070
807.756	26956
807.898	26804
808.04	26895
808.182	26739
808.324	26868
808.465	26868
808.607	27112
808.749	27173
808.891	27549
809.033	27389
809.174	27355
809.316	27275
809.458	27218
809.6	27150
809.741	27351
809.883	27412
810.025	27435
810.166	27496
810.308	27542
810.45	27435
810.591	27511
810.733	27302
810.875	27302
811.016	27226
811.158	27222
811.299	27336
811.441	27363
811.582	27462
811.724	27188
811.865	27294
812.007	27192
812.148	27287
812.29	27176
812.431	27363
812.573	27523
812.714	27610
812.855	27671
812.997	27739
813.138	28048
813.279	27987
813.421	27599
813.562	27614
813.703	27553
813.845	27454
813.986	27165
814.127	27028
814.268	26956
814.41	26929
814.551	26864
814.692	26895
814.833	26880
814.974	26887
815.115	26986
815.256	26906
815.397	26819
815.539	26834
815.68	26678
815.821	26533
815.962	26724
816.103	26796
816.244	26583
816.385	26419
816.526	26438
816.666	26187
816.807	26073
816.948	26237
817.089	26138
817.23	26092
817.371	26164
817.512	26252
817.653	26130
817.793	26088
817.934	26172
818.075	26206
818.216	26145
818.356	26240
818.497	26111
818.638	25928
818.778	25928
818.919	25921
819.06	26020
819.2	26119
819.341	26100
819.481	26100
819.622	26305
819.762	26488
819.903	26412
820.043	26415
820.184	26275
820.324	26278
820.465	26461
820.605	26237
820.746	26259
820.886	26225
821.026	26278
821.167	26278
821.307	26313
821.447	26084
821.588	26065
821.728	25989
821.868	25811
822.008	25662
822.149	25658
822.289	25670
822.429	25419
822.569	25400
822.709	25358
822.849	25179
822.99	25274
823.13	25232
823.27	25122
823.41	25053
823.55	24928
823.69	25080
823.83	24966
823.97	24890
824.11	24707
824.25	24783
824.389	24856
824.529	24859
824.669	24817
824.809	24863
824.949	24882
825.089	24871
825.228	24810
825.368	24654
825.508	24521
825.648	24711
825.787	24627
825.927	24741
826.067	24730
826.206	24635
826.346	24783
826.485	24661
826.625	24642
826.765	24749
826.904	24700
827.044	24483
827.183	24445
827.323	24380
827.462	24452
827.601	24334
827.741	24422
827.88	24315
828.02	24372
828.159	24342
828.298	24391
828.437	24338
828.577	24391
828.716	24525
828.855	24285
828.994	24136
829.134	24076
829.273	24091
829.412	24045
829.551	24136
829.69	24216
829.829	24072
829.968	24060
830.107	24201
830.246	24098
830.385	24136
830.524	24060
830.663	23954
830.802	23885
830.941	23836
831.08	23703
831.219	23760
831.357	23783
831.496	24038
831.635	23771
831.774	23630
831.913	23634
832.051	23478
832.19	23512
832.329	23482
832.467	23444
832.606	23471
832.744	23326
832.883	23315
833.022	23322
833.16	23326
833.299	23512
833.437	23433
833.576	23524
833.714	23490
833.852	23551
833.991	23421
834.129	23589
834.267	23531
834.406	23493
834.544	23596
834.682	23596
834.821	23474
834.959	23634
835.097	23379
835.235	23528
835.373	23520
835.511	23539
835.65	23318
835.788	23337
835.926	23193
836.064	23174
836.202	23086
836.34	23410
836.478	23429
836.615	23440
836.753	23277
836.891	23345
837.029	23356
837.167	23292
837.305	23162
837.443	23246
837.58	23208
837.718	23220
837.856	23269
837.993	23166
838.131	23242
838.269	22961
838.406	23121
838.544	22915
838.681	22828
838.819	22835
838.956	22577
839.094	22565
839.231	22691
839.369	22858
839.506	22919
839.643	22869
839.781	22596
839.918	22561
840.055	22664
840.193	22778
840.33	22577
840.467	22535
840.604	22592
840.742	22797
840.879	22485
841.016	22481
841.153	22382
841.29	22744
841.427	22611
841.564	22603
841.701	22542
841.838	22573
841.975	22504
842.112	22599
842.249	22386
842.385	22257
842.522	22577
842.659	22413
842.796	22344
842.933	22398
843.069	22371
843.206	22253
843.343	22394
843.479	22402
843.616	22333
843.752	22230
843.889	22036
844.025	22299
844.162	21975
844.298	22177
844.435	22044
844.571	22097
844.708	22143
844.844	22280
844.98	22234
845.117	22253
845.253	21994
845.389	22013
845.525	22074
845.661	21880
845.798	21991
845.934	21888
846.07	21739
846.206	22040
846.342	22002
846.478	21766
846.614	21580
846.75	21606
846.886	21629
847.022	21755
847.158	21629
847.294	21561
847.429	21743
847.565	21606
847.701	21800
847.837	21359
847.972	21359
848.108	21454
848.244	21466
848.379	21370
848.515	21173
848.65	21108
848.786	21100
848.921	21233
849.057	21294
849.192	21310
849.328	21146
849.463	21112
849.598	21104
849.734	21100
849.869	21043
850.004	20906
850.14	20998
850.275	20960
850.41	20849
850.545	20872
850.68	20883
850.815	20925
850.95	20891
851.085	21165
851.22	21005
851.355	20982
851.49	20857
851.625	20948
851.76	20925
851.895	20967
852.03	20971
852.165	21051
852.299	20956
852.434	21127
852.569	21024
852.703	20963
852.838	21062
852.973	20994
853.107	21131
853.242	20807
853.376	20830
853.511	20712
853.645	20834
853.78	20956
853.914	20758
854.048	20842
854.183	20727
854.317	20788
854.451	20914
854.585	20785
854.72	20720
854.854	20857
854.988	20621
855.122	20765
855.256	20727
855.39	20834
855.524	20967
855.658	20899
855.792	20792
855.926	20853
856.06	20853
856.194	20811
856.327	20792
856.461	20678
856.595	20826
856.729	20705
856.862	20792
856.996	20804
857.13	20830
857.263	20925
857.397	20902
857.53	20667
857.664	20895
857.797	20807
857.931	20853
858.064	20762
858.197	20853
858.331	20769
858.464	20708
858.597	20682
858.731	20788
858.864	20758
858.997	20785
859.13	20887
859.263	20807
859.396	20895
859.529	20815
859.662	20731
859.795	20815
859.928	20788
860.061	20975
860.194	20914
860.327	20743
860.46	20902
860.592	20910
860.725	20914
860.858	20880
860.99	20743
861.123	20750
861.256	20655
861.388	20670
861.521	21542
861.653	20617
861.786	20636
861.918	20549
862.05	20667
862.183	20579
862.315	20716
862.447	20800
862.58	20674
862.712	20545
862.844	20434
862.976	20598
863.108	20609
863.24	20872
863.372	20434
863.504	20636
863.636	20446
863.768	20606
863.9	20556
864.032	20469
864.164	20434
864.296	20526
864.428	20648
864.559	20450
864.691	20667
864.823	20355
864.954	20446
865.086	20541
865.217	20324
865.349	20301
865.48	20393
865.612	20450
865.743	20556
865.875	20374
866.006	20343
866.137	20442
866.269	20206
866.4	20438
866.531	20233
866.662	20317
866.793	20347
866.924	20358
867.055	20461
867.186	20358
867.317	20438
867.448	20278
867.579	20282
867.71	20278
867.841	20275
867.972	20305
868.103	20294
868.233	20286
868.364	20415
868.495	20438
868.625	20575
868.756	20579
868.886	20465
869.017	20587
869.147	20727
869.278	20754
869.408	20606
869.539	20606
869.669	20617
869.799	20670
869.929	20777
870.06	20549
870.19	20963
870.32	20956
870.45	21093
870.58	20868
870.71	20971
870.84	21127
870.97	20960
871.1	20994
871.23	21138
871.36	21165
871.489	21081
871.619	21116
871.749	21291
871.879	21218
872.008	21264
872.138	21260
872.267	21188
872.397	21036
872.526	21066
872.656	21039
872.785	21017
872.915	21237
873.044	21298
873.173	21211
873.303	21294
873.432	21245
873.561	21317
873.69	21184
873.819	21264
873.948	21462
874.077	21161
874.206	21211
874.335	21173
874.464	21386
874.593	21466
874.722	21477
874.851	21492
874.979	21561
875.108	21435
875.237	21359
875.365	21420
875.494	21401
875.623	21435
875.751	21504
875.88	21557
876.008	21587
876.136	21580
876.265	21831
876.393	21949
876.521	21907
876.65	21949
876.778	21888
876.906	21797
877.034	21797
877.162	21781
877.29	21915
877.418	21755
877.546	21880
877.674	21785
877.802	21800
877.93	21888
878.058	21747
878.185	21610
878.313	21812
878.441	21907
878.568	21644
878.696	21648
878.824	21793
878.951	21835
879.079	21953
879.206	22044
879.333	21949
879.461	21789
879.588	21823
879.715	22006
879.842	21991
879.97	21922
880.097	21682
880.224	21618
880.351	21663
880.478	21682
880.605	21614
880.732	21682
880.859	21861
880.986	21728
881.112	21614
881.239	21542
881.366	21473
881.493	21294
881.619	21199
881.746	21249
881.872	21260
881.999	21180
882.125	21195
882.252	21203
882.378	21222
882.505	21264
882.631	21100
882.757	21024
882.883	20967
883.01	20902
883.136	20918
883.262	20773
883.388	20712
883.514	20891
883.64	20899
883.766	20765
883.892	20686
884.018	20705
884.143	20826
884.269	20914
884.395	20587
884.52	20480
884.646	20568
884.772	20587
884.897	20461
885.023	20590
885.148	20609
885.274	20598
885.399	20625
885.524	20537
885.65	20499
885.775	20693
885.9	20537
886.025	20678
886.15	20579
886.275	20431
886.4	20419
886.525	20423
886.65	20454
886.775	20469
886.9	20640
887.025	20746
887.149	20549
887.274	20393
887.399	20332
887.523	20457
887.648	20252
887.773	20248
887.897	20499
888.021	20358
888.146	20229
888.27	20377
888.395	20461
888.519	20377
888.643	20339
888.767	20343
888.891	20267
889.015	20088
889.139	20225
889.263	20157
889.387	20256
889.511	20351
889.635	20172
889.759	20027
889.883	20145
890.006	20069
890.13	20339
890.254	20126
890.377	20024
890.501	19871
890.624	19944
890.748	19959
890.871	19811
890.995	19852
891.118	19674
891.241	19704
891.364	19734
891.488	19799
891.611	19738
891.734	19628
891.857	19776
891.98	19723
892.103	19852
892.226	19666
892.349	19708
892.471	19476
892.594	19594
892.717	19712
892.839	19727
892.962	19582
893.085	19776
893.207	19677
893.33	19480
893.452	19476
893.575	19639
893.697	19670
893.819	19788
893.941	19833
894.064	19772
894.186	19495
894.308	19521
894.43	19620
894.552	19780
894.674	19761
894.796	19620
894.918	19635
895.04	19601
895.161	19727
895.283	19791
895.405	19480
895.526	19624
895.648	19693
895.769	19647
895.891	19643
896.012	19772
896.134	19750
896.255	19594
896.376	19548
896.498	19582
896.619	19639
896.74	19632
896.861	19712
896.982	19894
897.103	20172
897.224	19963
897.345	19860
897.466	19845
897.587	19826
897.708	20077
897.828	19826
897.949	19811
898.07	19696
898.19	19761
898.311	19898
898.431	19811
898.552	19898
898.672	19887
898.792	19864
898.913	19818
899.033	19753
899.153	19731
899.273	19556
899.393	19632
899.513	19590
899.633	19700
899.753	19666
899.873	19586
899.993	19567
900.113	19616
900.232	19571
900.352	19563
900.472	19415
900.591	19304
900.711	19483
900.83	19373
900.95	19525
901.069	19460
901.189	19263
901.308	19050
901.427	19061
901.546	19012
901.665	19095
901.784	18954
901.904	18878
902.023	18783
902.141	18650
902.26	18460
902.379	18673
902.498	18498
902.617	18452
902.735	18585
902.854	18452
902.973	18369
903.091	18133
903.21	18194
903.328	18209
903.446	18121
903.565	18068
903.683	17942
903.801	17843
903.919	17988
904.038	17935
904.156	17843
904.274	17866
904.392	17684
904.51	17741
904.627	17851
904.745	17824
904.863	17790
904.981	17570
905.098	17512
905.216	17353
905.334	17520
905.451	17539
905.569	17455
905.686	17505
905.803	17436
905.921	17200
906.038	17391
906.155	17220
906.272	17124
906.389	17014
906.506	16995
906.623	17010
906.74	17048
906.857	16843
906.974	16949
907.091	17010
907.208	17022
907.324	16953
907.441	16869
907.557	16698
907.674	16649
907.79	16694
907.907	16755
908.023	16626
908.139	16683
908.256	16694
908.372	16527
908.488	16607
908.604	16504
908.72	16382
908.836	16432
908.952	16470
909.068	16523
909.184	16470
909.3	16440
909.415	16466
909.531	16413
909.647	16211
909.762	16204
909.878	16158
909.993	16120
910.108	16135
910.224	16143
910.339	16071
910.454	15960
910.57	15926
910.685	15892
910.8	16112
910.915	16013
911.03	15964
911.145	15819
911.259	15846
911.374	15759
911.489	15618
911.604	15614
911.718	15500
911.833	15428
911.947	15431
912.062	15260
912.176	15526
912.291	15496
912.405	15500
912.519	15644
912.633	15648
912.748	15595
912.862	15507
912.976	15348
913.09	15199
913.204	15241
913.318	15325
913.431	15416
913.545	15344
913.659	15348
913.772	15222
913.886	15230
914	15024
914.113	15180
914.226	15169
914.34	15161
914.453	15001
914.566	15093
914.68	14967
914.793	15051
914.906	14834
915.019	14667
915.132	14716
915.245	14769
915.358	14720
915.47	14743
915.583	14731
915.696	14731
915.809	14731
915.921	14842
916.034	14804
916.146	14667
916.259	14575
916.371	14796
916.483	14640
916.595	14575
916.708	14549
916.82	14484
916.932	14606
917.044	14518
917.156	14465
917.268	14412
917.38	14461
917.491	14461
917.603	14438
917.715	14446
917.826	14537
917.938	14237
918.049	14271
918.161	14336
918.272	14366
918.384	14454
918.495	14328
918.606	14191
918.717	14134
918.828	14229
918.939	14210
919.05	14012
919.161	14134
919.272	14016
919.383	14001
919.494	14267
919.604	14366
919.715	14119
919.826	14027
919.936	14130
920.047	14206
920.157	14153
920.267	14332
920.378	14145
920.488	14027
920.598	14244
920.708	14343
920.818	14290
920.928	14248
921.038	14454
921.148	14355
921.258	14100
921.368	14005
921.477	13803
921.587	13921
921.697	13776
921.806	13909
921.916	13841
922.025	13510
922.134	13575
922.244	13521
922.353	13601
922.462	13457
922.571	13419
922.68	13282
922.789	13072
922.898	13149
923.007	13057
923.116	13236
923.224	13141
923.333	13034
923.442	13004
923.55	12966
923.659	13080
923.767	13114
923.876	12985
923.984	13103
924.092	12909
924.201	12993
924.309	12859
924.417	12962
924.525	12840
924.633	12875
924.741	13605
924.849	12669
924.956	12722
925.064	12772
925.172	12582
925.279	12616
925.387	12620
925.494	12654
925.602	12715
925.709	12654
925.816	12593
925.924	12582
926.031	12604
926.138	12597
926.245	12616
926.352	12471
926.459	12635
926.566	12627
926.673	12498
926.779	12399
926.886	12357
926.993	12216
927.099	12311
927.206	12213
927.312	12178
927.419	12205
927.525	12136
927.631	12266
927.737	12045
927.843	11999
927.95	11965
928.056	12011
928.162	11969
928.267	12102
928.373	12566
928.479	12121
928.585	11927
928.69	11954
928.796	11920
928.901	11946
929.007	11767
929.112	11916
929.218	11847
929.323	11794
929.428	11836
929.533	11805
929.638	11680
929.743	11703
929.848	11813
929.953	11714
930.058	11585
930.163	11425
930.267	11467
930.372	11558
930.477	11364
930.581	11611
930.685	11512
930.79	11261
930.894	11376
930.998	11315
931.103	11356
931.207	11121
931.311	11006
931.415	10889
931.519	10755
931.623	10679
