Data from test_V78500241_851.txt Node
Date: Fri Mar 25 15:15:46 CST 2022
User: usil
Spectrometer: V785-0024
Trigger mode: 0
Integration Time (sec): 4.000000E-1
Scans to average: 1
Nonlinearity correction enabled: false
Boxcar width: 0
Storing dark spectrum: false
XAxis mode: Wavelengths
Number of Pixels in Spectrum: 1024
>>>>>Begin Spectral Data<<<<<
801.071	28055
801.214	28036
801.356	27972
801.499	27755
801.641	27526
801.783	27633
801.926	27762
802.068	27854
802.211	27633
802.353	27629
802.496	27526
802.638	27443
802.78	27412
802.923	27439
803.065	27458
803.208	27389
803.35	27488
803.492	27447
803.635	27739
803.777	27538
803.919	27599
804.061	27941
804.204	27564
804.346	27667
804.488	27523
804.63	27561
804.773	27564
804.915	27580
805.057	27724
805.199	27671
805.341	27743
805.483	27762
805.626	27857
805.768	27698
805.91	27656
806.052	27690
806.194	27637
806.336	28025
806.478	27911
806.62	27759
806.762	27914
806.904	28177
807.046	28344
807.188	28314
807.33	28150
807.472	28348
807.614	28086
807.756	28162
807.898	28055
808.04	28074
808.182	27994
808.324	28044
808.465	28143
808.607	28204
808.749	28462
808.891	28485
809.033	28615
809.174	28489
809.316	28462
809.458	28363
809.6	28535
809.741	28428
809.883	28516
810.025	28888
810.166	28713
810.308	28812
810.45	28778
810.591	28748
810.733	28569
810.875	28481
811.016	28238
811.158	28333
811.299	28611
811.441	28694
811.582	28637
811.724	28504
811.865	28341
812.007	28481
812.148	28432
812.29	28493
812.431	28672
812.573	28858
812.714	28991
812.855	29105
812.997	29113
813.138	29067
813.279	29159
813.421	29003
813.562	29041
813.703	28797
813.845	28866
813.986	28603
814.127	28405
814.268	28105
814.41	28200
814.551	28116
814.692	28276
814.833	28207
814.974	28173
815.115	28230
815.256	28135
815.397	27991
815.539	28177
815.68	28010
815.821	28017
815.962	28135
816.103	28120
816.244	27846
816.385	27831
816.526	27774
816.666	27641
816.807	27378
816.948	27469
817.089	27595
817.23	27686
817.371	27447
817.512	27568
817.653	27545
817.793	27526
817.934	27397
818.075	27466
818.216	27488
818.356	27351
818.497	27443
818.638	27112
818.778	27146
818.919	27207
819.06	27310
819.2	27226
819.341	27500
819.481	27477
819.622	27629
819.762	27789
819.903	27819
820.043	27690
820.184	27534
820.324	27637
820.465	27717
820.605	27660
820.746	27538
820.886	27595
821.026	27667
821.167	27549
821.307	27545
821.447	27416
821.588	27363
821.728	27313
821.868	27032
822.008	27001
822.149	26971
822.289	26937
822.429	26724
822.569	26549
822.709	26583
822.849	26393
822.99	26484
823.13	26457
823.27	26393
823.41	26221
823.55	26077
823.69	26317
823.83	26252
823.97	26176
824.11	26180
824.25	26043
824.389	26111
824.529	26202
824.669	26134
824.809	26339
824.949	26282
825.089	26305
825.228	26233
825.368	26027
825.508	26119
825.648	26096
825.787	26046
825.927	25951
826.067	25913
826.206	26111
826.346	26012
826.485	26031
826.625	26027
826.765	26176
826.904	26043
827.044	25791
827.183	25849
827.323	25632
827.462	25719
827.601	25826
827.741	25750
827.88	25677
828.02	25708
828.159	25681
828.298	25715
828.437	25852
828.577	25677
828.716	25803
828.855	25628
828.994	25487
829.134	25381
829.273	25495
829.412	25453
829.551	25358
829.69	25464
829.829	25529
829.968	25354
830.107	25537
830.246	25400
830.385	25381
830.524	25289
830.663	25099
830.802	25221
830.941	24989
831.08	24958
831.219	25099
831.357	25088
831.496	25175
831.635	25042
831.774	24939
831.913	24913
832.051	24753
832.19	24764
832.329	24738
832.467	24711
832.606	24582
832.744	24692
832.883	24802
833.022	24574
833.16	24719
833.299	24741
833.437	24616
833.576	24779
833.714	24623
833.852	24700
833.991	24802
834.129	24932
834.267	24779
834.406	24791
834.544	24806
834.682	24787
834.821	24749
834.959	24886
835.097	24650
835.235	24783
835.373	24635
835.511	24875
835.65	24646
835.788	24585
835.926	24418
836.064	24300
836.202	24467
836.34	24646
836.478	24654
836.615	24639
836.753	24475
836.891	24585
837.029	24650
837.167	24448
837.305	24452
837.443	24445
837.58	24384
837.718	24540
837.856	24407
837.993	24403
838.131	24502
838.269	24391
838.406	24376
838.544	24266
838.681	24083
838.819	24045
838.956	23779
839.094	23885
839.231	23912
839.369	23992
839.506	24258
839.643	24152
839.781	23870
839.918	23863
840.055	23874
840.193	23767
840.33	23771
840.467	23726
840.604	23923
840.742	24095
840.879	23596
841.016	23627
841.153	23714
841.29	23885
841.427	23748
841.564	23843
841.701	23756
841.838	23726
841.975	23809
842.112	23589
842.249	23627
842.385	23501
842.522	23710
842.659	23543
842.796	23562
842.933	23627
843.069	23516
843.206	23455
843.343	23684
843.479	23509
843.616	23604
843.752	23376
843.889	23315
844.025	23474
844.162	23223
844.298	23364
844.435	23273
844.571	23239
844.708	23280
844.844	23398
844.98	23459
845.117	23452
845.253	23318
845.389	23239
845.525	23242
845.661	23147
845.798	23067
845.934	23098
846.07	23048
846.206	22961
846.342	23079
846.478	22881
846.614	22946
846.75	22710
846.886	22831
847.022	22942
847.158	22904
847.294	22710
847.429	22778
847.565	22797
847.701	23010
847.837	22504
847.972	22455
848.108	22428
848.244	22607
848.379	22417
848.515	22417
848.65	22299
848.786	22470
848.921	22337
849.057	22455
849.192	22440
849.328	22405
849.463	22348
849.598	22386
849.734	22249
849.869	22219
850.004	22211
850.14	22120
850.275	22226
850.41	21930
850.545	22002
850.68	22048
850.815	22188
850.95	22093
851.085	22226
851.22	22276
851.355	22139
851.49	22051
851.625	22070
851.76	22116
851.895	21994
852.03	21979
852.165	22006
852.299	22131
852.434	22207
852.569	22211
852.703	22139
852.838	22196
852.973	22238
853.107	22188
853.242	22067
853.376	22013
853.511	21762
853.645	21857
853.78	21956
853.914	21991
854.048	21888
854.183	21899
854.317	21960
854.451	22166
854.585	21941
854.72	21968
854.854	22044
854.988	21926
855.122	22017
855.256	21857
855.39	21797
855.524	21956
855.658	22029
855.792	21903
855.926	21876
856.06	21991
856.194	21975
856.327	21930
856.461	21895
856.595	21842
856.729	21895
856.862	21953
856.996	22017
857.13	22025
857.263	22086
857.397	21998
857.53	21884
857.664	22112
857.797	22010
857.931	22040
858.064	22207
858.197	22059
858.331	22013
858.464	21983
858.597	21911
858.731	21876
858.864	21972
858.997	21911
859.13	21956
859.263	21979
859.396	21945
859.529	22036
859.662	21934
859.795	21857
859.928	21972
860.061	22044
860.194	22074
860.327	22097
860.46	22021
860.592	21994
860.725	22078
860.858	21956
860.99	21930
861.123	21960
861.256	21785
861.388	21865
861.521	22733
861.653	21800
861.786	21762
861.918	21846
862.05	21873
862.183	21831
862.315	21964
862.447	21934
862.58	21865
862.712	21736
862.844	21720
862.976	21838
863.108	21656
863.24	22040
863.372	21679
863.504	21644
863.636	21580
863.768	21823
863.9	21629
864.032	21641
864.164	21743
864.296	21694
864.428	21819
864.559	21724
864.691	21622
864.823	21610
864.954	21633
865.086	21557
865.217	21637
865.349	21542
865.48	21606
865.612	21530
865.743	21736
865.875	21583
866.006	21568
866.137	21610
866.269	21629
866.4	21549
866.531	21519
866.662	21431
866.793	21393
866.924	21450
867.055	21447
867.186	21443
867.317	21340
867.448	21435
867.579	21428
867.71	21447
867.841	21355
867.972	21420
868.103	21428
868.233	21397
868.364	21507
868.495	21656
868.625	21739
868.756	21739
868.886	21690
869.017	21698
869.147	21934
869.278	21789
869.408	21739
869.539	21766
869.669	21781
869.799	21656
869.929	21857
870.06	21759
870.19	21983
870.32	22059
870.45	22128
870.58	22051
870.71	22337
870.84	22265
870.97	22124
871.1	22147
871.23	22375
871.36	22280
871.489	22272
871.619	22101
871.749	22253
871.879	22462
872.008	22485
872.138	22181
872.267	22272
872.397	22135
872.526	22207
872.656	22158
872.785	22204
872.915	22322
873.044	22402
873.173	22341
873.303	22363
873.432	22390
873.561	22428
873.69	22424
873.819	22371
873.948	22390
874.077	22367
874.206	22265
874.335	22375
874.464	22382
874.593	22542
874.722	22508
874.851	22653
874.979	22607
875.108	22500
875.237	22508
875.365	22485
875.494	22409
875.623	22664
875.751	22634
875.88	22641
876.008	22580
876.136	22771
876.265	23018
876.393	23067
876.521	23102
876.65	22881
876.778	22946
876.906	22934
877.034	22923
877.162	22862
877.29	22820
877.418	22862
877.546	22744
877.674	22972
877.802	22923
877.93	22900
878.058	22934
878.185	22744
878.313	22961
878.441	22953
878.568	22713
878.696	22809
878.824	22904
878.951	22980
879.079	22965
879.206	23143
879.333	23124
879.461	22957
879.588	22965
879.715	23124
879.842	23143
879.97	23022
880.097	22755
880.224	22603
880.351	22717
880.478	22721
880.605	22687
880.732	22615
880.859	22987
880.986	22809
881.112	22793
881.239	22485
881.366	22409
881.493	22421
881.619	22310
881.746	22295
881.872	22382
881.999	22306
882.125	22219
882.252	22348
882.378	22238
882.505	22276
882.631	22082
882.757	21953
882.883	21956
883.01	22059
883.136	21869
883.262	21778
883.388	21766
883.514	22051
883.64	21918
883.766	21831
883.892	21751
884.018	21880
884.143	21838
884.269	21968
884.395	21766
884.52	21603
884.646	21728
884.772	21538
884.897	21488
885.023	21580
885.148	21675
885.274	21778
885.399	21595
885.524	21583
885.65	21625
885.775	21530
885.9	21561
886.025	21698
886.15	21724
886.275	21515
886.4	21603
886.525	21614
886.65	21382
886.775	21488
886.9	21694
887.025	21812
887.149	21652
887.274	21389
887.399	21370
887.523	21310
887.648	21359
887.773	21294
887.897	21374
888.021	21416
888.146	21374
888.27	21332
888.395	21458
888.519	21450
888.643	21340
888.767	21431
888.891	21332
889.015	21272
889.139	21275
889.263	21157
889.387	21256
889.511	21488
889.635	21283
889.759	21127
889.883	21214
890.006	21165
890.13	21165
890.254	21081
890.377	21005
890.501	20861
890.624	20796
890.748	21001
890.871	20864
890.995	20712
891.118	20621
891.241	20712
891.364	20667
891.488	20804
891.611	20731
891.734	20769
891.857	20670
891.98	20743
892.103	20849
892.226	20678
892.349	20602
892.471	20431
892.594	20625
892.717	20617
892.839	20537
892.962	20617
893.085	20636
893.207	20636
893.33	20560
893.452	20617
893.575	20708
893.697	20659
893.819	20834
893.941	20811
894.064	20743
894.186	20450
894.308	20427
894.43	20640
894.552	20781
894.674	20716
894.796	20446
894.918	20571
895.04	20511
895.161	20644
895.283	20670
895.405	20530
895.526	20629
895.648	20541
895.769	20617
895.891	20648
896.012	20636
896.134	20629
896.255	20655
896.376	20587
896.498	20644
896.619	20598
896.74	20651
896.861	20678
896.982	20914
897.103	21100
897.224	20872
897.345	20731
897.466	20746
897.587	20754
897.708	20982
897.828	20880
897.949	20609
898.07	20697
898.19	20655
898.311	20796
898.431	20750
898.552	20785
898.672	20739
898.792	20758
898.913	20773
899.033	20670
899.153	20617
899.273	20484
899.393	20526
899.513	20606
899.633	20598
899.753	20560
899.873	20518
899.993	20587
900.113	20469
900.232	20617
900.352	20431
900.472	20396
900.591	20377
900.711	20286
900.83	20275
900.95	20507
901.069	20408
901.189	20271
901.308	19959
901.427	19932
901.546	20031
901.665	19822
901.784	19780
901.904	19696
902.023	19597
902.141	19384
902.26	19438
902.379	19499
902.498	19441
902.617	19388
902.735	19411
902.854	19327
902.973	19346
903.091	19050
903.21	19072
903.328	19065
903.446	19088
903.565	18916
903.683	18825
903.801	18719
903.919	18787
904.038	18783
904.156	18597
904.274	18684
904.392	18681
904.51	18578
904.627	18563
904.745	18631
904.863	18669
904.981	18471
905.098	18327
905.216	18308
905.334	18315
905.451	18258
905.569	18346
905.686	18243
905.803	18388
905.921	18125
906.038	18194
906.155	18167
906.272	18053
906.389	17954
906.506	17840
906.623	17920
906.74	17912
906.857	17767
906.974	17703
907.091	17847
907.208	17996
907.324	17866
907.441	17718
907.557	17596
907.674	17589
907.79	17600
907.907	17528
908.023	17551
908.139	17668
908.256	17448
908.372	17433
908.488	17455
908.604	17254
908.72	17311
908.836	17204
908.952	17341
909.068	17353
909.184	17379
909.3	17208
909.415	17261
909.531	17303
909.647	17094
909.762	17025
909.878	16938
909.993	16968
910.108	16949
910.224	16934
910.339	16866
910.454	16847
910.57	16782
910.685	16771
910.8	17113
910.915	16908
911.03	16767
911.145	16569
911.259	16615
911.374	16546
911.489	16538
911.604	16386
911.718	16314
911.833	16284
911.947	16135
912.062	16010
912.176	16299
912.291	16223
912.405	16268
912.519	16489
912.633	16497
912.748	16337
912.862	16280
912.976	16025
913.09	15991
913.204	16090
913.318	16044
913.431	16124
913.545	16131
913.659	16135
913.772	16147
913.886	15926
914	15842
914.113	15975
914.226	16002
914.34	15922
914.453	15774
914.566	15903
914.68	15762
914.793	15755
914.906	15443
915.019	15481
915.132	15485
915.245	15447
915.358	15545
915.47	15496
915.583	15454
915.696	15523
915.809	15622
915.921	15656
916.034	15443
916.146	15454
916.259	15382
916.371	15458
916.483	15428
916.595	15256
916.708	15344
916.82	15317
916.932	15283
917.044	15275
917.156	15317
917.268	15127
917.38	15169
917.491	15085
917.603	15070
917.715	15123
917.826	15230
917.938	15123
918.049	14956
918.161	15051
918.272	15169
918.384	15222
918.495	15074
918.606	14895
918.717	14796
918.828	14910
918.939	14895
919.05	14815
919.161	14834
919.272	14686
919.383	14746
919.494	14918
919.604	15062
919.715	14864
919.826	14781
919.936	14788
920.047	14998
920.157	14849
920.267	15020
920.378	14842
920.488	14838
920.598	15077
920.708	15024
920.818	14861
920.928	15024
921.038	15085
921.148	15058
921.258	14800
921.368	14705
921.477	14552
921.587	14556
921.697	14438
921.806	14583
921.916	14434
922.025	14229
922.134	14176
922.244	14161
922.353	14153
922.462	14119
922.571	14111
922.68	13887
922.789	13864
922.898	13875
923.007	13788
923.116	13780
923.224	13860
923.333	13795
923.442	13674
923.55	13670
923.659	13715
923.767	13746
923.876	13575
923.984	13681
924.092	13552
924.201	13666
924.309	13597
924.417	13647
924.525	13556
924.633	13514
924.741	14271
924.849	13304
924.956	13354
925.064	13244
925.172	13282
925.279	13206
925.387	13259
925.494	13259
925.602	13247
925.709	13263
925.816	13190
925.924	13202
926.031	13335
926.138	13187
926.245	13240
926.352	13069
926.459	13175
926.566	13251
926.673	13053
926.779	13000
926.886	12962
926.993	12875
927.099	12692
927.206	12696
927.312	12768
927.419	12795
927.525	12738
927.631	12871
927.737	12601
927.843	12715
927.95	12528
928.056	12547
928.162	12646
928.267	12665
928.373	13179
928.479	12738
928.585	12410
928.69	12555
928.796	12570
928.901	12509
929.007	12281
929.112	12445
929.218	12311
929.323	12323
929.428	12376
929.533	12391
929.638	12270
929.743	12266
929.848	12327
929.953	12342
930.058	12140
930.163	12053
930.267	11992
930.372	12117
930.477	11965
930.581	12224
930.685	11992
930.79	11836
930.894	11939
930.998	11889
931.103	11992
931.207	11707
931.311	11554
931.415	11433
931.519	11277
931.623	11246
