Data from test_V78500241_2558.txt Node
Date: Fri Mar 25 15:27:40 CST 2022
User: usil
Spectrometer: V785-0024
Trigger mode: 0
Integration Time (sec): 4.000000E-1
Scans to average: 1
Nonlinearity correction enabled: false
Boxcar width: 0
Storing dark spectrum: false
XAxis mode: Wavelengths
Number of Pixels in Spectrum: 1024
>>>>>Begin Spectral Data<<<<<
801.071	27348
801.214	27199
801.356	26921
801.499	26853
801.641	26769
801.783	26777
801.926	26762
802.068	26785
802.211	26826
802.353	26659
802.496	26545
802.638	26503
802.78	26351
802.923	26248
803.065	26313
803.208	26313
803.35	26492
803.492	26617
803.635	26667
803.777	26412
803.919	26648
804.061	26887
804.204	26602
804.346	26530
804.488	26617
804.63	26549
804.773	26495
804.915	26640
805.057	26705
805.199	26556
805.341	26625
805.483	26796
805.626	26731
805.768	26629
805.91	26762
806.052	26697
806.194	26716
806.336	26804
806.478	26708
806.62	26727
806.762	26891
806.904	27085
807.046	27138
807.188	27176
807.33	27146
807.472	27241
807.614	27173
807.756	27104
807.898	27058
808.04	26880
808.182	26982
808.324	26971
808.465	26895
808.607	27249
808.749	27252
808.891	27325
809.033	27443
809.174	27416
809.316	27207
809.458	27325
809.6	27203
809.741	27351
809.883	27374
810.025	27447
810.166	27564
810.308	27557
810.45	27542
810.591	27511
810.733	27351
810.875	27260
811.016	27313
811.158	27256
811.299	27363
811.441	27610
811.582	27500
811.724	27355
811.865	27252
812.007	27462
812.148	27195
812.29	27336
812.431	27420
812.573	27492
812.714	27724
812.855	27926
812.997	27808
813.138	27892
813.279	27903
813.421	27884
813.562	27717
813.703	27644
813.845	27603
813.986	27237
814.127	27108
814.268	27039
814.41	27020
814.551	27112
814.692	26937
814.833	26960
814.974	26963
815.115	27013
815.256	26842
815.397	26735
815.539	26910
815.68	26826
815.821	26838
815.962	26765
816.103	26773
816.244	26541
816.385	26598
816.526	26587
816.666	26377
816.807	26153
816.948	26358
817.089	26339
817.23	26347
817.371	26317
817.512	26336
817.653	26256
817.793	26210
817.934	26168
818.075	26252
818.216	26324
818.356	26130
818.497	26157
818.638	25951
818.778	26012
818.919	25928
819.06	25993
819.2	26050
819.341	26195
819.481	26252
819.622	26396
819.762	26495
819.903	26503
820.043	26377
820.184	26393
820.324	26290
820.465	26522
820.605	26275
820.746	26256
820.886	26267
821.026	26195
821.167	26290
821.307	26351
821.447	26221
821.588	26107
821.728	26115
821.868	25906
822.008	25693
822.149	25731
822.289	25632
822.429	25396
822.569	25316
822.709	25301
822.849	25255
822.99	25194
823.13	25061
823.27	25156
823.41	25008
823.55	25008
823.69	25042
823.83	25133
823.97	24992
824.11	24905
824.25	24825
824.389	24768
824.529	24916
824.669	24817
824.809	24943
824.949	24920
825.089	25046
825.228	25000
825.368	24711
825.508	24688
825.648	24795
825.787	24688
825.927	24696
826.067	24802
826.206	24635
826.346	24795
826.485	24722
826.625	24882
826.765	24894
826.904	24589
827.044	24479
827.183	24475
827.323	24372
827.462	24486
827.601	24490
827.741	24445
827.88	24422
828.02	24399
828.159	24426
828.298	24441
828.437	24601
828.577	24483
828.716	24517
828.855	24327
828.994	24232
829.134	24247
829.273	24273
829.412	24098
829.551	24148
829.69	24194
829.829	24194
829.968	24277
830.107	24228
830.246	24281
830.385	23958
830.524	24003
830.663	23996
830.802	23946
830.941	23920
831.08	23764
831.219	23927
831.357	23931
831.496	23958
831.635	23794
831.774	23767
831.913	23760
832.051	23608
832.19	23680
832.329	23524
832.467	23547
832.606	23429
832.744	23353
832.883	23448
833.022	23535
833.16	23429
833.299	23478
833.437	23463
833.576	23535
833.714	23570
833.852	23729
833.991	23581
834.129	23474
834.267	23695
834.406	23493
834.544	23627
834.682	23558
834.821	23497
834.959	23855
835.097	23585
835.235	23562
835.373	23425
835.511	23516
835.65	23341
835.788	23353
835.926	23212
836.064	23273
836.202	23162
836.34	23368
836.478	23410
836.615	23318
836.753	23345
836.891	23471
837.029	23334
837.167	23254
837.305	23337
837.443	23292
837.58	23128
837.718	23414
837.856	23227
837.993	23197
838.131	23277
838.269	23056
838.406	23094
838.544	22968
838.681	22889
838.819	22873
838.956	22755
839.094	22778
839.231	22706
839.369	22847
839.506	23159
839.643	22908
839.781	22805
839.918	22607
840.055	22755
840.193	22767
840.33	22717
840.467	22740
840.604	22656
840.742	22980
840.879	22588
841.016	22599
841.153	22592
841.29	22725
841.427	22672
841.564	22748
841.701	22618
841.838	22523
841.975	22706
842.112	22599
842.249	22474
842.385	22596
842.522	22645
842.659	22531
842.796	22443
842.933	22261
843.069	22348
843.206	22375
843.343	22428
843.479	22519
843.616	22432
843.752	22261
843.889	22124
844.025	22299
844.162	22143
844.298	22265
844.435	22211
844.571	22158
844.708	22299
844.844	22306
844.98	22303
845.117	22375
845.253	22211
845.389	22036
845.525	22112
845.661	22010
845.798	21922
845.934	21854
846.07	21842
846.206	22017
846.342	22067
846.478	21949
846.614	21865
846.75	21507
846.886	21637
847.022	21694
847.158	21698
847.294	21644
847.429	21732
847.565	21675
847.701	21903
847.837	21348
847.972	21313
848.108	21519
848.244	21523
848.379	21332
848.515	21268
848.65	21211
848.786	21256
848.921	21279
849.057	21393
849.192	21424
849.328	21264
849.463	21268
849.598	21252
849.734	21146
849.869	21112
850.004	21138
850.14	21070
850.275	21161
850.41	20986
850.545	21039
850.68	21032
850.815	21074
850.95	20929
851.085	21127
851.22	21188
851.355	21009
851.49	21081
851.625	20963
851.76	20967
851.895	21005
852.03	20986
852.165	21112
852.299	21127
852.434	20979
852.569	21070
852.703	20971
852.838	21009
852.973	21138
853.107	21123
853.242	21051
853.376	20906
853.511	20724
853.645	20880
853.78	21001
853.914	20765
854.048	20883
854.183	20758
854.317	20788
854.451	21085
854.585	20899
854.72	20967
854.854	20849
854.988	20918
855.122	20929
855.256	20765
855.39	21009
855.524	20842
855.658	20967
855.792	20872
855.926	20872
856.06	20910
856.194	20994
856.327	20815
856.461	20762
856.595	20762
856.729	20815
856.862	20933
856.996	20796
857.13	20914
857.263	20857
857.397	20830
857.53	20861
857.664	20971
857.797	21039
857.931	20800
858.064	20792
858.197	20891
858.331	20800
858.464	20781
858.597	20891
858.731	20705
858.864	20868
858.997	20724
859.13	20849
859.263	20800
859.396	20914
859.529	20819
859.662	20842
859.795	20883
859.928	20842
860.061	21081
860.194	21104
860.327	20895
860.46	20857
860.592	21036
860.725	20967
860.858	20941
860.99	20834
861.123	20861
861.256	20891
861.388	20826
861.521	21519
861.653	20617
861.786	20750
861.918	20689
862.05	20853
862.183	20811
862.315	20758
862.447	20834
862.58	20857
862.712	20674
862.844	20575
862.976	20705
863.108	20617
863.24	21032
863.372	20495
863.504	20522
863.636	20442
863.768	20663
863.9	20533
864.032	20476
864.164	20503
864.296	20579
864.428	20663
864.559	20727
864.691	20735
864.823	20556
864.954	20678
865.086	20617
865.217	20530
865.349	20374
865.48	20434
865.612	20389
865.743	20621
865.875	20514
866.006	20507
866.137	20552
866.269	20507
866.4	20450
866.531	20457
866.662	20347
866.793	20366
866.924	20438
867.055	20461
867.186	20351
867.317	20366
867.448	20259
867.579	20400
867.71	20328
867.841	20431
867.972	20393
868.103	20499
868.233	20404
868.364	20412
868.495	20461
868.625	20598
868.756	20598
868.886	20461
869.017	20697
869.147	20678
869.278	20826
869.408	20682
869.539	20617
869.669	20701
869.799	20727
869.929	20701
870.06	20743
870.19	20902
870.32	21058
870.45	20998
870.58	21066
870.71	21131
870.84	21135
870.97	21104
871.1	21017
871.23	21203
871.36	21249
871.489	21203
871.619	21260
871.749	21233
871.879	21154
872.008	21355
872.138	21272
872.267	21237
872.397	21123
872.526	21055
872.656	21032
872.785	21119
872.915	21336
873.044	21485
873.173	21195
873.303	21325
873.432	21397
873.561	21393
873.69	21363
873.819	21226
873.948	21355
874.077	21260
874.206	21203
874.335	21268
874.464	21439
874.593	21526
874.722	21481
874.851	21599
874.979	21519
875.108	21454
875.237	21321
875.365	21420
875.494	21492
875.623	21519
875.751	21481
875.88	21591
876.008	21705
876.136	21816
876.265	21850
876.393	21968
876.521	21979
876.65	22006
876.778	21899
876.906	21892
877.034	21812
877.162	21857
877.29	21804
877.418	21907
877.546	21854
877.674	21709
877.802	21827
877.93	21892
878.058	21827
878.185	21804
878.313	21869
878.441	21827
878.568	21701
878.696	21755
878.824	21972
878.951	21972
879.079	22120
879.206	22265
879.333	22067
879.461	21884
879.588	22002
879.715	22044
879.842	22143
879.97	21838
880.097	21660
880.224	21656
880.351	21732
880.478	21629
880.605	21545
880.732	21682
880.859	21972
880.986	21690
881.112	21720
881.239	21526
881.366	21488
881.493	21332
881.619	21298
881.746	21389
881.872	21283
881.999	21230
882.125	21245
882.252	21256
882.378	21135
882.505	21294
882.631	21096
882.757	20998
882.883	21066
883.01	21032
883.136	20910
883.262	20880
883.388	20765
883.514	20918
883.64	20948
883.766	20857
883.892	20644
884.018	20883
884.143	20895
884.269	20929
884.395	20720
884.52	20644
884.646	20697
884.772	20480
884.897	20590
885.023	20640
885.148	20579
885.274	20830
885.399	20754
885.524	20552
885.65	20583
885.775	20655
885.9	20648
886.025	20655
886.15	20621
886.275	20621
886.4	20499
886.525	20545
886.65	20518
886.775	20556
886.9	20590
887.025	20807
887.149	20587
887.274	20381
887.399	20370
887.523	20324
887.648	20301
887.773	20381
887.897	20507
888.021	20473
888.146	20419
888.27	20317
888.395	20602
888.519	20362
888.643	20370
888.767	20393
888.891	20286
889.015	20214
889.139	20313
889.263	20298
889.387	20347
889.511	20450
889.635	20290
889.759	20290
889.883	20206
890.006	20126
890.13	20320
890.254	20256
890.377	20130
890.501	19974
890.624	20012
890.748	19887
890.871	19833
890.995	19731
891.118	19723
891.241	19811
891.364	19837
891.488	19894
891.611	19784
891.734	19849
891.857	19955
891.98	19890
892.103	19788
892.226	19761
892.349	19723
892.471	19670
892.594	19693
892.717	19719
892.839	19567
892.962	19559
893.085	19791
893.207	19651
893.33	19567
893.452	19674
893.575	19715
893.697	19704
893.819	19841
893.941	19955
894.064	19807
894.186	19746
894.308	19616
894.43	19685
894.552	19883
894.674	19818
894.796	19525
894.918	19624
895.04	19685
895.161	19639
895.283	19731
895.405	19540
895.526	19639
895.648	19704
895.769	19704
895.891	19746
896.012	19849
896.134	19780
896.255	19647
896.376	19609
896.498	19909
896.619	19643
896.74	19750
896.861	19753
896.982	20077
897.103	20278
897.224	20001
897.345	19932
897.466	19883
897.587	19917
897.708	20035
897.828	19947
897.949	19906
898.07	19734
898.19	19860
898.311	20046
898.431	19906
898.552	19978
898.672	19849
898.792	19875
898.913	19890
899.033	19849
899.153	19734
899.273	19567
899.393	19491
899.513	19731
899.633	19742
899.753	19624
899.873	19559
899.993	19597
900.113	19594
900.232	19742
900.352	19559
900.472	19529
900.591	19354
900.711	19445
900.83	19365
900.95	19559
901.069	19529
901.189	19293
901.308	19065
901.427	18954
901.546	19038
901.665	19114
901.784	19126
901.904	18878
902.023	18825
902.141	18623
902.26	18646
902.379	18677
902.498	18509
902.617	18570
902.735	18479
902.854	18486
902.973	18532
903.091	18251
903.21	18209
903.328	18209
903.446	18220
903.565	18034
903.683	18121
903.801	18049
903.919	17897
904.038	17942
904.156	17809
904.274	17870
904.392	17863
904.51	17813
904.627	17824
904.745	17908
904.863	17931
904.981	17642
905.098	17570
905.216	17528
905.334	17535
905.451	17417
905.569	17402
905.686	17482
905.803	17463
905.921	17265
906.038	17421
906.155	17250
906.272	17170
906.389	17185
906.506	17014
906.623	17056
906.74	17010
906.857	16999
906.974	16889
907.091	17090
907.208	17200
907.324	17083
907.441	16900
907.557	16759
907.674	16736
907.79	16653
907.907	16698
908.023	16733
908.139	16717
908.256	16710
908.372	16721
908.488	16721
908.604	16512
908.72	16424
908.836	16573
908.952	16447
909.068	16504
909.184	16569
909.3	16588
909.415	16523
909.531	16523
909.647	16234
909.762	16223
909.878	16246
909.993	16185
910.108	16211
910.224	16185
910.339	16166
910.454	16093
910.57	16044
910.685	15934
910.8	16196
910.915	16109
911.03	15960
911.145	15835
911.259	15842
911.374	15835
911.489	15823
911.604	15751
911.718	15466
911.833	15545
911.947	15496
912.062	15405
912.176	15580
912.291	15629
912.405	15641
912.519	15698
912.633	15827
912.748	15686
912.862	15507
912.976	15344
913.09	15249
913.204	15370
913.318	15408
913.431	15443
913.545	15443
913.659	15530
913.772	15397
913.886	15283
914	15291
914.113	15329
914.226	15256
914.34	15283
914.453	15066
914.566	15169
914.68	15135
914.793	15028
914.906	14899
915.019	14765
915.132	14686
915.245	14743
915.358	14880
915.47	14746
915.583	14811
915.696	14899
915.809	14952
915.921	14952
916.034	14746
916.146	14629
916.259	14670
916.371	14762
916.483	14849
916.595	14587
916.708	14693
916.82	14629
916.932	14568
917.044	14560
917.156	14621
917.268	14533
917.38	14431
917.491	14457
917.603	14488
917.715	14461
917.826	14495
917.938	14347
918.049	14259
918.161	14366
918.272	14465
918.384	14583
918.495	14393
918.606	14290
918.717	14168
918.828	14199
918.939	14149
919.05	14153
919.161	14153
919.272	13982
919.383	14058
919.494	14267
919.604	14431
919.715	14229
919.826	14199
919.936	14126
920.047	14351
920.157	14176
920.267	14488
920.378	14221
920.488	14111
920.598	14370
920.708	14476
920.818	14301
920.928	14324
921.038	14511
921.148	14377
921.258	14153
921.368	14035
921.477	13955
921.587	13902
921.697	13818
921.806	13947
921.916	13822
922.025	13689
922.134	13575
922.244	13537
922.353	13757
922.462	13335
922.571	13407
922.68	13278
922.789	13232
922.898	13255
923.007	13129
923.116	13232
923.224	13221
923.333	13255
923.442	13160
923.55	13015
923.659	13076
923.767	13099
923.876	12973
923.984	13057
924.092	12947
924.201	12973
924.309	13034
924.417	13000
924.525	12890
924.633	12909
924.741	13909
924.849	12677
924.956	12817
925.064	12616
925.172	12597
925.279	12570
925.387	12730
925.494	12654
925.602	12802
925.709	12829
925.816	12589
925.924	12578
926.031	12673
926.138	12620
926.245	12703
926.352	12399
926.459	12662
926.566	12650
926.673	12570
926.779	12376
926.886	12464
926.993	12289
927.099	12292
927.206	12178
927.312	12163
927.419	12327
927.525	12251
927.631	12277
927.737	12140
927.843	12083
927.95	11942
928.056	12068
928.162	12095
928.267	12083
928.373	12707
928.479	12140
928.585	11923
928.69	12053
928.796	12068
928.901	11927
929.007	11805
929.112	11969
929.218	11996
929.323	11859
929.428	11843
929.533	11931
929.638	11722
929.743	11779
929.848	11714
929.953	11767
930.058	11642
930.163	11482
930.267	11497
930.372	11630
930.477	11440
930.581	11707
930.685	11585
930.79	11391
930.894	11349
930.998	11383
931.103	11459
931.207	11102
931.311	11079
931.415	10972
931.519	10793
931.623	10771
