Data from test_V78500241_1188.txt Node
Date: Fri Mar 25 15:18:07 CST 2022
User: usil
Spectrometer: V785-0024
Trigger mode: 0
Integration Time (sec): 4.000000E-1
Scans to average: 1
Nonlinearity correction enabled: false
Boxcar width: 0
Storing dark spectrum: false
XAxis mode: Wavelengths
Number of Pixels in Spectrum: 1024
>>>>>Begin Spectral Data<<<<<
801.071	28017
801.214	27865
801.356	27698
801.499	27485
801.641	27420
801.783	27416
801.926	27591
802.068	27545
802.211	27405
802.353	27302
802.496	27116
802.638	27119
802.78	27096
802.923	27055
803.065	27070
803.208	26994
803.35	27077
803.492	27169
803.635	27260
803.777	27256
803.919	27252
804.061	27648
804.204	27374
804.346	27241
804.488	27096
804.63	27256
804.773	27218
804.915	27462
805.057	27386
805.199	27344
805.341	27405
805.483	27447
805.626	27370
805.768	27507
805.91	27351
806.052	27545
806.194	27351
806.336	27576
806.478	27500
806.62	27492
806.762	27507
806.904	27743
807.046	27987
807.188	27637
807.33	27713
807.472	27876
807.614	27827
807.756	27869
807.898	27804
808.04	27648
808.182	27549
808.324	27583
808.465	27918
808.607	27983
808.749	28086
808.891	28234
809.033	28162
809.174	28192
809.316	28025
809.458	28105
809.6	28006
809.741	28139
809.883	28257
810.025	28356
810.166	28363
810.308	28272
810.45	28242
810.591	28223
810.733	28013
810.875	28109
811.016	28059
811.158	28059
811.299	28120
811.441	28238
811.582	28135
811.724	28101
811.865	28120
812.007	28078
812.148	28112
812.29	28059
812.431	28204
812.573	28451
812.714	28474
812.855	28580
812.997	28683
813.138	28767
813.279	28759
813.421	28691
813.562	28649
813.703	28493
813.845	28390
813.986	28112
814.127	27842
814.268	27789
814.41	27922
814.551	27831
814.692	27876
814.833	27770
814.974	27675
815.115	27766
815.256	27595
815.397	27580
815.539	27766
815.68	27686
815.821	27416
815.962	27580
816.103	27591
816.244	27397
816.385	27241
816.526	27241
816.666	27256
816.807	27074
816.948	27173
817.089	27283
817.23	27047
817.371	27150
817.512	27199
817.653	27085
817.793	27028
817.934	27154
818.075	27146
818.216	27112
818.356	27036
818.497	26952
818.638	26800
818.778	26800
818.919	26887
819.06	26948
819.2	26994
819.341	27077
819.481	27093
819.622	27359
819.762	27336
819.903	27427
820.043	27195
820.184	27230
820.324	27116
820.465	27256
820.605	27272
820.746	27340
820.886	27055
821.026	27150
821.167	27123
821.307	27218
821.447	27138
821.588	26944
821.728	26800
821.868	26686
822.008	26568
822.149	26735
822.289	26518
822.429	26473
822.569	26256
822.709	26214
822.849	26008
822.99	25959
823.13	26065
823.27	26039
823.41	25887
823.55	25757
823.69	25849
823.83	25845
823.97	25906
824.11	25734
824.25	25639
824.389	25727
824.529	25776
824.669	25704
824.809	26016
824.949	25868
825.089	25940
825.228	25788
825.368	25609
825.508	25635
825.648	25681
825.787	25712
825.927	25727
826.067	25670
826.206	25662
826.346	25529
826.485	25628
826.625	25639
826.765	25803
826.904	25647
827.044	25369
827.183	25441
827.323	25301
827.462	25373
827.601	25453
827.741	25247
827.88	25407
828.02	25400
828.159	25350
828.298	25422
828.437	25476
828.577	25343
828.716	25365
828.855	25236
828.994	25042
829.134	25088
829.273	25061
829.412	25046
829.551	24924
829.69	25133
829.829	25091
829.968	25168
830.107	25133
830.246	25023
830.385	24973
830.524	24939
830.663	24829
830.802	24669
830.941	24623
831.08	24620
831.219	24757
831.357	24871
831.496	24992
831.635	24639
831.774	24684
831.913	24532
832.051	24521
832.19	24509
832.329	24494
832.467	24369
832.606	24285
832.744	24369
832.883	24289
833.022	24346
833.16	24445
833.299	24327
833.437	24338
833.576	24475
833.714	24403
833.852	24639
833.991	24570
834.129	24570
834.267	24540
834.406	24418
834.544	24391
834.682	24384
834.821	24384
834.959	24555
835.097	24391
835.235	24410
835.373	24494
835.511	24483
835.65	24338
835.788	24350
835.926	24140
836.064	24011
836.202	24220
836.34	24327
836.478	24323
836.615	24384
836.753	24353
836.891	24342
837.029	24205
837.167	24289
837.305	24140
837.443	24144
837.58	24114
837.718	24159
837.856	24076
837.993	24068
838.131	24167
838.269	24003
838.406	23954
838.544	23912
838.681	23703
838.819	23680
838.956	23608
839.094	23604
839.231	23619
839.369	23672
839.506	23973
839.643	23866
839.781	23608
839.918	23497
840.055	23520
840.193	23676
840.33	23372
840.467	23463
840.604	23471
840.742	23817
840.879	23349
841.016	23360
841.153	23406
841.29	23562
841.427	23531
841.564	23501
841.701	23452
841.838	23459
841.975	23395
842.112	23349
842.249	23261
842.385	23216
842.522	23436
842.659	23288
842.796	23242
842.933	23318
843.069	23181
843.206	23083
843.343	23311
843.479	23269
843.616	23239
843.752	23086
843.889	23018
844.025	23102
844.162	22946
844.298	23155
844.435	23102
844.571	23022
844.708	23033
844.844	23220
844.98	23094
845.117	23197
845.253	22991
845.389	22987
845.525	22904
845.661	22942
845.798	22702
845.934	22831
846.07	22702
846.206	22763
846.342	22740
846.478	22816
846.614	22512
846.75	22485
846.886	22382
847.022	22557
847.158	22466
847.294	22413
847.429	22527
847.565	22535
847.701	22736
847.837	22188
847.972	22215
848.108	22329
848.244	22325
848.379	22150
848.515	22177
848.65	22131
848.786	22219
848.921	22139
849.057	22105
849.192	22188
849.328	22135
849.463	22097
849.598	22055
849.734	21968
849.869	21922
850.004	21736
850.14	21876
850.275	21953
850.41	21819
850.545	21747
850.68	21793
850.815	21956
850.95	21774
851.085	21998
851.22	21945
851.355	21922
851.49	21800
851.625	21800
851.76	21892
851.895	21789
852.03	21660
852.165	21850
852.299	21880
852.434	21983
852.569	21785
852.703	21857
852.838	21873
852.973	21911
853.107	21888
853.242	21838
853.376	21755
853.511	21561
853.645	21622
853.78	21804
853.914	21572
854.048	21629
854.183	21652
854.317	21644
854.451	21865
854.585	21644
854.72	21713
854.854	21823
854.988	21507
855.122	21724
855.256	21500
855.39	21762
855.524	21720
855.658	21751
855.792	21739
855.926	21686
856.06	21739
856.194	21690
856.327	21720
856.461	21568
856.595	21523
856.729	21618
856.862	21876
856.996	21682
857.13	21660
857.263	21774
857.397	21732
857.53	21644
857.664	21603
857.797	21747
857.931	21880
858.064	21603
858.197	21865
858.331	21690
858.464	21545
858.597	21557
858.731	21675
858.864	21682
858.997	21633
859.13	21713
859.263	21583
859.396	21751
859.529	21637
859.662	21557
859.795	21564
859.928	21743
860.061	21789
860.194	21884
860.327	21720
860.46	21629
860.592	21641
860.725	21720
860.858	21759
860.99	21770
861.123	21561
861.256	21652
861.388	21644
861.521	22386
861.653	21507
861.786	21469
861.918	21549
862.05	21583
862.183	21652
862.315	21648
862.447	21572
862.58	21473
862.712	21408
862.844	21389
862.976	21435
863.108	21435
863.24	21663
863.372	21199
863.504	21287
863.636	21306
863.768	21500
863.9	21340
864.032	21397
864.164	21298
864.296	21450
864.428	21523
864.559	21435
864.691	21523
864.823	21447
864.954	21340
865.086	21355
865.217	21359
865.349	21207
865.48	21302
865.612	21336
865.743	21370
865.875	21393
866.006	21252
866.137	21245
866.269	21241
866.4	21287
866.531	21142
866.662	21188
866.793	21222
866.924	21096
867.055	21294
867.186	21207
867.317	21093
867.448	21169
867.579	21222
867.71	21085
867.841	21039
867.972	21214
868.103	21241
868.233	21260
868.364	21127
868.495	21367
868.625	21386
868.756	21511
868.886	21332
869.017	21526
869.147	21526
869.278	21545
869.408	21462
869.539	21412
869.669	21507
869.799	21447
869.929	21519
870.06	21545
870.19	21747
870.32	21766
870.45	21781
870.58	21690
870.71	21865
870.84	21873
870.97	21816
871.1	21865
871.23	22002
871.36	22010
871.489	21918
871.619	21922
871.749	21979
871.879	22044
872.008	22044
872.138	21972
872.267	21991
872.397	21846
872.526	21865
872.656	21865
872.785	21899
872.915	22032
873.044	21994
873.173	21987
873.303	22135
873.432	22021
873.561	22105
873.69	22150
873.819	22002
873.948	22010
874.077	22044
874.206	21903
874.335	22013
874.464	22036
874.593	22310
874.722	22109
874.851	22230
874.979	22337
875.108	22337
875.237	22265
875.365	22173
875.494	22219
875.623	22303
875.751	22287
875.88	22272
876.008	22470
876.136	22424
876.265	22721
876.393	22710
876.521	22694
876.65	22752
876.778	22577
876.906	22565
877.034	22603
877.162	22664
877.29	22649
877.418	22653
877.546	22626
877.674	22538
877.802	22573
877.93	22596
878.058	22573
878.185	22447
878.313	22531
878.441	22626
878.568	22394
878.696	22573
878.824	22653
878.951	22725
879.079	22786
879.206	22786
879.333	22805
879.461	22660
879.588	22755
879.715	22717
879.842	22835
879.97	22660
880.097	22390
880.224	22485
880.351	22535
880.478	22348
880.605	22417
880.732	22371
880.859	22641
880.986	22470
881.112	22390
881.239	22519
881.366	22169
881.493	22097
881.619	21979
881.746	22010
881.872	21949
881.999	21922
882.125	22051
882.252	22124
882.378	22006
882.505	22185
882.631	21797
882.757	21656
882.883	21736
883.01	21732
883.136	21625
883.262	21720
883.388	21561
883.514	21690
883.64	21736
883.766	21679
883.892	21496
884.018	21504
884.143	21561
884.269	21671
884.395	21397
884.52	21401
884.646	21435
884.772	21222
884.897	21119
885.023	21233
885.148	21469
885.274	21416
885.399	21420
885.524	21245
885.65	21351
885.775	21302
885.9	21245
886.025	21469
886.15	21374
886.275	21298
886.4	21195
886.525	21165
886.65	21218
886.775	21203
886.9	21515
887.025	21603
887.149	21321
887.274	21108
887.399	21047
887.523	21116
887.648	21013
887.773	21032
887.897	21081
888.021	21199
888.146	21020
888.27	21100
888.395	21260
888.519	21024
888.643	21146
888.767	21150
888.891	20975
889.015	20937
889.139	20975
889.263	20845
889.387	20963
889.511	21036
889.635	21058
889.759	20864
889.883	20979
890.006	20960
890.13	21104
890.254	20910
890.377	20830
890.501	20670
890.624	20583
890.748	20686
890.871	20640
890.995	20438
891.118	20438
891.241	20457
891.364	20431
891.488	20606
891.611	20450
891.734	20431
891.857	20473
891.98	20404
892.103	20476
892.226	20408
892.349	20461
892.471	20309
892.594	20282
892.717	20374
892.839	20317
892.962	20298
893.085	20351
893.207	20324
893.33	20294
893.452	20301
893.575	20385
893.697	20328
893.819	20602
893.941	20518
894.064	20446
894.186	20351
894.308	20294
894.43	20457
894.552	20438
894.674	20461
894.796	20347
894.918	20301
895.04	20237
895.161	20385
895.283	20450
895.405	20210
895.526	20244
895.648	20374
895.769	20324
895.891	20404
896.012	20263
896.134	20290
896.255	20351
896.376	20282
896.498	20438
896.619	20282
896.74	20381
896.861	20275
896.982	20560
897.103	20735
897.224	20526
897.345	20602
897.466	20404
897.587	20507
897.708	20705
897.828	20533
897.949	20507
898.07	20396
898.19	20488
898.311	20663
898.431	20511
898.552	20571
898.672	20693
898.792	20594
898.913	20511
899.033	20396
899.153	20381
899.273	20187
899.393	20290
899.513	20237
899.633	20275
899.753	20309
899.873	20305
899.993	20336
900.113	20138
900.232	20317
900.352	20199
900.472	20138
900.591	20054
900.711	20111
900.83	20043
900.95	20142
901.069	20119
901.189	19921
901.308	19723
901.427	19651
901.546	19613
901.665	19677
901.784	19681
901.904	19441
902.023	19403
902.141	19240
902.26	19148
902.379	19335
902.498	19080
902.617	19126
902.735	19240
902.854	19129
902.973	19122
903.091	18783
903.21	18856
903.328	18852
903.446	18806
903.565	18646
903.683	18665
903.801	18506
903.919	18483
904.038	18528
904.156	18528
904.274	18460
904.392	18467
904.51	18418
904.627	18422
904.745	18506
904.863	18365
904.981	18167
905.098	18148
905.216	18171
905.334	18057
905.451	18087
905.569	18053
905.686	18114
905.803	18041
905.921	17939
906.038	17916
906.155	17851
906.272	17767
906.389	17817
906.506	17623
906.623	17726
906.74	17695
906.857	17459
906.974	17608
907.091	17710
907.208	17668
907.324	17562
907.441	17570
907.557	17379
907.674	17398
907.79	17288
907.907	17166
908.023	17387
908.139	17326
908.256	17353
908.372	17242
908.488	17204
908.604	17113
908.72	17071
908.836	17018
908.952	17037
909.068	17060
909.184	17181
909.3	16961
909.415	17109
909.531	16957
909.647	16847
909.762	16752
909.878	16748
909.993	16816
910.108	16748
910.224	16672
910.339	16702
910.454	16611
910.57	16558
910.685	16626
910.8	16801
910.915	16752
911.03	16546
911.145	16413
911.259	16341
911.374	16310
911.489	16215
911.604	16200
911.718	16067
911.833	16109
911.947	15937
912.062	15945
912.176	16013
912.291	16074
912.405	15979
912.519	16177
912.633	16249
912.748	16055
912.862	15994
912.976	15968
913.09	15724
913.204	15865
913.318	15949
913.431	15956
913.545	15930
913.659	16017
913.772	15907
913.886	15660
914	15652
914.113	15789
914.226	15804
914.34	15804
914.453	15584
914.566	15690
914.68	15549
914.793	15557
914.906	15454
915.019	15416
915.132	15237
915.245	15340
915.358	15370
915.47	15264
915.583	15222
915.696	15214
915.809	15363
915.921	15382
916.034	15173
916.146	15275
916.259	15161
916.371	15279
916.483	15173
916.595	15142
916.708	15203
916.82	15184
916.932	15020
917.044	15055
917.156	15009
917.268	14963
917.38	14979
917.491	14906
917.603	14838
917.715	14986
917.826	15036
917.938	14857
918.049	14724
918.161	14830
918.272	15077
918.384	15039
918.495	14804
918.606	14746
918.717	14621
918.828	14724
918.939	14674
919.05	14602
919.161	14655
919.272	14446
919.383	14556
919.494	14697
919.604	14895
919.715	14663
919.826	14503
919.936	14705
920.047	14693
920.157	14644
920.267	14830
920.378	14629
920.488	14621
920.598	14838
920.708	14960
920.818	14735
920.928	14826
921.038	14902
921.148	14785
921.258	14610
921.368	14431
921.477	14317
921.587	14476
921.697	14233
921.806	14351
921.916	14237
922.025	14092
922.134	14050
922.244	13947
922.353	14016
922.462	13932
922.571	13791
922.68	13597
922.789	13624
922.898	13719
923.007	13514
923.116	13616
923.224	13738
923.333	13578
923.442	13388
923.55	13480
923.659	13556
923.767	13533
923.876	13548
923.984	13480
924.092	13426
924.201	13441
924.309	13327
924.417	13373
924.525	13392
924.633	13350
924.741	13978
924.849	13095
924.956	13297
925.064	13099
925.172	12985
925.279	13114
925.387	13012
925.494	13080
925.602	13190
925.709	13099
925.816	13015
925.924	13114
926.031	13072
926.138	13110
926.245	13095
926.352	12856
926.459	13099
926.566	13129
926.673	12901
926.779	12798
926.886	12787
926.993	12616
927.099	12627
927.206	12639
927.312	12551
927.419	12593
927.525	12631
927.631	12604
927.737	12528
927.843	12502
927.95	12323
928.056	12490
928.162	12494
928.267	12384
928.373	13038
928.479	12460
928.585	12277
928.69	12410
928.796	12410
928.901	12232
929.007	12209
929.112	12277
929.218	12194
929.323	12205
929.428	12232
929.533	12319
929.638	12133
929.743	12175
929.848	12232
929.953	12068
930.058	11946
930.163	11904
930.267	11977
930.372	12026
930.477	11939
930.581	12045
930.685	11908
930.79	11786
930.894	11741
930.998	11767
931.103	11901
931.207	11528
931.311	11436
931.415	11318
931.519	11098
931.623	11071
