Data from test_V78500241_1758.txt Node
Date: Fri Mar 25 15:22:05 CST 2022
User: usil
Spectrometer: V785-0024
Trigger mode: 0
Integration Time (sec): 4.000000E-1
Scans to average: 1
Nonlinearity correction enabled: false
Boxcar width: 0
Storing dark spectrum: false
XAxis mode: Wavelengths
Number of Pixels in Spectrum: 1024
>>>>>Begin Spectral Data<<<<<
801.071	27823
801.214	27797
801.356	27648
801.499	27553
801.641	27492
801.783	27359
801.926	27561
802.068	27351
802.211	27332
802.353	27241
802.496	27138
802.638	27135
802.78	27100
802.923	27047
803.065	26990
803.208	26823
803.35	27112
803.492	27150
803.635	27340
803.777	27218
803.919	27211
804.061	27682
804.204	27275
804.346	27252
804.488	27169
804.63	27321
804.773	27173
804.915	27313
805.057	27412
805.199	27416
805.341	27420
805.483	27416
805.626	27363
805.768	27317
805.91	27412
806.052	27378
806.194	27241
806.336	27698
806.478	27420
806.62	27344
806.762	27454
806.904	27671
807.046	27819
807.188	27819
807.33	27899
807.472	27781
807.614	27701
807.756	27975
807.898	27766
808.04	27713
808.182	27690
808.324	27766
808.465	27637
808.607	27865
808.749	28124
808.891	28169
809.033	28177
809.174	28120
809.316	28093
809.458	28032
809.6	28048
809.741	28093
809.883	28147
810.025	28299
810.166	28348
810.308	28386
810.45	28131
810.591	28135
810.733	28070
810.875	27945
811.016	27884
811.158	27918
811.299	28067
811.441	28200
811.582	28059
811.724	28101
811.865	27876
812.007	27907
812.148	27934
812.29	28010
812.431	28242
812.573	28398
812.714	28375
812.855	28603
812.997	28691
813.138	28869
813.279	28664
813.421	28592
813.562	28577
813.703	28516
813.845	28219
813.986	27983
814.127	27747
814.268	27724
814.41	27720
814.551	27819
814.692	27739
814.833	27637
814.974	27564
815.115	27709
815.256	27553
815.397	27564
815.539	27671
815.68	27542
815.821	27511
815.962	27477
816.103	27393
816.244	27351
816.385	27256
816.526	27203
816.666	27154
816.807	27009
816.948	27104
817.089	27192
817.23	27123
817.371	26979
817.512	26944
817.653	26933
817.793	26921
817.934	27036
818.075	26918
818.216	27001
818.356	26933
818.497	26686
818.638	26796
818.778	26746
818.919	26758
819.06	26918
819.2	26838
819.341	26994
819.481	26963
819.622	27230
819.762	27412
819.903	27138
820.043	27142
820.184	27135
820.324	27081
820.465	27256
820.605	27275
820.746	27123
820.886	26940
821.026	27192
821.167	27051
821.307	27157
821.447	27062
821.588	26830
821.728	26716
821.868	26674
822.008	26606
822.149	26434
822.289	26355
822.429	26233
822.569	26221
822.709	26172
822.849	26024
822.99	26084
823.13	25966
823.27	25947
823.41	25845
823.55	25651
823.69	25822
823.83	25906
823.97	25769
824.11	25632
824.25	25590
824.389	25689
824.529	25628
824.669	25689
824.809	25795
824.949	25605
825.089	25852
825.228	25594
825.368	25506
825.508	25537
825.648	25525
825.787	25487
825.927	25544
826.067	25472
826.206	25571
826.346	25552
826.485	25575
826.625	25525
826.765	25651
826.904	25514
827.044	25354
827.183	25381
827.323	25278
827.462	25411
827.601	25301
827.741	25137
827.88	25301
828.02	25053
828.159	25110
828.298	25255
828.437	25209
828.577	25255
828.716	25308
828.855	25057
828.994	25019
829.134	24894
829.273	25053
829.412	24890
829.551	24958
829.69	24871
829.829	24992
829.968	25038
830.107	24932
830.246	24894
830.385	24920
830.524	24810
830.663	24707
830.802	24711
830.941	24574
831.08	24540
831.219	24544
831.357	24616
831.496	24768
831.635	24559
831.774	24604
831.913	24403
832.051	24315
832.19	24353
832.329	24308
832.467	24201
832.606	24224
832.744	24136
832.883	24315
833.022	24133
833.16	24133
833.299	24262
833.437	24311
833.576	24410
833.714	24429
833.852	24330
833.991	24422
834.129	24369
834.267	24410
834.406	24289
834.544	24201
834.682	24171
834.821	24285
834.959	24414
835.097	24315
835.235	24289
835.373	24311
835.511	24243
835.65	24110
835.788	24262
835.926	24121
836.064	24011
836.202	24057
836.34	24163
836.478	24209
836.615	24098
836.753	24095
836.891	24289
837.029	24171
837.167	23965
837.305	24197
837.443	23923
837.58	23863
837.718	24076
837.856	23855
837.993	23999
838.131	24007
838.269	23783
838.406	24030
838.544	23714
838.681	23733
838.819	23634
838.956	23452
839.094	23444
839.231	23634
839.369	23611
839.506	23874
839.643	23733
839.781	23524
839.918	23376
840.055	23440
840.193	23353
840.33	23330
840.467	23330
840.604	23406
840.742	23653
840.879	23254
841.016	23414
841.153	23231
841.29	23501
841.427	23501
841.564	23425
841.701	23368
841.838	23303
841.975	23440
842.112	23360
842.249	23235
842.385	23037
842.522	23307
842.659	23227
842.796	23025
842.933	23193
843.069	23098
843.206	23075
843.343	23174
843.479	23098
843.616	23159
843.752	22999
843.889	22949
844.025	22995
844.162	22923
844.298	22968
844.435	22885
844.571	22869
844.708	22915
844.844	23048
844.98	23071
845.117	23128
845.253	22809
845.389	22759
845.525	22885
845.661	22816
845.798	22755
845.934	22554
846.07	22542
846.206	22622
846.342	22797
846.478	22683
846.614	22402
846.75	22352
846.886	22367
847.022	22405
847.158	22238
847.294	22306
847.429	22489
847.565	22242
847.701	22626
847.837	22223
847.972	22078
848.108	22120
848.244	22192
848.379	21937
848.515	21998
848.65	21911
848.786	22021
848.921	22048
849.057	22124
849.192	21956
849.328	22044
849.463	22055
849.598	21960
849.734	21880
849.869	21793
850.004	21793
850.14	21831
850.275	21755
850.41	21652
850.545	21545
850.68	21679
850.815	21724
850.95	21698
851.085	21998
851.22	21907
851.355	21739
851.49	21675
851.625	21774
851.76	21679
851.895	21618
852.03	21641
852.165	21720
852.299	21873
852.434	21751
852.569	21743
852.703	21732
852.838	21656
852.973	21785
853.107	21797
853.242	21557
853.376	21564
853.511	21428
853.645	21553
853.78	21793
853.914	21614
854.048	21397
854.183	21538
854.317	21606
854.451	21751
854.585	21450
854.72	21572
854.854	21606
854.988	21454
855.122	21454
855.256	21367
855.39	21583
855.524	21595
855.658	21534
855.792	21420
855.926	21507
856.06	21564
856.194	21686
856.327	21507
856.461	21526
856.595	21439
856.729	21511
856.862	21694
856.996	21534
857.13	21511
857.263	21656
857.397	21648
857.53	21485
857.664	21595
857.797	21519
857.931	21652
858.064	21766
858.197	21682
858.331	21523
858.464	21564
858.597	21458
858.731	21545
858.864	21557
858.997	21439
859.13	21511
859.263	21614
859.396	21606
859.529	21469
859.662	21439
859.795	21481
859.928	21473
860.061	21625
860.194	21728
860.327	21690
860.46	21629
860.592	21648
860.725	21564
860.858	21603
860.99	21428
861.123	21466
861.256	21477
861.388	21545
861.521	22169
861.653	21310
861.786	21344
861.918	21412
862.05	21450
862.183	21504
862.315	21469
862.447	21641
862.58	21549
862.712	21291
862.844	21154
862.976	21332
863.108	21317
863.24	21629
863.372	21180
863.504	21218
863.636	21150
863.768	21382
863.9	21173
864.032	21203
864.164	21195
864.296	21241
864.428	21287
864.559	21351
864.691	21355
864.823	21256
864.954	21233
865.086	21249
865.217	21119
865.349	21077
865.48	21081
865.612	21123
865.743	21279
865.875	21138
866.006	21070
866.137	21036
866.269	21169
866.4	21180
866.531	21032
866.662	21062
866.793	21058
866.924	21112
867.055	21176
867.186	21036
867.317	21009
867.448	20960
867.579	21066
867.71	21070
867.841	21020
867.972	21051
868.103	20963
868.233	21058
868.364	21081
868.495	21260
868.625	21302
868.756	21355
868.886	21291
869.017	21355
869.147	21488
869.278	21408
869.408	21405
869.539	21439
869.669	21367
869.799	21386
869.929	21473
870.06	21447
870.19	21599
870.32	21705
870.45	21583
870.58	21606
870.71	21762
870.84	21766
870.97	21644
871.1	21785
871.23	21762
871.36	21865
871.489	21876
871.619	21766
871.749	21869
871.879	22006
872.008	22017
872.138	21953
872.267	21812
872.397	21747
872.526	21865
872.656	21671
872.785	21774
872.915	21854
873.044	21903
873.173	21968
873.303	21907
873.432	21987
873.561	21968
873.69	22002
873.819	21918
873.948	22002
874.077	22029
874.206	21987
874.335	21846
874.464	22040
874.593	22257
874.722	21998
874.851	22238
874.979	22051
875.108	22284
875.237	22082
875.365	22025
875.494	22109
875.623	22226
875.751	22215
875.88	22105
876.008	22382
876.136	22246
876.265	22546
876.393	22557
876.521	22569
876.65	22748
876.778	22557
876.906	22417
877.034	22443
877.162	22440
877.29	22398
877.418	22398
877.546	22462
877.674	22500
877.802	22516
877.93	22455
878.058	22417
878.185	22421
878.313	22348
878.441	22409
878.568	22314
878.696	22470
878.824	22519
878.951	22489
879.079	22538
879.206	22706
879.333	22634
879.461	22565
879.588	22653
879.715	22736
879.842	22656
879.97	22546
880.097	22272
880.224	22398
880.351	22310
880.478	22295
880.605	22204
880.732	22291
880.859	22565
880.986	22329
881.112	22341
881.239	22109
881.366	22067
881.493	22055
881.619	21892
881.746	21827
881.872	21873
881.999	21903
882.125	21785
882.252	21930
882.378	21781
882.505	21922
882.631	21759
882.757	21549
882.883	21652
883.01	21576
883.136	21538
883.262	21431
883.388	21450
883.514	21523
883.64	21622
883.766	21420
883.892	21245
884.018	21348
884.143	21583
884.269	21667
884.395	21348
884.52	21184
884.646	21245
884.772	21112
884.897	20986
885.023	21146
885.148	21218
885.274	21340
885.399	21283
885.524	21252
885.65	21310
885.775	21329
885.9	21173
886.025	21192
886.15	21344
886.275	21108
886.4	21154
886.525	21188
886.65	21142
886.775	21176
886.9	21310
887.025	21386
887.149	21176
887.274	20986
887.399	21081
887.523	20994
887.648	20967
887.773	20929
887.897	21127
888.021	21024
888.146	20933
888.27	21096
888.395	21135
888.519	20975
888.643	21131
888.767	20994
888.891	20918
889.015	20838
889.139	20769
889.263	20705
889.387	20963
889.511	20895
889.635	20960
889.759	20750
889.883	20845
890.006	20804
890.13	20906
890.254	20651
890.377	20701
890.501	20522
890.624	20522
890.748	20583
890.871	20465
890.995	20400
891.118	20298
891.241	20457
891.364	20336
891.488	20545
891.611	20263
891.734	20336
891.857	20370
891.98	20400
892.103	20358
892.226	20362
892.349	20317
892.471	20111
892.594	20298
892.717	20339
892.839	20267
892.962	20271
893.085	20263
893.207	20290
893.33	20073
893.452	20187
893.575	20294
893.697	20259
893.819	20404
893.941	20423
894.064	20377
894.186	20153
894.308	20111
894.43	20317
894.552	20454
894.674	20347
894.796	20149
894.918	20309
895.04	20252
895.161	20282
895.283	20320
895.405	20206
895.526	20229
895.648	20256
895.769	20149
895.891	20324
896.012	20355
896.134	20332
896.255	20256
896.376	20126
896.498	20157
896.619	20271
896.74	20210
896.861	20317
896.982	20579
897.103	20659
897.224	20511
897.345	20434
897.466	20412
897.587	20442
897.708	20571
897.828	20427
897.949	20404
898.07	20225
898.19	20355
898.311	20609
898.431	20442
898.552	20465
898.672	20499
898.792	20579
898.913	20545
899.033	20427
899.153	20221
899.273	20164
899.393	20271
899.513	20282
899.633	20168
899.753	20301
899.873	20084
899.993	20218
900.113	20149
900.232	20191
900.352	20149
900.472	20031
900.591	19989
900.711	20016
900.83	19883
900.95	20077
901.069	20130
901.189	19849
901.308	19578
901.427	19578
901.546	19655
901.665	19533
901.784	19609
901.904	19274
902.023	19190
902.141	19221
902.26	19175
902.379	19107
902.498	18977
902.617	18966
902.735	19019
902.854	19057
902.973	18977
903.091	18715
903.21	18821
903.328	18840
903.446	18654
903.565	18563
903.683	18650
903.801	18456
903.919	18513
904.038	18506
904.156	18350
904.274	18372
904.392	18319
904.51	18319
904.627	18247
904.745	18304
904.863	18311
904.981	18022
905.098	17999
905.216	17992
905.334	18072
905.451	17980
905.569	18060
905.686	18045
905.803	17999
905.921	17699
906.038	17817
906.155	17817
906.272	17741
906.389	17745
906.506	17448
906.623	17558
906.74	17436
906.857	17372
906.974	17398
907.091	17619
907.208	17726
907.324	17554
907.441	17433
907.557	17254
907.674	17280
907.79	17121
907.907	17178
908.023	17261
908.139	17254
908.256	17227
908.372	17041
908.488	17117
908.604	17018
908.72	16965
908.836	16961
908.952	16889
909.068	16911
909.184	16930
909.3	16961
909.415	17006
909.531	16896
909.647	16710
909.762	16744
909.878	16691
909.993	16607
910.108	16596
910.224	16577
910.339	16634
910.454	16535
910.57	16440
910.685	16341
910.8	16611
910.915	16679
911.03	16478
911.145	16303
911.259	16169
911.374	16303
911.489	16196
911.604	16109
911.718	16044
911.833	15991
911.947	15880
912.062	15720
912.176	15953
912.291	15953
912.405	15941
912.519	16112
912.633	16097
912.748	15983
912.862	15922
912.976	15846
913.09	15713
913.204	15762
913.318	15831
913.431	15869
913.545	15869
913.659	15903
913.772	15774
913.886	15675
914	15698
914.113	15724
914.226	15766
914.34	15622
914.453	15523
914.566	15713
914.68	15576
914.793	15458
914.906	15264
915.019	15287
915.132	15085
915.245	15226
915.358	15226
915.47	15237
915.583	15268
915.696	15222
915.809	15344
915.921	15336
916.034	15161
916.146	15135
916.259	15100
916.371	15192
916.483	15275
916.595	15150
916.708	15024
916.82	15055
916.932	14990
917.044	14986
917.156	14967
917.268	14781
917.38	14918
917.491	14823
917.603	14899
917.715	14861
917.826	14925
917.938	14834
918.049	14674
918.161	14830
918.272	14914
918.384	14960
918.495	14773
918.606	14621
918.717	14583
918.828	14629
918.939	14735
919.05	14568
919.161	14667
919.272	14366
919.383	14434
919.494	14689
919.604	14899
919.715	14537
919.826	14533
919.936	14495
920.047	14571
920.157	14537
920.267	14746
920.378	14560
920.488	14537
920.598	14720
920.708	14933
920.818	14632
920.928	14697
921.038	14868
921.148	14705
921.258	14499
921.368	14473
921.477	14374
921.587	14305
921.697	14126
921.806	14370
921.916	14081
922.025	14149
922.134	13936
922.244	13928
922.353	13947
922.462	13875
922.571	13704
922.68	13670
922.789	13586
922.898	13624
923.007	13601
923.116	13510
923.224	13632
923.333	13533
923.442	13369
923.55	13384
923.659	13415
923.767	13460
923.876	13384
923.984	13525
924.092	13312
924.201	13304
924.309	13297
924.417	13274
924.525	13209
924.633	13297
924.741	14027
924.849	13053
924.956	13228
925.064	13015
925.172	12890
925.279	12966
925.387	13076
925.494	12894
925.602	13091
925.709	13110
925.816	12856
925.924	12890
926.031	13012
926.138	12913
926.245	13015
926.352	12856
926.459	13008
926.566	12966
926.673	12951
926.779	12745
926.886	12757
926.993	12662
927.099	12559
927.206	12509
927.312	12513
927.419	12700
927.525	12566
927.631	12532
927.737	12418
927.843	12498
927.95	12380
928.056	12350
928.162	12418
928.267	12429
928.373	13019
928.479	12547
928.585	12270
928.69	12330
928.796	12418
928.901	12175
929.007	12136
929.112	12289
929.218	12243
929.323	12057
929.428	12121
929.533	12281
929.638	12068
929.743	11999
929.848	12034
929.953	12003
930.058	11969
930.163	11760
930.267	11855
930.372	11847
930.477	11737
930.581	11984
930.685	11832
930.79	11688
930.894	11729
930.998	11672
931.103	11802
931.207	11395
931.311	11345
931.415	11201
931.519	11098
931.623	11010
