Data from test_V78500241_1858.txt Node
Date: Fri Mar 25 15:22:47 CST 2022
User: usil
Spectrometer: V785-0024
Trigger mode: 0
Integration Time (sec): 4.000000E-1
Scans to average: 1
Nonlinearity correction enabled: false
Boxcar width: 0
Storing dark spectrum: false
XAxis mode: Wavelengths
Number of Pixels in Spectrum: 1024
>>>>>Begin Spectral Data<<<<<
801.071	28002
801.214	27770
801.356	27610
801.499	27469
801.641	27306
801.783	27378
801.926	27340
802.068	27367
802.211	27359
802.353	27203
802.496	27005
802.638	26929
802.78	26998
802.923	26883
803.065	26986
803.208	26785
803.35	26960
803.492	27047
803.635	27195
803.777	27047
803.919	27245
804.061	27363
804.204	27176
804.346	27142
804.488	27112
804.63	27116
804.773	27104
804.915	27260
805.057	27184
805.199	27154
805.341	27211
805.483	27260
805.626	27351
805.768	27214
805.91	27226
806.052	27188
806.194	27169
806.336	27466
806.478	27302
806.62	27230
806.762	27363
806.904	27622
807.046	27762
807.188	27618
807.33	27755
807.472	27728
807.614	27709
807.756	27614
807.898	27701
808.04	27389
808.182	27530
808.324	27496
808.465	27553
808.607	27861
808.749	27960
808.891	28044
809.033	28112
809.174	27979
809.316	27880
809.458	27930
809.6	27812
809.741	27934
809.883	28074
810.025	28226
810.166	28044
810.308	28211
810.45	28109
810.591	28116
810.733	27937
810.875	27895
811.016	27682
811.158	27755
811.299	28013
811.441	27987
811.582	27987
811.724	27880
811.865	27941
812.007	27926
812.148	27755
812.29	27953
812.431	27998
812.573	28226
812.714	28363
812.855	28489
812.997	28428
813.138	28687
813.279	28519
813.421	28428
813.562	28291
813.703	28242
813.845	28200
813.986	27747
814.127	27694
814.268	27515
814.41	27663
814.551	27614
814.692	27747
814.833	27496
814.974	27568
815.115	27534
815.256	27435
815.397	27583
815.539	27515
815.68	27351
815.821	27427
815.962	27435
816.103	27519
816.244	27332
816.385	27135
816.526	27226
816.666	26986
816.807	26929
816.948	26986
817.089	27036
817.23	26975
817.371	26880
817.512	26823
817.653	26792
817.793	26716
817.934	26838
818.075	26944
818.216	26925
818.356	26807
818.497	26811
818.638	26648
818.778	26594
818.919	26621
819.06	26663
819.2	26777
819.341	26956
819.481	26746
819.622	27066
819.762	27222
819.903	27020
820.043	27005
820.184	27199
820.324	27047
820.465	27055
820.605	27001
820.746	26986
820.886	26811
821.026	26921
821.167	26883
821.307	27058
821.447	26887
821.588	26773
821.728	26682
821.868	26457
822.008	26355
822.149	26385
822.289	26309
822.429	26233
822.569	26130
822.709	26107
822.849	25925
822.99	25925
823.13	25902
823.27	25731
823.41	25723
823.55	25655
823.69	25700
823.83	25757
823.97	25521
824.11	25377
824.25	25548
824.389	25422
824.529	25677
824.669	25415
824.809	25635
824.949	25643
825.089	25544
825.228	25635
825.368	25339
825.508	25259
825.648	25407
825.787	25468
825.927	25567
826.067	25324
826.206	25419
826.346	25483
826.485	25529
826.625	25377
826.765	25426
826.904	25388
827.044	25156
827.183	25259
827.323	25285
827.462	25084
827.601	25027
827.741	25088
827.88	25141
828.02	24970
828.159	25031
828.298	25076
828.437	25244
828.577	25076
828.716	25080
828.855	25038
828.994	24825
829.134	24795
829.273	24764
829.412	24783
829.551	24730
829.69	24840
829.829	24787
829.968	24867
830.107	24897
830.246	24806
830.385	24585
830.524	24646
830.663	24521
830.802	24532
830.941	24471
831.08	24407
831.219	24502
831.357	24654
831.496	24616
831.635	24399
831.774	24334
831.913	24361
832.051	24155
832.19	24266
832.329	24098
832.467	24049
832.606	24095
832.744	24079
832.883	24098
833.022	24064
833.16	24053
833.299	24159
833.437	24182
833.576	24121
833.714	24060
833.852	24270
833.991	24152
834.129	24254
834.267	24254
834.406	24133
834.544	24182
834.682	24102
834.821	24015
834.959	24254
835.097	24083
835.235	24213
835.373	24254
835.511	24152
835.65	24022
835.788	24026
835.926	23843
836.064	23882
836.202	23988
836.34	24117
836.478	24015
836.615	23980
836.753	24068
836.891	24140
837.029	24003
837.167	24030
837.305	24007
837.443	23935
837.58	23809
837.718	23885
837.856	23851
837.993	23642
838.131	23908
838.269	23805
838.406	23920
838.544	23828
838.681	23520
838.819	23501
838.956	23269
839.094	23242
839.231	23455
839.369	23516
839.506	23680
839.643	23474
839.781	23280
839.918	23307
840.055	23379
840.193	23296
840.33	23311
840.467	23185
840.604	23311
840.742	23516
840.879	23220
841.016	23181
841.153	23216
841.29	23398
841.427	23181
841.564	23246
841.701	23341
841.838	23128
841.975	22991
842.112	23212
842.249	23094
842.385	23003
842.522	23189
842.659	23056
842.796	22965
842.933	22919
843.069	22984
843.206	22961
843.343	23189
843.479	23048
843.616	23025
843.752	22748
843.889	22790
844.025	22984
844.162	22820
844.298	22793
844.435	22771
844.571	22869
844.708	22790
844.844	22904
844.98	22934
845.117	22980
845.253	22748
845.389	22717
845.525	22687
845.661	22615
845.798	22569
845.934	22527
846.07	22398
846.206	22554
846.342	22634
846.478	22493
846.614	22295
846.75	22219
846.886	22367
847.022	22291
847.158	22291
847.294	22253
847.429	22242
847.565	22242
847.701	22512
847.837	21953
847.972	21941
848.108	22006
848.244	22086
848.379	21861
848.515	21895
848.65	21819
848.786	21880
848.921	21869
849.057	21892
849.192	21857
849.328	21899
849.463	21842
849.598	21751
849.734	21781
849.869	21743
850.004	21637
850.14	21618
850.275	21610
850.41	21641
850.545	21629
850.68	21542
850.815	21629
850.95	21576
851.085	21778
851.22	21663
851.355	21610
851.49	21599
851.625	21549
851.76	21564
851.895	21462
852.03	21447
852.165	21606
852.299	21622
852.434	21770
852.569	21652
852.703	21701
852.838	21614
852.973	21766
853.107	21663
853.242	21587
853.376	21454
853.511	21203
853.645	21355
853.78	21530
853.914	21473
854.048	21268
854.183	21515
854.317	21496
854.451	21637
854.585	21382
854.72	21462
854.854	21447
854.988	21431
855.122	21428
855.256	21348
855.39	21317
855.524	21397
855.658	21447
855.792	21511
855.926	21515
856.06	21378
856.194	21435
856.327	21405
856.461	21389
856.595	21367
856.729	21477
856.862	21542
856.996	21473
857.13	21485
857.263	21534
857.397	21420
857.53	21447
857.664	21405
857.797	21496
857.931	21549
858.064	21477
858.197	21496
858.331	21401
858.464	21428
858.597	21389
858.731	21515
858.864	21329
858.997	21348
859.13	21454
859.263	21431
859.396	21549
859.529	21393
859.662	21485
859.795	21351
859.928	21530
860.061	21599
860.194	21622
860.327	21408
860.46	21393
860.592	21500
860.725	21629
860.858	21374
860.99	21386
861.123	21454
861.256	21359
861.388	21458
861.521	22219
861.653	21336
861.786	21138
861.918	21313
862.05	21260
862.183	21298
862.315	21389
862.447	21302
862.58	21310
862.712	21161
862.844	21146
862.976	21268
863.108	21077
863.24	21534
863.372	21036
863.504	21154
863.636	21070
863.768	21226
863.9	21150
864.032	21017
864.164	21116
864.296	21142
864.428	21237
864.559	21310
864.691	21127
864.823	21062
864.954	21112
865.086	21135
865.217	21032
865.349	20967
865.48	20990
865.612	20906
865.743	21203
865.875	21070
866.006	21013
866.137	21062
866.269	21009
866.4	20914
866.531	21013
866.662	20845
866.793	20941
866.924	21009
867.055	20864
867.186	20956
867.317	20937
867.448	20937
867.579	20876
867.71	20956
867.841	20994
867.972	20998
868.103	20944
868.233	20872
868.364	21024
868.495	21062
868.625	21245
868.756	21294
868.886	20994
869.017	21226
869.147	21340
869.278	21401
869.408	21222
869.539	21203
869.669	21302
869.799	21268
869.929	21245
870.06	21313
870.19	21625
870.32	21485
870.45	21523
870.58	21652
870.71	21747
870.84	21603
870.97	21682
871.1	21591
871.23	21766
871.36	21800
871.489	21698
871.619	21797
871.749	21846
871.879	21690
872.008	21888
872.138	21884
872.267	21873
872.397	21656
872.526	21652
872.656	21572
872.785	21648
872.915	21838
873.044	21934
873.173	21781
873.303	21816
873.432	21892
873.561	21819
873.69	21827
873.819	21838
873.948	21720
874.077	21816
874.206	21857
874.335	21785
874.464	21972
874.593	22036
874.722	21983
874.851	22078
874.979	22074
875.108	22169
875.237	22017
875.365	21903
875.494	22051
875.623	22135
875.751	22105
875.88	22101
876.008	22192
876.136	22284
876.265	22489
876.393	22516
876.521	22466
876.65	22516
876.778	22550
876.906	22303
877.034	22272
877.162	22341
877.29	22371
877.418	22386
877.546	22394
877.674	22360
877.802	22421
877.93	22360
878.058	22367
878.185	22440
878.313	22318
878.441	22325
878.568	22162
878.696	22348
878.824	22402
878.951	22577
879.079	22523
879.206	22675
879.333	22386
879.461	22398
879.588	22398
879.715	22618
879.842	22679
879.97	22531
880.097	22295
880.224	22143
880.351	22318
880.478	22246
880.605	22150
880.732	22287
880.859	22428
880.986	22242
881.112	22287
881.239	22105
881.366	22010
881.493	22025
881.619	21857
881.746	21819
881.872	21838
881.999	21698
882.125	21747
882.252	21781
882.378	21778
882.505	21739
882.631	21694
882.757	21450
882.883	21557
883.01	21450
883.136	21507
883.262	21405
883.388	21389
883.514	21641
883.64	21428
883.766	21439
883.892	21135
884.018	21226
884.143	21492
884.269	21488
884.395	21226
884.52	21081
884.646	21367
884.772	21066
884.897	21009
885.023	21127
885.148	21351
885.274	21184
885.399	21256
885.524	21131
885.65	21093
885.775	21203
885.9	21085
886.025	21237
886.15	21123
886.275	21051
886.4	21005
886.525	21173
886.65	21154
886.775	21051
886.9	21093
887.025	21325
887.149	21096
887.274	20925
887.399	20815
887.523	20941
887.648	20849
887.773	20781
887.897	20979
888.021	20891
888.146	20765
888.27	21055
888.395	20982
888.519	20864
888.643	20845
888.767	21005
888.891	20697
889.015	20682
889.139	20651
889.263	20701
889.387	20792
889.511	20967
889.635	20830
889.759	20746
889.883	20659
890.006	20743
890.13	20720
890.254	20571
890.377	20708
890.501	20476
890.624	20412
890.748	20511
890.871	20351
890.995	20233
891.118	20271
891.241	20286
891.364	20233
891.488	20393
891.611	20271
891.734	20248
891.857	20309
891.98	20305
892.103	20377
892.226	20282
892.349	20206
892.471	20065
892.594	20214
892.717	20115
892.839	20199
892.962	20286
893.085	20275
893.207	20130
893.33	20031
893.452	19955
893.575	20206
893.697	20084
893.819	20347
893.941	20351
894.064	20271
894.186	20024
894.308	20077
894.43	20153
894.552	20412
894.674	20259
894.796	20062
894.918	20058
895.04	20157
895.161	20221
895.283	20233
895.405	19989
895.526	20149
895.648	20134
895.769	20161
895.891	20138
896.012	20336
896.134	20195
896.255	20096
896.376	20134
896.498	20214
896.619	20309
896.74	20111
896.861	20191
896.982	20537
897.103	20461
897.224	20480
897.345	20366
897.466	20313
897.587	20400
897.708	20492
897.828	20408
897.949	20305
898.07	20187
898.19	20252
898.311	20442
898.431	20313
898.552	20336
898.672	20446
898.792	20362
898.913	20229
899.033	20259
899.153	20180
899.273	20088
899.393	20187
899.513	20058
899.633	20062
899.753	20031
899.873	20016
899.993	20100
900.113	20138
900.232	20134
900.352	19982
900.472	19894
900.591	19727
900.711	19989
900.83	19860
900.95	20065
901.069	19814
901.189	19772
901.308	19514
901.427	19483
901.546	19590
901.665	19575
901.784	19438
901.904	19331
902.023	19289
902.141	18989
902.26	19061
902.379	19034
902.498	18951
902.617	18996
902.735	19072
902.854	18913
902.973	18928
903.091	18688
903.21	18692
903.328	18726
903.446	18673
903.565	18433
903.683	18460
903.801	18330
903.919	18506
904.038	18327
904.156	18311
904.274	18308
904.392	18213
904.51	18194
904.627	18342
904.745	18285
904.863	18308
904.981	18140
905.098	17927
905.216	17977
905.334	17980
905.451	17965
905.569	17946
905.686	17923
905.803	17752
905.921	17695
906.038	17840
906.155	17722
906.272	17589
906.389	17733
906.506	17562
906.623	17532
906.74	17440
906.857	17414
906.974	17368
907.091	17448
907.208	17615
907.324	17589
907.441	17490
907.557	17258
907.674	17151
907.79	17140
907.907	17162
908.023	17246
908.139	17132
908.256	17086
908.372	17162
908.488	17022
908.604	16908
908.72	16972
908.836	16953
908.952	16866
909.068	16915
909.184	17045
909.3	16946
909.415	16873
909.531	16881
909.647	16618
909.762	16550
909.878	16618
909.993	16599
910.108	16592
910.224	16542
910.339	16527
910.454	16443
910.57	16440
910.685	16314
910.8	16599
910.915	16584
911.03	16379
911.145	16299
911.259	16192
911.374	16219
911.489	16093
911.604	16135
911.718	15903
911.833	15979
911.947	15857
912.062	15797
912.176	15926
912.291	15968
912.405	15987
912.519	16192
912.633	16128
912.748	16082
912.862	15987
912.976	15854
913.09	15717
913.204	15747
913.318	15789
913.431	15953
913.545	15766
913.659	15827
913.772	15709
913.886	15599
914	15599
914.113	15618
914.226	15705
914.34	15694
914.453	15530
914.566	15580
914.68	15382
914.793	15481
914.906	15249
915.019	15214
915.132	15135
915.245	15081
915.358	15237
915.47	15138
915.583	15142
915.696	15214
915.809	15355
915.921	15245
916.034	15081
916.146	15116
916.259	14998
916.371	15070
916.483	15089
916.595	15051
916.708	14979
916.82	14948
916.932	14975
917.044	14994
917.156	14967
917.268	14880
917.38	14853
917.491	14845
917.603	14811
917.715	14842
917.826	14876
917.938	14720
918.049	14518
918.161	14861
918.272	14891
918.384	14986
918.495	14785
918.606	14541
918.717	14518
918.828	14533
918.939	14640
919.05	14530
919.161	14602
919.272	14282
919.383	14454
919.494	14503
919.604	14823
919.715	14587
919.826	14549
919.936	14488
920.047	14602
920.157	14560
920.267	14754
920.378	14613
920.488	14480
920.598	14644
920.708	14902
920.818	14659
920.928	14708
921.038	14849
921.148	14807
921.258	14549
921.368	14377
921.477	14347
921.587	14366
921.697	14123
921.806	14157
921.916	14168
922.025	13978
922.134	13932
922.244	13860
922.353	14081
922.462	13765
922.571	13708
922.68	13571
922.789	13567
922.898	13540
923.007	13540
923.116	13616
923.224	13483
923.333	13540
923.442	13464
923.55	13400
923.659	13537
923.767	13518
923.876	13316
923.984	13274
924.092	13301
924.201	13251
924.309	13255
924.417	13274
924.525	13278
924.633	13209
924.741	14199
924.849	13053
924.956	13126
925.064	13057
925.172	12916
925.279	13023
925.387	13149
925.494	12970
925.602	13179
925.709	13019
925.816	12886
925.924	12954
926.031	13088
926.138	12844
926.245	12905
926.352	12852
926.459	12985
926.566	13061
926.673	12863
926.779	12829
926.886	12787
926.993	12608
927.099	12532
927.206	12441
927.312	12498
927.419	12456
927.525	12574
927.631	12559
927.737	12448
927.843	12414
927.95	12308
928.056	12414
928.162	12327
928.267	12353
928.373	12837
928.479	12422
928.585	12209
928.69	12361
928.796	12338
928.901	12285
929.007	12034
929.112	12220
929.218	12213
929.323	12091
929.428	12133
929.533	12083
929.638	11935
929.743	12011
929.848	12125
929.953	11969
930.058	11954
930.163	11805
930.267	11726
930.372	11927
930.477	11695
930.581	11946
930.685	11870
930.79	11695
930.894	11695
930.998	11615
931.103	11733
931.207	11535
931.311	11368
931.415	11277
931.519	11029
931.623	11041
