Data from test_V78500241_3452.txt Node
Date: Fri Mar 25 15:33:53 CST 2022
User: usil
Spectrometer: V785-0024
Trigger mode: 0
Integration Time (sec): 4.000000E-1
Scans to average: 1
Nonlinearity correction enabled: false
Boxcar width: 0
Storing dark spectrum: false
XAxis mode: Wavelengths
Number of Pixels in Spectrum: 1024
>>>>>Begin Spectral Data<<<<<
801.071	27401
801.214	27249
801.356	27131
801.499	27013
801.641	26834
801.783	26792
801.926	26979
802.068	26982
802.211	26857
802.353	26830
802.496	26545
802.638	26575
802.78	26450
802.923	26556
803.065	26381
803.208	26503
803.35	26583
803.492	26613
803.635	26663
803.777	26701
803.919	26731
804.061	26979
804.204	26701
804.346	26530
804.488	26549
804.63	26670
804.773	26453
804.915	26606
805.057	26708
805.199	26769
805.341	26648
805.483	26804
805.626	26819
805.768	26606
805.91	26727
806.052	26838
806.194	26686
806.336	26948
806.478	26739
806.62	26693
806.762	26762
806.904	27112
807.046	27233
807.188	27142
807.33	27176
807.472	27226
807.614	27096
807.756	27230
807.898	26979
808.04	26940
808.182	27024
808.324	26948
808.465	27089
808.607	27310
808.749	27351
808.891	27519
809.033	27576
809.174	27401
809.316	27405
809.458	27447
809.6	27340
809.741	27416
809.883	27481
810.025	27629
810.166	27561
810.308	27614
810.45	27561
810.591	27561
810.733	27523
810.875	27317
811.016	27355
811.158	27363
811.299	27458
811.441	27367
811.582	27500
811.724	27462
811.865	27241
812.007	27397
812.148	27272
812.29	27420
812.431	27633
812.573	27671
812.714	27663
812.855	27884
812.997	28032
813.138	28116
813.279	27968
813.421	27857
813.562	27774
813.703	27610
813.845	27564
813.986	27374
814.127	27157
814.268	27043
814.41	27058
814.551	27184
814.692	27142
814.833	27051
814.974	26979
815.115	27077
815.256	26979
815.397	26868
815.539	26887
815.68	26682
815.821	26773
815.962	26735
816.103	26823
816.244	26670
816.385	26629
816.526	26495
816.666	26446
816.807	26290
816.948	26343
817.089	26427
817.23	26317
817.371	26240
817.512	26347
817.653	26271
817.793	26187
817.934	26282
818.075	26377
818.216	26161
818.356	26225
818.497	26153
818.638	26088
818.778	26107
818.919	25936
819.06	26069
819.2	26142
819.341	26381
819.481	26221
819.622	26442
819.762	26598
819.903	26457
820.043	26404
820.184	26271
820.324	26473
820.465	26415
820.605	26442
820.746	26347
820.886	26187
821.026	26275
821.167	26237
821.307	26484
821.447	26298
821.588	26130
821.728	26043
821.868	25833
822.008	25727
822.149	25750
822.289	25689
822.429	25525
822.569	25457
822.709	25365
822.849	25274
822.99	25289
823.13	25240
823.27	25266
823.41	25042
823.55	24977
823.69	25023
823.83	25004
823.97	25000
824.11	24878
824.25	24905
824.389	24909
824.529	24924
824.669	24802
824.809	25042
824.949	24871
825.089	24901
825.228	24928
825.368	24863
825.508	24779
825.648	24692
825.787	24829
825.927	24871
826.067	24738
826.206	24730
826.346	24776
826.485	24867
826.625	24715
826.765	24829
826.904	24741
827.044	24661
827.183	24673
827.323	24471
827.462	24551
827.601	24426
827.741	24361
827.88	24464
828.02	24513
828.159	24521
828.298	24452
828.437	24456
828.577	24311
828.716	24574
828.855	24273
828.994	24209
829.134	24273
829.273	24262
829.412	24152
829.551	24083
829.69	24190
829.829	24376
829.968	24292
830.107	24311
830.246	24254
830.385	24087
830.524	24015
830.663	24079
830.802	23866
830.941	23767
831.08	23786
831.219	23927
831.357	23889
831.496	23980
831.635	23805
831.774	23665
831.913	23619
832.051	23592
832.19	23543
832.329	23539
832.467	23376
832.606	23410
832.744	23463
832.883	23505
833.022	23318
833.16	23474
833.299	23474
833.437	23486
833.576	23646
833.714	23619
833.852	23547
833.991	23554
834.129	23699
834.267	23611
834.406	23608
834.544	23687
834.682	23570
834.821	23630
834.959	23783
835.097	23570
835.235	23562
835.373	23512
835.511	23524
835.65	23360
835.788	23425
835.926	23337
836.064	23208
836.202	23147
836.34	23490
836.478	23372
836.615	23402
836.753	23368
836.891	23429
837.029	23258
837.167	23551
837.305	23326
837.443	23368
837.58	23235
837.718	23360
837.856	23235
837.993	23189
838.131	23269
838.269	23223
838.406	23223
838.544	23029
838.681	22923
838.819	22862
838.956	22793
839.094	22596
839.231	22831
839.369	22953
839.506	23170
839.643	23071
839.781	22790
839.918	22660
840.055	22755
840.193	22668
840.33	22694
840.467	22584
840.604	22828
840.742	23022
840.879	22489
841.016	22596
841.153	22580
841.29	22710
841.427	22702
841.564	22683
841.701	22596
841.838	22634
841.975	22626
842.112	22531
842.249	22470
842.385	22352
842.522	22603
842.659	22565
842.796	22436
842.933	22337
843.069	22409
843.206	22295
843.343	22512
843.479	22512
843.616	22421
843.752	22242
843.889	22207
844.025	22413
844.162	22249
844.298	22272
844.435	22185
844.571	22147
844.708	22295
844.844	22284
844.98	22424
845.117	22246
845.253	22162
845.389	22036
845.525	22040
845.661	22002
845.798	21903
845.934	21972
846.07	21972
846.206	22036
846.342	22207
846.478	21918
846.614	21842
846.75	21641
846.886	21694
847.022	21713
847.158	21831
847.294	21667
847.429	21800
847.565	21599
847.701	21865
847.837	21511
847.972	21321
848.108	21526
848.244	21412
848.379	21329
848.515	21382
848.65	21218
848.786	21214
848.921	21302
849.057	21424
849.192	21279
849.328	21317
849.463	21348
849.598	21287
849.734	21157
849.869	21150
850.004	21047
850.14	21039
850.275	21051
850.41	20982
850.545	21093
850.68	20998
850.815	21135
850.95	21028
851.085	21249
851.22	21055
851.355	21024
851.49	21005
851.625	21028
851.76	20933
851.895	20956
852.03	20914
852.165	20929
852.299	21146
852.434	21150
852.569	21074
852.703	20956
852.838	21184
852.973	21173
853.107	21112
853.242	20986
853.376	20921
853.511	20678
853.645	20708
853.78	20956
853.914	20754
854.048	20781
854.183	20758
854.317	20861
854.451	20918
854.585	20876
854.72	20902
854.854	20956
854.988	20743
855.122	20804
855.256	20625
855.39	20876
855.524	20883
855.658	20963
855.792	20834
855.926	20979
856.06	20864
856.194	20864
856.327	20826
856.461	20716
856.595	20724
856.729	20800
856.862	21017
856.996	20887
857.13	20838
857.263	20986
857.397	20861
857.53	20758
857.664	20937
857.797	20861
857.931	20979
858.064	20849
858.197	20937
858.331	20902
858.464	20800
858.597	20906
858.731	20781
858.864	20724
858.997	20834
859.13	20914
859.263	20811
859.396	20979
859.529	20739
859.662	20754
859.795	20644
859.928	20819
860.061	20975
860.194	21085
860.327	20937
860.46	20773
860.592	20914
860.725	20975
860.858	21013
860.99	20750
861.123	20811
861.256	20716
861.388	20857
861.521	21519
861.653	20648
861.786	20674
861.918	20617
862.05	20720
862.183	20781
862.315	20800
862.447	20853
862.58	20739
862.712	20537
862.844	20594
862.976	20655
863.108	20667
863.24	21077
863.372	20499
863.504	20530
863.636	20533
863.768	20674
863.9	20537
864.032	20522
864.164	20522
864.296	20530
864.428	20644
864.559	20602
864.691	20609
864.823	20499
864.954	20594
865.086	20590
865.217	20564
865.349	20320
865.48	20385
865.612	20366
865.743	20552
865.875	20438
866.006	20423
866.137	20396
866.269	20518
866.4	20469
866.531	20412
866.662	20374
866.793	20377
866.924	20438
867.055	20419
867.186	20476
867.317	20427
867.448	20332
867.579	20320
867.71	20355
867.841	20256
867.972	20473
868.103	20309
868.233	20408
868.364	20511
868.495	20431
868.625	20708
868.756	20754
868.886	20651
869.017	20644
869.147	20716
869.278	20731
869.408	20724
869.539	20571
869.669	20701
869.799	20727
869.929	20743
870.06	20693
870.19	20952
870.32	20849
870.45	21024
870.58	20921
870.71	21116
870.84	21142
870.97	21005
871.1	20998
871.23	21199
871.36	21233
871.489	21165
871.619	21310
871.749	21275
871.879	21405
872.008	21435
872.138	21348
872.267	21226
872.397	21104
872.526	21135
872.656	21058
872.785	21169
872.915	21245
873.044	21332
873.173	21272
873.303	21294
873.432	21397
873.561	21450
873.69	21302
873.819	21355
873.948	21310
874.077	21245
874.206	21157
874.335	21272
874.464	21340
874.593	21557
874.722	21450
874.851	21435
874.979	21511
875.108	21523
875.237	21477
875.365	21439
875.494	21443
875.623	21576
875.751	21450
875.88	21538
876.008	21774
876.136	21793
876.265	21812
876.393	21960
876.521	21991
876.65	21964
876.778	21915
876.906	21838
877.034	21846
877.162	21892
877.29	21899
877.418	21876
877.546	21895
877.674	21880
877.802	21892
877.93	21816
878.058	21956
878.185	21717
878.313	21816
878.441	21949
878.568	21545
878.696	21648
878.824	21903
878.951	21953
879.079	21949
879.206	22082
879.333	21979
879.461	21994
879.588	21968
879.715	22067
879.842	22154
879.97	21880
880.097	21720
880.224	21698
880.351	21698
880.478	21618
880.605	21724
880.732	21770
880.859	21865
880.986	21732
881.112	21705
881.239	21545
881.366	21424
881.493	21462
881.619	21363
881.746	21389
881.872	21329
881.999	21332
882.125	21306
882.252	21283
882.378	21275
882.505	21306
882.631	21100
882.757	21013
882.883	21001
883.01	20944
883.136	20853
883.262	20876
883.388	20788
883.514	20948
883.64	20925
883.766	20899
883.892	20800
884.018	20762
884.143	20925
884.269	20960
884.395	20735
884.52	20651
884.646	20708
884.772	20499
884.897	20537
885.023	20678
885.148	20705
885.274	20811
885.399	20807
885.524	20598
885.65	20815
885.775	20644
885.9	20621
886.025	20739
886.15	20644
886.275	20522
886.4	20571
886.525	20518
886.65	20530
886.775	20606
886.9	20655
887.025	20796
887.149	20568
887.274	20389
887.399	20324
887.523	20415
887.648	20336
887.773	20309
887.897	20423
888.021	20419
888.146	20347
888.27	20442
888.395	20377
888.519	20442
888.643	20358
888.767	20415
888.891	20339
889.015	20168
889.139	20313
889.263	20180
889.387	20332
889.511	20385
889.635	20313
889.759	20172
889.883	20191
890.006	20206
890.13	20313
890.254	20199
890.377	20138
890.501	20126
890.624	19982
890.748	19955
890.871	19856
890.995	19708
891.118	19734
891.241	19780
891.364	19780
891.488	19841
891.611	19917
891.734	19757
891.857	19727
891.98	19753
892.103	19731
892.226	19723
892.349	19734
892.471	19575
892.594	19757
892.717	19776
892.839	19624
892.962	19719
893.085	19696
893.207	19601
893.33	19742
893.452	19597
893.575	19742
893.697	19559
893.819	19917
893.941	19913
894.064	19811
894.186	19632
894.308	19559
894.43	19811
894.552	19757
894.674	19799
894.796	19590
894.918	19620
895.04	19658
895.161	19738
895.283	19700
895.405	19712
895.526	19635
895.648	19632
895.769	19677
895.891	19715
896.012	19890
896.134	19803
896.255	19734
896.376	19670
896.498	19677
896.619	19674
896.74	19769
896.861	19734
896.982	20016
897.103	20168
897.224	20069
897.345	20012
897.466	19727
897.587	19955
897.708	19974
897.828	19860
897.949	19986
898.07	19693
898.19	19772
898.311	19951
898.431	19932
898.552	19849
898.672	20031
898.792	20084
898.913	19837
899.033	19871
899.153	19704
899.273	19658
899.393	19666
899.513	19727
899.633	19761
899.753	19635
899.873	19639
899.993	19784
900.113	19533
900.232	19601
900.352	19700
900.472	19658
900.591	19578
900.711	19460
900.83	19411
900.95	19563
901.069	19491
901.189	19426
901.308	19118
901.427	19091
901.546	19031
901.665	19023
901.784	18905
901.904	18867
902.023	18798
902.141	18593
902.26	18593
902.379	18593
902.498	18570
902.617	18506
902.735	18642
902.854	18483
902.973	18426
903.091	18323
903.21	18334
903.328	18270
903.446	18053
903.565	18068
903.683	18083
903.801	17912
903.919	18007
904.038	18049
904.156	17851
904.274	17901
904.392	17722
904.51	17817
904.627	17767
904.745	17878
904.863	17824
904.981	17615
905.098	17493
905.216	17467
905.334	17623
905.451	17482
905.569	17501
905.686	17532
905.803	17425
905.921	17288
906.038	17429
906.155	17353
906.272	17204
906.389	17136
906.506	17045
906.623	17143
906.74	17033
906.857	16968
906.974	16961
907.091	17090
907.208	17204
907.324	16991
907.441	16911
907.557	16809
907.674	16725
907.79	16687
907.907	16763
908.023	16839
908.139	16691
908.256	16641
908.372	16577
908.488	16561
908.604	16481
908.72	16413
908.836	16489
908.952	16485
909.068	16436
909.184	16622
909.3	16527
909.415	16481
909.531	16459
909.647	16223
909.762	16162
909.878	16116
909.993	16154
910.108	16139
910.224	16143
910.339	16051
910.454	16086
910.57	15998
910.685	15915
910.8	16143
910.915	16223
911.03	16025
911.145	15797
911.259	15812
911.374	15785
911.489	15789
911.604	15694
911.718	15412
911.833	15561
911.947	15485
912.062	15393
912.176	15545
912.291	15618
912.405	15545
912.519	15778
912.633	15774
912.748	15599
912.862	15530
912.976	15291
913.09	15336
913.204	15298
913.318	15370
913.431	15405
913.545	15325
913.659	15386
913.772	15332
913.886	15249
914	15169
914.113	15176
914.226	15317
914.34	15184
914.453	14990
914.566	15184
914.68	15001
914.793	14998
914.906	14773
915.019	14750
915.132	14648
915.245	14804
915.358	14807
915.47	14830
915.583	14701
915.696	14815
915.809	14880
915.921	14887
916.034	14708
916.146	14663
916.259	14655
916.371	14758
916.483	14686
916.595	14610
916.708	14610
916.82	14667
916.932	14610
917.044	14560
917.156	14552
917.268	14366
917.38	14415
917.491	14351
917.603	14499
917.715	14476
917.826	14549
917.938	14320
918.049	14252
918.161	14347
918.272	14564
918.384	14594
918.495	14412
918.606	14199
918.717	14115
918.828	14187
918.939	14248
919.05	14164
919.161	14233
919.272	13978
919.383	13982
919.494	14176
919.604	14286
919.715	14221
919.826	14149
919.936	14107
920.047	14145
920.157	14195
920.267	14358
920.378	14206
920.488	14142
920.598	14286
920.708	14511
920.818	14305
920.928	14347
921.038	14419
921.148	14377
921.258	14069
921.368	14050
921.477	14001
921.587	13936
921.697	13826
921.806	13906
921.916	13753
922.025	13636
922.134	13529
922.244	13594
922.353	13552
922.462	13449
922.571	13400
922.68	13301
922.789	13122
922.898	13213
923.007	13141
923.116	13202
923.224	13137
923.333	13209
923.442	13080
923.55	13072
923.659	13019
923.767	13103
923.876	12932
923.984	13053
924.092	12954
924.201	13008
924.309	12977
924.417	13012
924.525	12897
924.633	12932
924.741	13856
924.849	12715
924.956	12871
925.064	12734
925.172	12604
925.279	12544
925.387	12669
925.494	12597
925.602	12707
925.709	12654
925.816	12486
925.924	12551
926.031	12673
926.138	12574
926.245	12608
926.352	12483
926.459	12741
926.566	12745
926.673	12456
926.779	12475
926.886	12471
926.993	12330
927.099	12228
927.206	12152
927.312	12220
927.419	12258
927.525	12163
927.631	12251
927.737	12076
927.843	12003
927.95	11977
928.056	11939
928.162	12129
928.267	12091
928.373	12646
928.479	12121
928.585	11901
928.69	12060
928.796	12049
928.901	11977
929.007	11836
929.112	11942
929.218	11916
929.323	11874
929.428	11889
929.533	11859
929.638	11760
929.743	11756
929.848	11748
929.953	11756
930.058	11638
930.163	11402
930.267	11558
930.372	11539
930.477	11337
930.581	11722
930.685	11509
930.79	11379
930.894	11334
930.998	11330
931.103	11505
931.207	11067
931.311	11033
931.415	10942
931.519	10839
931.623	10710
