Data from test_V78500241_2872.txt Node
Date: Fri Mar 25 15:29:51 CST 2022
User: usil
Spectrometer: V785-0024
Trigger mode: 0
Integration Time (sec): 4.000000E-1
Scans to average: 1
Nonlinearity correction enabled: false
Boxcar width: 0
Storing dark spectrum: false
XAxis mode: Wavelengths
Number of Pixels in Spectrum: 1024
>>>>>Begin Spectral Data<<<<<
801.071	27169
801.214	27150
801.356	26906
801.499	26826
801.641	26857
801.783	26750
801.926	26838
802.068	26815
802.211	26575
802.353	26758
802.496	26381
802.638	26404
802.78	26328
802.923	26161
803.065	26271
803.208	26218
803.35	26191
803.492	26587
803.635	26484
803.777	26301
803.919	26545
804.061	26811
804.204	26571
804.346	26560
804.488	26385
804.63	26446
804.773	26343
804.915	26415
805.057	26587
805.199	26362
805.341	26450
805.483	26602
805.626	26579
805.768	26492
805.91	26651
806.052	26556
806.194	26564
806.336	26819
806.478	26492
806.62	26598
806.762	26754
806.904	26864
807.046	27157
807.188	26891
807.33	26979
807.472	27108
807.614	26800
807.756	26925
807.898	26785
808.04	26720
808.182	26648
808.324	26868
808.465	26876
808.607	27188
808.749	27245
808.891	27329
809.033	27462
809.174	27329
809.316	27298
809.458	27142
809.6	27264
809.741	27146
809.883	27382
810.025	27397
810.166	27606
810.308	27614
810.45	27469
810.591	27325
810.733	27249
810.875	27165
811.016	27211
811.158	27275
811.299	27237
811.441	27405
811.582	27370
811.724	27180
811.865	27081
812.007	26967
812.148	27272
812.29	27226
812.431	27450
812.573	27458
812.714	27572
812.855	27587
812.997	27663
813.138	27884
813.279	27797
813.421	27739
813.562	27553
813.703	27526
813.845	27424
813.986	26971
814.127	26982
814.268	26876
814.41	26952
814.551	26754
814.692	26910
814.833	26629
814.974	26906
815.115	26971
815.256	26731
815.397	26746
815.539	26762
815.68	26785
815.821	26526
815.962	26568
816.103	26651
816.244	26476
816.385	26457
816.526	26427
816.666	26191
816.807	26050
816.948	26130
817.089	26244
817.23	26164
817.371	26267
817.512	26168
817.653	25932
817.793	26050
817.934	26043
818.075	26153
818.216	25997
818.356	26134
818.497	25883
818.638	25685
818.778	25909
818.919	25742
819.06	25841
819.2	25940
819.341	26016
819.481	26149
819.622	26282
819.762	26400
819.903	26396
820.043	26317
820.184	26278
820.324	26077
820.465	26290
820.605	26187
820.746	26069
820.886	25959
821.026	26161
821.167	26115
821.307	26035
821.447	26043
821.588	25978
821.728	25875
821.868	25715
822.008	25525
822.149	25655
822.289	25514
822.429	25354
822.569	25278
822.709	25327
822.849	25110
822.99	25225
823.13	25099
823.27	25015
823.41	24844
823.55	24871
823.69	24962
823.83	24852
823.97	24863
824.11	24589
824.25	24582
824.389	24650
824.529	24875
824.669	24665
824.809	24787
824.949	24821
825.089	24852
825.228	24806
825.368	24620
825.508	24578
825.648	24551
825.787	24559
825.927	24646
826.067	24483
826.206	24620
826.346	24616
826.485	24646
826.625	24604
826.765	24738
826.904	24559
827.044	24319
827.183	24395
827.323	24159
827.462	24346
827.601	24273
827.741	24220
827.88	24262
828.02	24133
828.159	24270
828.298	24247
828.437	24285
828.577	24163
828.716	24407
828.855	24194
828.994	24026
829.134	24064
829.273	23946
829.412	23977
829.551	23847
829.69	24022
829.829	23980
829.968	24095
830.107	24155
830.246	24053
830.385	23855
830.524	23855
830.663	23863
830.802	23798
830.941	23638
831.08	23528
831.219	23695
831.357	23592
831.496	23855
831.635	23699
831.774	23436
831.913	23463
832.051	23341
832.19	23383
832.329	23414
832.467	23216
832.606	23216
832.744	23193
832.883	23299
833.022	23334
833.16	23299
833.299	23261
833.437	23299
833.576	23410
833.714	23326
833.852	23341
833.991	23410
834.129	23280
834.267	23471
834.406	23372
834.544	23315
834.682	23330
834.821	23212
834.959	23486
835.097	23204
835.235	23379
835.373	23227
835.511	23440
835.65	23204
835.788	23277
835.926	23181
836.064	22965
836.202	23006
836.34	23223
836.478	23128
836.615	23159
836.753	23128
836.891	23250
837.029	23239
837.167	23071
837.305	23094
837.443	23090
837.58	23079
837.718	23083
837.856	22991
837.993	23056
838.131	23022
838.269	22877
838.406	22869
838.544	22812
838.681	22664
838.819	22698
838.956	22493
839.094	22497
839.231	22626
839.369	22660
839.506	22835
839.643	22683
839.781	22497
839.918	22421
840.055	22481
840.193	22421
840.33	22310
840.467	22409
840.604	22504
840.742	22683
840.879	22284
841.016	22413
841.153	22284
841.29	22538
841.427	22451
841.564	22508
841.701	22413
841.838	22382
841.975	22314
842.112	22424
842.249	22219
842.385	22284
842.522	22402
842.659	22276
842.796	22253
842.933	22120
843.069	22078
843.206	22055
843.343	22253
843.479	22150
843.616	22150
843.752	21937
843.889	21937
844.025	22097
844.162	21918
844.298	21991
844.435	21937
844.571	21945
844.708	21945
844.844	22112
844.98	22006
845.117	21987
845.253	21884
845.389	21766
845.525	21827
845.661	21797
845.798	21724
845.934	21755
846.07	21606
846.206	21671
846.342	21698
846.478	21774
846.614	21412
846.75	21389
846.886	21386
847.022	21466
847.158	21389
847.294	21344
847.429	21408
847.565	21355
847.701	21458
847.837	21150
847.972	21119
848.108	21123
848.244	21291
848.379	21096
848.515	20933
848.65	21066
848.786	20967
848.921	21020
849.057	21245
849.192	21089
849.328	21112
849.463	21055
849.598	21055
849.734	20952
849.869	20815
850.004	20807
850.14	20701
850.275	20807
850.41	20727
850.545	20720
850.68	20720
850.815	20712
850.95	20792
851.085	21009
851.22	20804
851.355	20933
851.49	20758
851.625	20731
851.76	20701
851.895	20781
852.03	20773
852.165	20762
852.299	20853
852.434	20842
852.569	20720
852.703	20762
852.838	20887
852.973	20895
853.107	20921
853.242	20708
853.376	20686
853.511	20530
853.645	20632
853.78	20796
853.914	20617
854.048	20560
854.183	20503
854.317	20617
854.451	20663
854.585	20575
854.72	20674
854.854	20727
854.988	20511
855.122	20552
855.256	20514
855.39	20495
855.524	20682
855.658	20705
855.792	20625
855.926	20454
856.06	20617
856.194	20708
856.327	20590
856.461	20530
856.595	20560
856.729	20621
856.862	20609
856.996	20552
857.13	20632
857.263	20632
857.397	20758
857.53	20488
857.664	20777
857.797	20636
857.931	20743
858.064	20625
858.197	20712
858.331	20571
858.464	20461
858.597	20484
858.731	20457
858.864	20632
858.997	20602
859.13	20590
859.263	20636
859.396	20545
859.529	20537
859.662	20484
859.795	20609
859.928	20667
860.061	20670
860.194	20777
860.327	20720
860.46	20724
860.592	20785
860.725	20663
860.858	20777
860.99	20651
861.123	20609
861.256	20530
861.388	20632
861.521	21203
861.653	20427
861.786	20362
861.918	20442
862.05	20480
862.183	20549
862.315	20507
862.447	20598
862.58	20575
862.712	20294
862.844	20347
862.976	20301
863.108	20351
863.24	20697
863.372	20229
863.504	20343
863.636	20263
863.768	20275
863.9	20267
864.032	20324
864.164	20195
864.296	20290
864.428	20362
864.559	20336
864.691	20362
864.823	20263
864.954	20149
865.086	20404
865.217	20229
865.349	20115
865.48	20145
865.612	20225
865.743	20313
865.875	20214
866.006	20119
866.137	20301
866.269	20256
866.4	20282
866.531	20153
866.662	20252
866.793	20157
866.924	20126
867.055	20164
867.186	20138
867.317	20126
867.448	20081
867.579	20168
867.71	20062
867.841	20092
867.972	20161
868.103	20107
868.233	20092
868.364	20183
868.495	20218
868.625	20419
868.756	20495
868.886	20271
869.017	20530
869.147	20511
869.278	20590
869.408	20377
869.539	20309
869.669	20457
869.799	20476
869.929	20450
870.06	20423
870.19	20632
870.32	20678
870.45	20686
870.58	20777
870.71	20864
870.84	20876
870.97	20724
871.1	20857
871.23	20845
871.36	20982
871.489	20902
871.619	20941
871.749	21055
871.879	21081
872.008	21131
872.138	20952
872.267	20910
872.397	20849
872.526	20777
872.656	20853
872.785	20800
872.915	21009
873.044	21081
873.173	20998
873.303	21051
873.432	21100
873.561	21100
873.69	21032
873.819	21138
873.948	21093
874.077	21001
874.206	20891
874.335	21100
874.464	21188
874.593	21237
874.722	21237
874.851	21233
874.979	21397
875.108	21294
875.237	21332
875.365	21150
875.494	21184
875.623	21351
875.751	21184
875.88	21272
876.008	21351
876.136	21428
876.265	21713
876.393	21751
876.521	21682
876.65	21682
876.778	21694
876.906	21530
877.034	21568
877.162	21580
877.29	21644
877.418	21561
877.546	21625
877.674	21709
877.802	21561
877.93	21530
878.058	21679
878.185	21492
878.313	21538
878.441	21618
878.568	21496
878.696	21481
878.824	21633
878.951	21732
879.079	21717
879.206	21850
879.333	21751
879.461	21637
879.588	21717
879.715	21812
879.842	21812
879.97	21713
880.097	21557
880.224	21466
880.351	21488
880.478	21374
880.605	21359
880.732	21431
880.859	21690
880.986	21538
881.112	21515
881.239	21283
881.366	21116
881.493	21043
881.619	20963
881.746	20990
881.872	21036
881.999	21017
882.125	20933
882.252	20895
882.378	20990
882.505	21074
882.631	20914
882.757	20785
882.883	20849
883.01	20682
883.136	20556
883.262	20636
883.388	20575
883.514	20716
883.64	20727
883.766	20575
883.892	20568
884.018	20617
884.143	20564
884.269	20796
884.395	20385
884.52	20301
884.646	20434
884.772	20282
884.897	20263
885.023	20355
885.148	20320
885.274	20438
885.399	20461
885.524	20495
885.65	20469
885.775	20263
885.9	20320
886.025	20389
886.15	20541
886.275	20221
886.4	20142
886.525	20419
886.65	20259
886.775	20305
886.9	20465
887.025	20571
887.149	20336
887.274	20164
887.399	20096
887.523	20278
887.648	20122
887.773	20054
887.897	20191
888.021	20240
888.146	20073
888.27	20252
888.395	20172
888.519	20237
888.643	20088
888.767	20183
888.891	19974
889.015	20050
889.139	20046
889.263	19986
889.387	20100
889.511	20218
889.635	20084
889.759	19936
889.883	19944
890.006	20065
890.13	20035
890.254	19849
890.377	19921
890.501	19685
890.624	19731
890.748	19753
890.871	19529
890.995	19499
891.118	19438
891.241	19556
891.364	19518
891.488	19670
891.611	19537
891.734	19468
891.857	19567
891.98	19548
892.103	19567
892.226	19426
892.349	19457
892.471	19301
892.594	19537
892.717	19403
892.839	19430
892.962	19578
893.085	19472
893.207	19434
893.33	19316
893.452	19491
893.575	19662
893.697	19320
893.819	19594
893.941	19559
894.064	19582
894.186	19480
894.308	19434
894.43	19594
894.552	19476
894.674	19575
894.796	19209
894.918	19472
895.04	19495
895.161	19567
895.283	19460
895.405	19540
895.526	19434
895.648	19407
895.769	19613
895.891	19533
896.012	19483
896.134	19559
896.255	19556
896.376	19449
896.498	19518
896.619	19403
896.74	19487
896.861	19476
896.982	19761
897.103	19875
897.224	19784
897.345	19788
897.466	19624
897.587	19734
897.708	19871
897.828	19738
897.949	19635
898.07	19571
898.19	19540
898.311	19776
898.431	19693
898.552	19704
898.672	19818
898.792	19814
898.913	19708
899.033	19533
899.153	19582
899.273	19449
899.393	19422
899.513	19563
899.633	19514
899.753	19506
899.873	19464
899.993	19571
900.113	19365
900.232	19411
900.352	19365
900.472	19129
900.591	19171
900.711	19251
900.83	19198
900.95	19247
901.069	19354
901.189	19126
901.308	18875
901.427	18859
901.546	18856
901.665	18863
901.784	18821
901.904	18730
902.023	18726
902.141	18448
902.26	18365
902.379	18403
902.498	18391
902.617	18300
902.735	18418
902.854	18384
902.973	18224
903.091	18144
903.21	18015
903.328	18068
903.446	17885
903.565	17828
903.683	17821
903.801	17634
903.919	17843
904.038	17775
904.156	17627
904.274	17684
904.392	17733
904.51	17611
904.627	17532
904.745	17646
904.863	17581
904.981	17486
905.098	17379
905.216	17349
905.334	17349
905.451	17315
905.569	17288
905.686	17307
905.803	17318
905.921	17102
906.038	17189
906.155	17174
906.272	17060
906.389	17022
906.506	16858
906.623	16919
906.74	16828
906.857	16733
906.974	16790
907.091	16915
907.208	17045
907.324	16869
907.441	16774
907.557	16641
907.674	16569
907.79	16550
907.907	16523
908.023	16577
908.139	16561
908.256	16527
908.372	16508
908.488	16516
908.604	16375
908.72	16230
908.836	16287
908.952	16310
909.068	16337
909.184	16424
909.3	16329
909.415	16367
909.531	16238
909.647	16048
909.762	16036
909.878	15945
909.993	16048
910.108	16048
910.224	15915
910.339	16074
910.454	15934
910.57	15793
910.685	15717
910.8	16120
910.915	15911
911.03	15797
911.145	15709
911.259	15625
911.374	15641
911.489	15587
911.604	15625
911.718	15454
911.833	15450
911.947	15386
912.062	15199
912.176	15462
912.291	15344
912.405	15477
912.519	15599
912.633	15511
912.748	15496
912.862	15363
912.976	15230
913.09	15097
913.204	15230
913.318	15272
913.431	15249
913.545	15256
913.659	15268
913.772	15199
913.886	15005
914	14990
914.113	15074
914.226	15070
914.34	15100
914.453	14842
914.566	15017
914.68	14796
914.793	14754
914.906	14674
915.019	14602
915.132	14663
915.245	14636
915.358	14708
915.47	14556
915.583	14629
915.696	14712
915.809	14796
915.921	14815
916.034	14583
916.146	14503
916.259	14396
916.371	14556
916.483	14560
916.595	14507
916.708	14495
916.82	14492
916.932	14454
917.044	14408
917.156	14423
917.268	14298
917.38	14259
917.491	14286
917.603	14294
917.715	14389
917.826	14301
917.938	14084
918.049	14126
918.161	14180
918.272	14457
918.384	14396
918.495	14336
918.606	14035
918.717	13909
918.828	14092
918.939	14096
919.05	13925
919.161	14058
919.272	13917
919.383	13982
919.494	14096
919.604	14267
919.715	14115
919.826	13909
919.936	13940
920.047	14191
920.157	14005
920.267	14233
920.378	14073
920.488	14031
920.598	14180
920.708	14305
920.818	14240
920.928	14134
921.038	14294
921.148	14278
921.258	13974
921.368	13906
921.477	13799
921.587	13852
921.697	13681
921.806	13856
921.916	13658
922.025	13499
922.134	13510
922.244	13396
922.353	13445
922.462	13293
922.571	13251
922.68	13133
922.789	13160
922.898	13126
923.007	13076
923.116	13190
923.224	13103
923.333	13107
923.442	12920
923.55	12985
923.659	12966
923.767	12867
923.876	12882
923.984	13031
924.092	12772
924.201	12859
924.309	12852
924.417	12741
924.525	12772
924.633	12730
924.741	13685
924.849	12620
924.956	12715
925.064	12513
925.172	12475
925.279	12528
925.387	12627
925.494	12578
925.602	12646
925.709	12578
925.816	12475
925.924	12445
926.031	12589
926.138	12464
926.245	12490
926.352	12418
926.459	12513
926.566	12555
926.673	12361
926.779	12323
926.886	12292
926.993	12076
927.099	12095
927.206	12083
927.312	12045
927.419	12171
927.525	12083
927.631	12129
927.737	12007
927.843	11954
927.95	11821
928.056	11916
928.162	11946
928.267	11992
928.373	12627
928.479	11984
928.585	11843
928.69	11958
928.796	11927
928.901	11779
929.007	11729
929.112	11737
929.218	11657
929.323	11680
929.428	11668
929.533	11843
929.638	11558
929.743	11634
929.848	11680
929.953	11611
930.058	11524
930.163	11516
930.267	11395
930.372	11535
930.477	11292
930.581	11600
930.685	11402
930.79	11261
930.894	11326
930.998	11140
931.103	11341
931.207	11067
931.311	11075
931.415	10900
931.519	10691
931.623	10645
