Data from test_V78500241_2152.txt Node
Date: Fri Mar 25 15:24:50 CST 2022
User: usil
Spectrometer: V785-0024
Trigger mode: 0
Integration Time (sec): 4.000000E-1
Scans to average: 1
Nonlinearity correction enabled: false
Boxcar width: 0
Storing dark spectrum: false
XAxis mode: Wavelengths
Number of Pixels in Spectrum: 1024
>>>>>Begin Spectral Data<<<<<
801.071	27804
801.214	27572
801.356	27488
801.499	27283
801.641	27211
801.783	27233
801.926	27287
802.068	27272
802.211	27058
802.353	27074
802.496	26975
802.638	26811
802.78	26708
802.923	26769
803.065	26758
803.208	26804
803.35	26906
803.492	27017
803.635	27043
803.777	27032
803.919	27055
804.061	27272
804.204	27116
804.346	27024
804.488	26895
804.63	27066
804.773	26914
804.915	27093
805.057	27195
805.199	27036
805.341	27070
805.483	27161
805.626	27249
805.768	27055
805.91	27146
806.052	27188
806.194	27161
806.336	27245
806.478	27218
806.62	27218
806.762	27256
806.904	27454
807.046	27667
807.188	27709
807.33	27732
807.472	27530
807.614	27450
807.756	27633
807.898	27325
808.04	27367
808.182	27329
808.324	27538
808.465	27507
808.607	27656
808.749	27819
808.891	27827
809.033	27934
809.174	27770
809.316	27762
809.458	27850
809.6	27736
809.741	27831
809.883	27941
810.025	28139
810.166	28093
810.308	28063
810.45	28010
810.591	27903
810.733	27701
810.875	27736
811.016	27698
811.158	27637
811.299	27869
811.441	27873
811.582	27888
811.724	27785
811.865	27800
812.007	27652
812.148	27694
812.29	27854
812.431	27800
812.573	28147
812.714	28169
812.855	28318
812.997	28424
813.138	28538
813.279	28588
813.421	28367
813.562	28143
813.703	28010
813.845	27972
813.986	27827
814.127	27644
814.268	27496
814.41	27511
814.551	27488
814.692	27534
814.833	27431
814.974	27458
815.115	27545
815.256	27359
815.397	27538
815.539	27351
815.68	27412
815.821	27245
815.962	27348
816.103	27294
816.244	27108
816.385	27142
816.526	27077
816.666	26849
816.807	26792
816.948	26887
817.089	26960
817.23	26861
817.371	26716
817.512	26735
817.653	26765
817.793	26769
817.934	26777
818.075	26769
818.216	26788
818.356	26678
818.497	26640
818.638	26431
818.778	26450
818.919	26511
819.06	26606
819.2	26659
819.341	26765
819.481	26754
819.622	26872
819.762	27062
819.903	26975
820.043	26899
820.184	26891
820.324	26929
820.465	26948
820.605	26868
820.746	26804
820.886	26727
821.026	26864
821.167	26815
821.307	26834
821.447	26697
821.588	26674
821.728	26575
821.868	26377
822.008	26149
822.149	26115
822.289	26081
822.429	25902
822.569	25883
822.709	25978
822.849	25761
822.99	25700
823.13	25750
823.27	25769
823.41	25632
823.55	25472
823.69	25518
823.83	25548
823.97	25472
824.11	25320
824.25	25099
824.389	25365
824.529	25426
824.669	25358
824.809	25510
824.949	25415
825.089	25601
825.228	25479
825.368	25160
825.508	25065
825.648	25225
825.787	25213
825.927	25187
826.067	25198
826.206	25145
826.346	25206
826.485	25221
826.625	25190
826.765	25377
826.904	25209
827.044	24962
827.183	24970
827.323	25004
827.462	24992
827.601	25080
827.741	24905
827.88	25084
828.02	24779
828.159	24875
828.298	25076
828.437	24924
828.577	25050
828.716	24886
828.855	24867
828.994	24665
829.134	24646
829.273	24734
829.412	24646
829.551	24639
829.69	24574
829.829	24692
829.968	24817
830.107	24700
830.246	24620
830.385	24566
830.524	24559
830.663	24517
830.802	24513
830.941	24243
831.08	24098
831.219	24304
831.357	24357
831.496	24429
831.635	24270
831.774	24285
831.913	24133
832.051	23931
832.19	24022
832.329	24026
832.467	24026
832.606	23805
832.744	23961
832.883	23939
833.022	23889
833.16	23984
833.299	24030
833.437	23939
833.576	23961
833.714	24022
833.852	24186
833.991	24007
834.129	24053
834.267	23988
834.406	23984
834.544	24030
834.682	23893
834.821	23920
834.959	24159
835.097	23901
835.235	23901
835.373	23798
835.511	23958
835.65	23741
835.788	23764
835.926	23847
836.064	23680
836.202	23642
836.34	23843
836.478	23897
836.615	23874
836.753	23897
836.891	23973
837.029	23805
837.167	23722
837.305	23653
837.443	23665
837.58	23627
837.718	23737
837.856	23703
837.993	23573
838.131	23722
838.269	23452
838.406	23486
838.544	23448
838.681	23265
838.819	23292
838.956	23296
839.094	23155
839.231	23132
839.369	23326
839.506	23596
839.643	23193
839.781	23022
839.918	23159
840.055	23105
840.193	23185
840.33	22873
840.467	23022
840.604	23064
840.742	23227
840.879	22915
841.016	23010
841.153	22896
841.29	23128
841.427	23090
841.564	23132
841.701	23022
841.838	22984
841.975	23067
842.112	22930
842.249	22782
842.385	22771
842.522	23018
842.659	22733
842.796	22786
842.933	22790
843.069	22801
843.206	22664
843.343	22896
843.479	22740
843.616	22771
843.752	22557
843.889	22550
844.025	22805
844.162	22588
844.298	22664
844.435	22622
844.571	22607
844.708	22630
844.844	22740
844.98	22554
845.117	22656
845.253	22554
845.389	22516
845.525	22527
845.661	22337
845.798	22329
845.934	22341
846.07	22185
846.206	22352
846.342	22402
846.478	22207
846.614	22078
846.75	22036
846.886	22048
847.022	22135
847.158	22082
847.294	22029
847.429	22044
847.565	22055
847.701	22291
847.837	21789
847.972	21804
848.108	21831
848.244	21865
848.379	21633
848.515	21709
848.65	21625
848.786	21701
848.921	21663
849.057	21648
849.192	21732
849.328	21720
849.463	21701
849.598	21614
849.734	21397
849.869	21462
850.004	21370
850.14	21340
850.275	21355
850.41	21359
850.545	21401
850.68	21405
850.815	21386
850.95	21386
851.085	21534
851.22	21549
851.355	21348
851.49	21321
851.625	21424
851.76	21310
851.895	21294
852.03	21294
852.165	21408
852.299	21443
852.434	21355
852.569	21355
852.703	21268
852.838	21329
852.973	21538
853.107	21591
853.242	21294
853.376	21188
853.511	21154
853.645	21184
853.78	21279
853.914	21176
854.048	21116
854.183	21195
854.317	21127
854.451	21420
854.585	21291
854.72	21203
854.854	21348
854.988	21180
855.122	21260
855.256	21123
855.39	21051
855.524	21180
855.658	21142
855.792	21245
855.926	21211
856.06	21275
856.194	21283
856.327	21043
856.461	21150
856.595	21127
856.729	21268
856.862	21176
856.996	21226
857.13	21165
857.263	21256
857.397	21317
857.53	21252
857.664	21401
857.797	21252
857.931	21279
858.064	21226
858.197	21348
858.331	21165
858.464	21245
858.597	21096
858.731	21230
858.864	21093
858.997	21066
859.13	21142
859.263	21245
859.396	21294
859.529	21123
859.662	21142
859.795	21199
859.928	21233
860.061	21367
860.194	21405
860.327	21230
860.46	21207
860.592	21317
860.725	21329
860.858	21283
860.99	21260
861.123	21222
861.256	21135
861.388	21176
861.521	21861
861.653	21001
861.786	21047
861.918	20986
862.05	21108
862.183	21116
862.315	21093
862.447	21192
862.58	21096
862.712	20937
862.844	20853
862.976	20971
863.108	20952
863.24	21443
863.372	20845
863.504	20815
863.636	20864
863.768	20918
863.9	20982
864.032	20830
864.164	20880
864.296	20910
864.428	20990
864.559	21077
864.691	21013
864.823	20883
864.954	20880
865.086	20853
865.217	20849
865.349	20800
865.48	20838
865.612	20895
865.743	20937
865.875	20826
866.006	20823
866.137	20773
866.269	20849
866.4	20769
866.531	20724
866.662	20754
866.793	20765
866.924	20648
867.055	20686
867.186	20743
867.317	20800
867.448	20617
867.579	20773
867.71	20644
867.841	20678
867.972	20823
868.103	20632
868.233	20712
868.364	20804
868.495	20933
868.625	20967
868.756	21188
868.886	20807
869.017	20929
869.147	21135
869.278	21135
869.408	20986
869.539	20902
869.669	21024
869.799	21020
869.929	21119
870.06	21036
870.19	21283
870.32	21302
870.45	21283
870.58	21310
870.71	21424
870.84	21557
870.97	21298
871.1	21412
871.23	21530
871.36	21447
871.489	21447
871.619	21534
871.749	21511
871.879	21606
872.008	21686
872.138	21614
872.267	21561
872.397	21496
872.526	21294
872.656	21420
872.785	21443
872.915	21580
873.044	21629
873.173	21663
873.303	21603
873.432	21728
873.561	21622
873.69	21595
873.819	21549
873.948	21743
874.077	21652
874.206	21599
874.335	21629
874.464	21675
874.593	21793
874.722	21819
874.851	21861
874.979	21835
875.108	21808
875.237	21778
875.365	21789
875.494	21732
875.623	21846
875.751	21819
875.88	21793
876.008	21895
876.136	21964
876.265	22226
876.393	22398
876.521	22318
876.65	22295
876.778	22265
876.906	22166
877.034	22112
877.162	22188
877.29	22101
877.418	22131
877.546	22242
877.674	22200
877.802	22093
877.93	22109
878.058	22211
878.185	22013
878.313	22006
878.441	22253
878.568	21953
878.696	22059
878.824	22158
878.951	22238
879.079	22390
879.206	22303
879.333	22242
879.461	22192
879.588	22310
879.715	22188
879.842	22447
879.97	22432
880.097	22036
880.224	21873
880.351	22025
880.478	21876
880.605	21880
880.732	22044
880.859	22253
880.986	21945
881.112	21960
881.239	22025
881.366	21660
881.493	21701
881.619	21485
881.746	21557
881.872	21458
881.999	21549
882.125	21443
882.252	21492
882.378	21420
882.505	21641
882.631	21275
882.757	21393
882.883	21344
883.01	21363
883.136	21241
883.262	21051
883.388	21112
883.514	21252
883.64	21321
883.766	21165
883.892	21070
884.018	21173
884.143	21180
884.269	21275
884.395	20910
884.52	20853
884.646	21013
884.772	20838
884.897	20880
885.023	20906
885.148	21001
885.274	20975
885.399	20910
885.524	20990
885.65	20880
885.775	21055
885.9	20910
886.025	20944
886.15	21017
886.275	20933
886.4	20796
886.525	20872
886.65	20849
886.775	20807
886.9	21024
887.025	21009
887.149	20864
887.274	20701
887.399	20636
887.523	20739
887.648	20693
887.773	20625
887.897	20807
888.021	20689
888.146	20667
888.27	20762
888.395	20838
888.519	20758
888.643	20724
888.767	20632
888.891	20465
889.015	20476
889.139	20488
889.263	20511
889.387	20434
889.511	20613
889.635	20583
889.759	20393
889.883	20469
890.006	20415
890.13	20450
890.254	20476
890.377	20389
890.501	20202
890.624	20199
890.748	20324
890.871	20183
890.995	19944
891.118	20062
891.241	20077
891.364	20043
891.488	20103
891.611	20122
891.734	20103
891.857	20062
891.98	20020
892.103	20100
892.226	20024
892.349	19856
892.471	19902
892.594	19963
892.717	20081
892.839	19970
892.962	19902
893.085	19986
893.207	20016
893.33	19772
893.452	20012
893.575	19894
893.697	19963
893.819	20122
893.941	20218
894.064	20096
894.186	19906
894.308	19837
894.43	20107
894.552	20195
894.674	19978
894.796	19875
894.918	19997
895.04	20046
895.161	19917
895.283	20012
895.405	19936
895.526	19959
895.648	19959
895.769	19989
895.891	19814
896.012	20130
896.134	20062
896.255	19993
896.376	19875
896.498	20027
896.619	19955
896.74	20050
896.861	20046
896.982	20332
897.103	20423
897.224	20199
897.345	20081
897.466	20111
897.587	20157
897.708	20301
897.828	20142
897.949	20077
898.07	19951
898.19	20062
898.311	20301
898.431	19940
898.552	20256
898.672	20248
898.792	20164
898.913	20180
899.033	20134
899.153	19986
899.273	19894
899.393	20103
899.513	20012
899.633	19959
899.753	19932
899.873	19967
899.993	19951
900.113	19799
900.232	19947
900.352	19917
900.472	19757
900.591	19639
900.711	19674
900.83	19537
900.95	19719
901.069	19875
901.189	19681
901.308	19365
901.427	19225
901.546	19282
901.665	19358
901.784	19209
901.904	19152
902.023	19084
902.141	18958
902.26	18798
902.379	18989
902.498	18890
902.617	18768
902.735	18810
902.854	18787
902.973	18798
903.091	18563
903.21	18551
903.328	18536
903.446	18502
903.565	18350
903.683	18194
903.801	18091
903.919	18194
904.038	18125
904.156	18102
904.274	18106
904.392	18057
904.51	17988
904.627	18060
904.745	18068
904.863	18114
904.981	17824
905.098	17878
905.216	17752
905.334	17745
905.451	17805
905.569	17646
905.686	17802
905.803	17752
905.921	17459
906.038	17653
906.155	17532
906.272	17524
906.389	17402
906.506	17341
906.623	17307
906.74	17223
906.857	17143
906.974	17261
907.091	17288
907.208	17398
907.324	17239
907.441	17170
907.557	17067
907.674	17003
907.79	16957
907.907	16919
908.023	16991
908.139	17064
908.256	17056
908.372	16816
908.488	16889
908.604	16733
908.72	16683
908.836	16702
908.952	16618
909.068	16611
909.184	16809
909.3	16683
909.415	16713
909.531	16717
909.647	16455
909.762	16436
909.878	16291
909.993	16447
910.108	16398
910.224	16337
910.339	16382
910.454	16295
910.57	16204
910.685	16131
910.8	16352
910.915	16325
911.03	16234
911.145	16090
911.259	15941
911.374	16013
911.489	15892
911.604	15835
911.718	15701
911.833	15690
911.947	15675
912.062	15603
912.176	15686
912.291	15747
912.405	15755
912.519	15907
912.633	15899
912.748	15698
912.862	15732
912.976	15553
913.09	15507
913.204	15587
913.318	15428
913.431	15622
913.545	15584
913.659	15652
913.772	15614
913.886	15374
914	15424
914.113	15454
914.226	15504
914.34	15389
914.453	15214
914.566	15412
914.68	15218
914.793	15256
914.906	15047
915.019	15036
915.132	14914
915.245	15047
915.358	15058
915.47	14944
915.583	15017
915.696	14948
915.809	15062
915.921	15195
916.034	14944
916.146	14796
916.259	14842
916.371	14861
916.483	14891
916.595	14815
916.708	14823
916.82	14773
916.932	14880
917.044	14727
917.156	14796
917.268	14610
917.38	14800
917.491	14590
917.603	14556
917.715	14670
917.826	14659
917.938	14507
918.049	14503
918.161	14499
918.272	14632
918.384	14640
918.495	14583
918.606	14355
918.717	14396
918.828	14400
918.939	14419
919.05	14358
919.161	14366
919.272	14191
919.383	14267
919.494	14408
919.604	14610
919.715	14278
919.826	14339
919.936	14362
920.047	14415
920.157	14438
920.267	14507
920.378	14389
920.488	14336
920.598	14408
920.708	14659
920.818	14473
920.928	14492
921.038	14678
921.148	14533
921.258	14396
921.368	14278
921.477	14164
921.587	14123
921.697	13974
921.806	14050
921.916	14043
922.025	13731
922.134	13772
922.244	13708
922.353	13700
922.462	13666
922.571	13556
922.68	13415
922.789	13358
922.898	13346
923.007	13434
923.116	13384
923.224	13358
923.333	13312
923.442	13202
923.55	13274
923.659	13221
923.767	13274
923.876	13202
923.984	13304
924.092	13171
924.201	13152
924.309	13168
924.417	13190
924.525	13072
924.633	13053
924.741	13868
924.849	12859
924.956	13038
925.064	12916
925.172	12722
925.279	12787
925.387	12806
925.494	12810
925.602	12890
925.709	12833
925.816	12719
925.924	12719
926.031	12760
926.138	12696
926.245	12783
926.352	12806
926.459	12795
926.566	12772
926.673	12616
926.779	12559
926.886	12540
926.993	12388
927.099	12418
927.206	12338
927.312	12273
927.419	12410
927.525	12391
927.631	12490
927.737	12304
927.843	12247
927.95	12163
928.056	12239
928.162	12228
928.267	12308
928.373	13008
928.479	12300
928.585	11961
928.69	12152
928.796	12239
928.901	12079
929.007	11908
929.112	12011
929.218	11992
929.323	11950
929.428	11927
929.533	12076
929.638	11843
929.743	11870
929.848	11954
929.953	11897
930.058	11741
930.163	11615
930.267	11627
930.372	11828
930.477	11592
930.581	11843
930.685	11661
930.79	11512
930.894	11630
930.998	11421
931.103	11585
931.207	11296
931.311	11105
931.415	11132
931.519	10889
931.623	10949
