Data from test_V78500241_1853.txt Node
Date: Fri Mar 25 15:22:45 CST 2022
User: usil
Spectrometer: V785-0024
Trigger mode: 0
Integration Time (sec): 4.000000E-1
Scans to average: 1
Nonlinearity correction enabled: false
Boxcar width: 0
Storing dark spectrum: false
XAxis mode: Wavelengths
Number of Pixels in Spectrum: 1024
>>>>>Begin Spectral Data<<<<<
801.071	27854
801.214	27903
801.356	27545
801.499	27496
801.641	27329
801.783	27401
801.926	27610
802.068	27564
802.211	27264
802.353	27359
802.496	26990
802.638	27150
802.78	26975
802.923	26971
803.065	26902
803.208	26861
803.35	27047
803.492	27344
803.635	27203
803.777	27272
803.919	27260
804.061	27447
804.204	27325
804.346	27150
804.488	27154
804.63	27279
804.773	27184
804.915	27340
805.057	27302
805.199	27256
805.341	27340
805.483	27424
805.626	27412
805.768	27192
805.91	27378
806.052	27420
806.194	27329
806.336	27424
806.478	27485
806.62	27439
806.762	27511
806.904	27629
807.046	27812
807.188	27766
807.33	27732
807.472	27884
807.614	27709
807.756	27800
807.898	27637
808.04	27538
808.182	27622
808.324	27743
808.465	27663
808.607	27975
808.749	27991
808.891	28013
809.033	28192
809.174	27937
809.316	27937
809.458	28097
809.6	27770
809.741	27953
809.883	28021
810.025	28135
810.166	28185
810.308	28192
810.45	28181
810.591	28295
810.733	27994
810.875	27998
811.016	27800
811.158	27747
811.299	27953
811.441	28139
811.582	27930
811.724	27888
811.865	27903
812.007	28013
812.148	27972
812.29	28036
812.431	28166
812.573	28310
812.714	28405
812.855	28550
812.997	28580
813.138	28752
813.279	28565
813.421	28618
813.562	28455
813.703	28223
813.845	28211
813.986	27934
814.127	27869
814.268	27610
814.41	27732
814.551	27732
814.692	27789
814.833	27542
814.974	27656
815.115	27759
815.256	27416
815.397	27564
815.539	27450
815.68	27511
815.821	27329
815.962	27545
816.103	27481
816.244	27351
816.385	27169
816.526	27272
816.666	27039
816.807	26895
816.948	26933
817.089	27188
817.23	26891
817.371	26975
817.512	26891
817.653	26807
817.793	26895
817.934	26925
818.075	26925
818.216	26971
818.356	26887
818.497	26788
818.638	26697
818.778	26746
818.919	26655
819.06	26701
819.2	26826
819.341	26921
819.481	26868
819.622	27032
819.762	27256
819.903	27100
820.043	27074
820.184	26925
820.324	27100
820.465	27062
820.605	27020
820.746	27119
820.886	26975
821.026	26899
821.167	27039
821.307	27089
821.447	27013
821.588	26830
821.728	26758
821.868	26514
822.008	26503
822.149	26488
822.289	26370
822.429	26210
822.569	25974
822.709	26107
822.849	25906
822.99	26031
823.13	25841
823.27	25883
823.41	25780
823.55	25647
823.69	25719
823.83	25776
823.97	25689
824.11	25510
824.25	25544
824.389	25590
824.529	25628
824.669	25601
824.809	25757
824.949	25575
825.089	25605
825.228	25620
825.368	25407
825.508	25430
825.648	25415
825.787	25400
825.927	25575
826.067	25407
826.206	25384
826.346	25533
826.485	25407
826.625	25346
826.765	25677
826.904	25460
827.044	25270
827.183	25187
827.323	25202
827.462	25285
827.601	25228
827.741	25042
827.88	25152
828.02	25065
828.159	25099
828.298	25164
828.437	25137
828.577	25137
828.716	25209
828.855	25031
828.994	24920
829.134	24897
829.273	24837
829.412	24783
829.551	24776
829.69	24806
829.829	24916
829.968	25004
830.107	24958
830.246	24825
830.385	24806
830.524	24825
830.663	24688
830.802	24642
830.941	24418
831.08	24509
831.219	24551
831.357	24544
831.496	24726
831.635	24445
831.774	24502
831.913	24315
832.051	24121
832.19	24235
832.329	24182
832.467	24190
832.606	24167
832.744	24041
832.883	24292
833.022	24011
833.16	24152
833.299	24182
833.437	24224
833.576	24281
833.714	24369
833.852	24209
833.991	24296
834.129	24372
834.267	24308
834.406	24251
834.544	24319
834.682	24254
834.821	24148
834.959	24422
835.097	24148
835.235	24388
835.373	24270
835.511	24159
835.65	24098
835.788	24060
835.926	23999
836.064	23999
836.202	23908
836.34	24117
836.478	24106
836.615	24140
836.753	24060
836.891	24178
837.029	24224
837.167	24049
837.305	23847
837.443	23977
837.58	23992
837.718	23916
837.856	23859
837.993	23821
838.131	23851
838.269	23710
838.406	23923
838.544	23767
838.681	23558
838.819	23471
838.956	23425
839.094	23429
839.231	23455
839.369	23608
839.506	23802
839.643	23695
839.781	23551
839.918	23398
840.055	23589
840.193	23349
840.33	23227
840.467	23284
840.604	23372
840.742	23729
840.879	23174
841.016	23242
841.153	23067
841.29	23417
841.427	23318
841.564	23440
841.701	23315
841.838	23197
841.975	23212
842.112	23265
842.249	23056
842.385	23128
842.522	23280
842.659	23113
842.796	22972
842.933	23064
843.069	22976
843.206	23060
843.343	23220
843.479	23079
843.616	22980
843.752	22900
843.889	22706
844.025	23052
844.162	22778
844.298	22904
844.435	22672
844.571	22866
844.708	22946
844.844	23048
844.98	22896
845.117	22927
845.253	22869
845.389	22672
845.525	22752
845.661	22740
845.798	22382
845.934	22577
846.07	22630
846.206	22580
846.342	22565
846.478	22550
846.614	22436
846.75	22268
846.886	22325
847.022	22382
847.158	22341
847.294	22299
847.429	22280
847.565	22211
847.701	22626
847.837	22101
847.972	22002
848.108	22230
848.244	22181
848.379	21838
848.515	21869
848.65	21831
848.786	21915
848.921	21884
849.057	21960
849.192	22044
849.328	21972
849.463	21915
849.598	21850
849.734	21762
849.869	21701
850.004	21720
850.14	21599
850.275	21701
850.41	21610
850.545	21610
850.68	21561
850.815	21694
850.95	21633
851.085	21922
851.22	21766
851.355	21656
851.49	21519
851.625	21618
851.76	21660
851.895	21622
852.03	21625
852.165	21599
852.299	21637
852.434	21663
852.569	21637
852.703	21652
852.838	21724
852.973	21812
853.107	21656
853.242	21515
853.376	21420
853.511	21405
853.645	21496
853.78	21625
853.914	21477
854.048	21507
854.183	21511
854.317	21481
854.451	21739
854.585	21481
854.72	21477
854.854	21568
854.988	21439
855.122	21530
855.256	21245
855.39	21466
855.524	21587
855.658	21583
855.792	21496
855.926	21466
856.06	21515
856.194	21515
856.327	21431
856.461	21477
856.595	21306
856.729	21424
856.862	21530
856.996	21504
857.13	21496
857.263	21492
857.397	21557
857.53	21401
857.664	21526
857.797	21610
857.931	21572
858.064	21389
858.197	21576
858.331	21462
858.464	21481
858.597	21408
858.731	21443
858.864	21389
858.997	21477
859.13	21485
859.263	21553
859.396	21587
859.529	21500
859.662	21504
859.795	21511
859.928	21462
860.061	21599
860.194	21656
860.327	21504
860.46	21420
860.592	21469
860.725	21709
860.858	21686
860.99	21542
861.123	21382
861.256	21272
861.388	21542
861.521	22188
861.653	21340
861.786	21275
861.918	21264
862.05	21431
862.183	21424
862.315	21500
862.447	21538
862.58	21450
862.712	21317
862.844	21116
862.976	21249
863.108	21363
863.24	21610
863.372	21032
863.504	21154
863.636	21233
863.768	21230
863.9	21180
864.032	21081
864.164	21058
864.296	21207
864.428	21245
864.559	21199
864.691	21245
864.823	21233
864.954	21230
865.086	21161
865.217	21070
865.349	21070
865.48	21070
865.612	21047
865.743	21146
865.875	21096
866.006	21020
866.137	20975
866.269	21032
866.4	21009
866.531	21119
866.662	21032
866.793	20963
866.924	21043
867.055	20952
867.186	21173
867.317	21085
867.448	20838
867.579	21005
867.71	20963
867.841	20925
867.972	20986
868.103	21058
868.233	20986
868.364	21127
868.495	21089
868.625	21275
868.756	21340
868.886	21119
869.017	21207
869.147	21424
869.278	21363
869.408	21329
869.539	21256
869.669	21272
869.799	21378
869.929	21325
870.06	21252
870.19	21553
870.32	21580
870.45	21545
870.58	21614
870.71	21686
870.84	21747
870.97	21614
871.1	21580
871.23	21762
871.36	21804
871.489	21800
871.619	21819
871.749	21785
871.879	22025
872.008	21876
872.138	21922
872.267	21819
872.397	21625
872.526	21720
872.656	21622
872.785	21625
872.915	21759
873.044	21876
873.173	21907
873.303	21835
873.432	21930
873.561	22010
873.69	21922
873.819	21979
873.948	21953
874.077	21899
874.206	21789
874.335	21793
874.464	22067
874.593	22105
874.722	22070
874.851	22181
874.979	22162
875.108	22059
875.237	22131
875.365	21911
875.494	21991
875.623	22204
875.751	22074
875.88	22154
876.008	22257
876.136	22299
876.265	22516
876.393	22584
876.521	22531
876.65	22428
876.778	22546
876.906	22512
877.034	22470
877.162	22413
877.29	22371
877.418	22500
877.546	22523
877.674	22428
877.802	22272
877.93	22421
878.058	22360
878.185	22223
878.313	22481
878.441	22402
878.568	22173
878.696	22261
878.824	22424
878.951	22554
879.079	22531
879.206	22774
879.333	22653
879.461	22504
879.588	22447
879.715	22611
879.842	22809
879.97	22455
880.097	22272
880.224	22166
880.351	22375
880.478	22295
880.605	22276
880.732	22238
880.859	22455
880.986	22287
881.112	22322
881.239	22090
881.366	22078
881.493	21987
881.619	21922
881.746	21774
881.872	21846
881.999	21800
882.125	21663
882.252	21869
882.378	21762
882.505	21899
882.631	21644
882.757	21515
882.883	21648
883.01	21580
883.136	21439
883.262	21416
883.388	21397
883.514	21469
883.64	21523
883.766	21454
883.892	21359
884.018	21355
884.143	21462
884.269	21603
884.395	21245
884.52	21104
884.646	21256
884.772	21096
884.897	21100
885.023	21108
885.148	21298
885.274	21230
885.399	21287
885.524	21230
885.65	21150
885.775	21279
885.9	21104
886.025	21245
886.15	21260
886.275	21081
886.4	21085
886.525	21169
886.65	21089
886.775	21154
886.9	21233
887.025	21374
887.149	21169
887.274	21005
887.399	20872
887.523	20807
887.648	20929
887.773	20785
887.897	21020
888.021	20921
888.146	20887
888.27	20994
888.395	21039
888.519	21108
888.643	21024
888.767	20990
888.891	20830
889.015	20739
889.139	20834
889.263	20727
889.387	20819
889.511	20944
889.635	20876
889.759	20697
889.883	20754
890.006	20606
890.13	20872
890.254	20579
890.377	20781
890.501	20454
890.624	20488
890.748	20556
890.871	20396
890.995	20309
891.118	20240
891.241	20324
891.364	20389
891.488	20355
891.611	20328
891.734	20286
891.857	20465
891.98	20282
892.103	20336
892.226	20336
892.349	20221
892.471	20187
892.594	20233
892.717	20317
892.839	20252
892.962	20263
893.085	20317
893.207	20233
893.33	20111
893.452	20138
893.575	20180
893.697	20176
893.819	20389
893.941	20351
894.064	20244
894.186	20218
894.308	20138
894.43	20252
894.552	20434
894.674	20294
894.796	20153
894.918	20210
895.04	20191
895.161	20313
895.283	20240
895.405	20134
895.526	20259
895.648	20024
895.769	20191
895.891	20336
896.012	20362
896.134	20225
896.255	20309
896.376	20138
896.498	20168
896.619	20290
896.74	20225
896.861	20256
896.982	20537
897.103	20678
897.224	20541
897.345	20400
897.466	20400
897.587	20564
897.708	20552
897.828	20537
897.949	20267
898.07	20339
898.19	20298
898.311	20602
898.431	20301
898.552	20393
898.672	20492
898.792	20583
898.913	20495
899.033	20343
899.153	20092
899.273	20050
899.393	20214
899.513	20229
899.633	20191
899.753	20206
899.873	20077
899.993	20172
900.113	20084
900.232	20084
900.352	20119
900.472	19951
900.591	19864
900.711	20024
900.83	19856
900.95	20043
901.069	19967
901.189	19837
901.308	19521
901.427	19533
901.546	19578
901.665	19597
901.784	19464
901.904	19445
902.023	19274
902.141	19084
902.26	19038
902.379	19122
902.498	19053
902.617	18932
902.735	18981
902.854	18989
902.973	18924
903.091	18650
903.21	18814
903.328	18639
903.446	18582
903.565	18521
903.683	18445
903.801	18391
903.919	18414
904.038	18456
904.156	18384
904.274	18407
904.392	18224
904.51	18209
904.627	18285
904.745	18388
904.863	18281
904.981	18125
905.098	17866
905.216	17923
905.334	17939
905.451	18034
905.569	18030
905.686	17920
905.803	17897
905.921	17748
906.038	17878
906.155	17691
906.272	17646
906.389	17733
906.506	17573
906.623	17383
906.74	17474
906.857	17376
906.974	17341
907.091	17505
907.208	17543
907.324	17410
907.441	17414
907.557	17326
907.674	17246
907.79	17102
907.907	17121
908.023	17128
908.139	17155
908.256	17037
908.372	17067
908.488	16961
908.604	16927
908.72	16854
908.836	16866
908.952	16946
909.068	16801
909.184	16957
909.3	16896
909.415	16968
909.531	16911
909.647	16618
909.762	16653
909.878	16637
909.993	16546
910.108	16664
910.224	16622
910.339	16558
910.454	16440
910.57	16455
910.685	16337
910.8	16584
910.915	16611
911.03	16398
911.145	16287
911.259	16238
911.374	16215
911.489	16116
911.604	16173
911.718	15899
911.833	15945
911.947	15865
912.062	15812
912.176	15972
912.291	15934
912.405	15903
912.519	16204
912.633	16131
912.748	15987
912.862	15926
912.976	15797
913.09	15637
913.204	15667
913.318	15751
913.431	15816
913.545	15873
913.659	15838
913.772	15644
913.886	15568
914	15606
914.113	15694
914.226	15781
914.34	15633
914.453	15485
914.566	15644
914.68	15428
914.793	15393
914.906	15222
915.019	15154
915.132	15161
915.245	15203
915.358	15093
915.47	15119
915.583	15180
915.696	15173
915.809	15287
915.921	15325
916.034	15093
916.146	15127
916.259	15081
916.371	15184
916.483	15195
916.595	14941
916.708	15116
916.82	14914
916.932	14937
917.044	14906
917.156	14941
917.268	14773
917.38	14864
917.491	14845
917.603	14796
917.715	14948
917.826	14902
917.938	14762
918.049	14724
918.161	14754
918.272	14845
918.384	14868
918.495	14731
918.606	14571
918.717	14507
918.828	14613
918.939	14625
919.05	14431
919.161	14621
919.272	14404
919.383	14396
919.494	14606
919.604	14792
919.715	14533
919.826	14442
919.936	14465
920.047	14587
920.157	14518
920.267	14693
920.378	14518
920.488	14556
920.598	14720
920.708	14811
920.818	14693
920.928	14549
921.038	14857
921.148	14746
921.258	14492
921.368	14404
921.477	14336
921.587	14286
921.697	14157
921.806	14191
921.916	14103
922.025	14001
922.134	13871
922.244	13845
922.353	13932
922.462	13647
922.571	13658
922.68	13510
922.789	13502
922.898	13567
923.007	13510
923.116	13567
923.224	13533
923.333	13499
923.442	13487
923.55	13476
923.659	13377
923.767	13388
923.876	13274
923.984	13434
924.092	13316
924.201	13289
924.309	13274
924.417	13270
924.525	13190
924.633	13194
924.741	14100
924.849	13019
924.956	13084
925.064	13000
925.172	12932
925.279	12897
925.387	12958
925.494	12897
925.602	13088
925.709	13023
925.816	12897
925.924	12939
926.031	12985
926.138	12840
926.245	12920
926.352	12795
926.459	12935
926.566	12970
926.673	12844
926.779	12715
926.886	12658
926.993	12673
927.099	12467
927.206	12521
927.312	12464
927.419	12623
927.525	12445
927.631	12574
927.737	12399
927.843	12445
927.95	12235
928.056	12338
928.162	12429
928.267	12388
928.373	12947
928.479	12414
928.585	12136
928.69	12296
928.796	12342
928.901	12384
929.007	12098
929.112	12266
929.218	12224
929.323	12140
929.428	12114
929.533	12323
929.638	12026
929.743	12030
929.848	12087
929.953	12121
930.058	11946
930.163	11733
930.267	11775
930.372	11866
930.477	11779
930.581	11984
930.685	11817
930.79	11691
930.894	11722
930.998	11585
931.103	11760
931.207	11467
931.311	11414
931.415	11311
931.519	11098
931.623	11086
