Data from test_V78500241_2171.txt Node
Date: Fri Mar 25 15:24:58 CST 2022
User: usil
Spectrometer: V785-0024
Trigger mode: 0
Integration Time (sec): 4.000000E-1
Scans to average: 1
Nonlinearity correction enabled: false
Boxcar width: 0
Storing dark spectrum: false
XAxis mode: Wavelengths
Number of Pixels in Spectrum: 1024
>>>>>Begin Spectral Data<<<<<
801.071	27644
801.214	27804
801.356	27370
801.499	27393
801.641	27393
801.783	27313
801.926	27336
802.068	27256
802.211	27272
802.353	27142
802.496	27005
802.638	26940
802.78	26883
802.923	26914
803.065	26853
803.208	26842
803.35	26940
803.492	27081
803.635	27157
803.777	27089
803.919	27066
804.061	27500
804.204	27192
804.346	27074
804.488	27142
804.63	27154
804.773	27017
804.915	27081
805.057	27180
805.199	27062
805.341	27058
805.483	27310
805.626	27256
805.768	27116
805.91	27116
806.052	27245
806.194	27070
806.336	27298
806.478	27237
806.62	27169
806.762	27382
806.904	27576
807.046	27724
807.188	27713
807.33	27705
807.472	27785
807.614	27587
807.756	27568
807.898	27435
808.04	27492
808.182	27340
808.324	27641
808.465	27587
808.607	27713
808.749	27850
808.891	27994
809.033	27941
809.174	27937
809.316	27880
809.458	27759
809.6	27774
809.741	28040
809.883	27968
810.025	28226
810.166	28044
810.308	28101
810.45	28230
810.591	27930
810.733	27941
810.875	27899
811.016	27713
811.158	27774
811.299	27876
811.441	27953
811.582	27865
811.724	27827
811.865	27804
812.007	27720
812.148	27724
812.29	27914
812.431	28013
812.573	28166
812.714	28257
812.855	28352
812.997	28379
813.138	28554
813.279	28577
813.421	28249
813.562	28367
813.703	28230
813.845	28116
813.986	27778
814.127	27736
814.268	27656
814.41	27637
814.551	27610
814.692	27572
814.833	27587
814.974	27462
815.115	27530
815.256	27306
815.397	27477
815.539	27519
815.68	27310
815.821	27291
815.962	27336
816.103	27291
816.244	27211
816.385	27058
816.526	27066
816.666	26948
816.807	26819
816.948	26956
817.089	26933
817.23	26910
817.371	26811
817.512	26849
817.653	26663
817.793	26625
817.934	26773
818.075	26811
818.216	26788
818.356	26864
818.497	26712
818.638	26537
818.778	26480
818.919	26640
819.06	26560
819.2	26716
819.341	26823
819.481	26769
819.622	26982
819.762	27207
819.903	27093
820.043	26906
820.184	26940
820.324	26948
820.465	26960
820.605	26906
820.746	26868
820.886	26678
821.026	26864
821.167	26815
821.307	26948
821.447	26811
821.588	26842
821.728	26594
821.868	26427
822.008	26366
822.149	26377
822.289	26336
822.429	26142
822.569	26046
822.709	26008
822.849	25852
822.99	25753
823.13	25750
823.27	25761
823.41	25518
823.55	25575
823.69	25681
823.83	25594
823.97	25548
824.11	25479
824.25	25392
824.389	25251
824.529	25419
824.669	25499
824.809	25586
824.949	25540
825.089	25479
825.228	25472
825.368	25339
825.508	25194
825.648	25202
825.787	25301
825.927	25308
826.067	25297
826.206	25240
826.346	25377
826.485	25247
826.625	25346
826.765	25350
826.904	25358
827.044	25141
827.183	25084
827.323	25065
827.462	25008
827.601	24958
827.741	24962
827.88	24985
828.02	24962
828.159	24973
828.298	25008
828.437	24951
828.577	24890
828.716	25004
828.855	24924
828.994	24661
829.134	24703
829.273	24726
829.412	24597
829.551	24707
829.69	24696
829.829	24825
829.968	24711
830.107	24635
830.246	24852
830.385	24513
830.524	24551
830.663	24513
830.802	24452
830.941	24350
831.08	24251
831.219	24460
831.357	24308
831.496	24540
831.635	24388
831.774	24281
831.913	24190
832.051	24068
832.19	24060
832.329	24060
832.467	23969
832.606	24011
832.744	23851
832.883	23973
833.022	24015
833.16	23931
833.299	24030
833.437	23954
833.576	24041
833.714	23874
833.852	24072
833.991	23988
834.129	23984
834.267	24194
834.406	24171
834.544	24034
834.682	24045
834.821	24045
834.959	24216
835.097	23927
835.235	24091
835.373	23988
835.511	23893
835.65	23748
835.788	23908
835.926	23817
836.064	23779
836.202	23623
836.34	23897
836.478	23927
836.615	23885
836.753	23927
836.891	23851
837.029	23893
837.167	23821
837.305	23714
837.443	23817
837.58	23889
837.718	23805
837.856	23718
837.993	23608
838.131	23703
838.269	23478
838.406	23623
838.544	23471
838.681	23387
838.819	23417
838.956	23212
839.094	23254
839.231	23280
839.369	23296
839.506	23726
839.643	23486
839.781	23258
839.918	23098
840.055	23250
840.193	23109
840.33	23132
840.467	23056
840.604	23128
840.742	23493
840.879	22919
841.016	22949
841.153	23029
841.29	23181
841.427	23083
841.564	23124
841.701	23124
841.838	23060
841.975	23033
842.112	22946
842.249	22953
842.385	22881
842.522	23037
842.659	22885
842.796	22869
842.933	22946
843.069	22797
843.206	22805
843.343	22949
843.479	22850
843.616	22953
843.752	22774
843.889	22599
844.025	22736
844.162	22653
844.298	22733
844.435	22759
844.571	22660
844.708	22637
844.844	22797
844.98	22858
845.117	22740
845.253	22672
845.389	22443
845.525	22432
845.661	22417
845.798	22402
845.934	22394
846.07	22322
846.206	22432
846.342	22371
846.478	22405
846.614	22265
846.75	22116
846.886	22090
847.022	22067
847.158	21998
847.294	22223
847.429	22063
847.565	22131
847.701	22234
847.837	21892
847.972	21755
848.108	21857
848.244	21827
848.379	21831
848.515	21785
848.65	21637
848.786	21682
848.921	21766
849.057	21709
849.192	21789
849.328	21690
849.463	21732
849.598	21629
849.734	21682
849.869	21485
850.004	21428
850.14	21606
850.275	21469
850.41	21329
850.545	21435
850.68	21424
850.815	21439
850.95	21526
851.085	21500
851.22	21538
851.355	21428
851.49	21378
851.625	21428
851.76	21473
851.895	21275
852.03	21306
852.165	21370
852.299	21530
852.434	21485
852.569	21450
852.703	21420
852.838	21580
852.973	21549
853.107	21610
853.242	21370
853.376	21287
853.511	21195
853.645	21184
853.78	21355
853.914	21367
854.048	21310
854.183	21188
854.317	21367
854.451	21439
854.585	21386
854.72	21237
854.854	21363
854.988	21188
855.122	21302
855.256	21268
855.39	21237
855.524	21370
855.658	21336
855.792	21207
855.926	21370
856.06	21348
856.194	21252
856.327	21279
856.461	21272
856.595	21199
856.729	21226
856.862	21389
856.996	21306
857.13	21249
857.263	21378
857.397	21408
857.53	21211
857.664	21329
857.797	21351
857.931	21313
858.064	21306
858.197	21313
858.331	21435
858.464	21165
858.597	21169
858.731	21211
858.864	21275
858.997	21256
859.13	21272
859.263	21245
859.396	21329
859.529	21211
859.662	21378
859.795	21055
859.928	21317
860.061	21310
860.194	21526
860.327	21348
860.46	21233
860.592	21420
860.725	21416
860.858	21431
860.99	21188
861.123	21127
861.256	21218
861.388	21340
861.521	21941
861.653	21188
861.786	20994
861.918	21104
862.05	21268
862.183	21142
862.315	21203
862.447	21332
862.58	21211
862.712	21085
862.844	20960
862.976	21131
863.108	20979
863.24	21500
863.372	20891
863.504	21001
863.636	21024
863.768	20994
863.9	20967
864.032	20853
864.164	20971
864.296	21077
864.428	21039
864.559	21047
864.691	21066
864.823	21062
864.954	21017
865.086	20975
865.217	20956
865.349	20807
865.48	20902
865.612	20921
865.743	21055
865.875	20868
866.006	20864
866.137	20914
866.269	20834
866.4	20895
866.531	20800
866.662	20826
866.793	20807
866.924	20746
867.055	20823
867.186	20792
867.317	20773
867.448	20716
867.579	20792
867.71	20701
867.841	20743
867.972	20826
868.103	20796
868.233	20830
868.364	20796
868.495	20952
868.625	20948
868.756	21218
868.886	20891
869.017	21020
869.147	21264
869.278	21081
869.408	21112
869.539	21009
869.669	21127
869.799	21176
869.929	21275
870.06	21207
870.19	21450
870.32	21294
870.45	21405
870.58	21435
870.71	21534
870.84	21561
870.97	21469
871.1	21545
871.23	21614
871.36	21637
871.489	21580
871.619	21713
871.749	21599
871.879	21679
872.008	21751
872.138	21713
872.267	21641
872.397	21587
872.526	21428
872.656	21561
872.785	21450
872.915	21580
873.044	21671
873.173	21732
873.303	21671
873.432	21724
873.561	21743
873.69	21686
873.819	21633
873.948	21656
874.077	21804
874.206	21648
874.335	21785
874.464	21781
874.593	21972
874.722	21838
874.851	21918
874.979	21854
875.108	21960
875.237	21895
875.365	21778
875.494	21789
875.623	21861
875.751	21861
875.88	21895
876.008	21941
876.136	22135
876.265	22284
876.393	22314
876.521	22443
876.65	22344
876.778	22325
876.906	22211
877.034	22143
877.162	22177
877.29	22150
877.418	22272
877.546	22249
877.674	22204
877.802	22249
877.93	22211
878.058	22139
878.185	22101
878.313	22086
878.441	22272
878.568	22048
878.696	22257
878.824	22291
878.951	22337
879.079	22390
879.206	22538
879.333	22329
879.461	22333
879.588	22440
879.715	22379
879.842	22535
879.97	22299
880.097	22105
880.224	21998
880.351	22124
880.478	22109
880.605	22029
880.732	21861
880.859	22405
880.986	22067
881.112	22059
881.239	21941
881.366	21850
881.493	21835
881.619	21583
881.746	21679
881.872	21564
881.999	21603
882.125	21591
882.252	21587
882.378	21606
882.505	21755
882.631	21591
882.757	21485
882.883	21401
883.01	21408
883.136	21218
883.262	21195
883.388	21070
883.514	21283
883.64	21367
883.766	21218
883.892	21112
884.018	21173
884.143	21340
884.269	21348
884.395	21043
884.52	20921
884.646	21009
884.772	21009
884.897	20823
885.023	21013
885.148	21100
885.274	21081
885.399	20994
885.524	20929
885.65	21013
885.775	21009
885.9	20994
886.025	20914
886.15	21051
886.275	20990
886.4	20853
886.525	20929
886.65	20861
886.775	20880
886.9	21131
887.025	21150
887.149	20838
887.274	20667
887.399	20762
887.523	20838
887.648	20739
887.773	20507
887.897	20750
888.021	20861
888.146	20712
888.27	20838
888.395	20762
888.519	20735
888.643	20811
888.767	20678
888.891	20735
889.015	20434
889.139	20568
889.263	20495
889.387	20667
889.511	20727
889.635	20625
889.759	20454
889.883	20511
890.006	20556
890.13	20598
890.254	20549
890.377	20541
890.501	20351
890.624	20389
890.748	20355
890.871	20229
890.995	20100
891.118	20054
891.241	20130
891.364	20107
891.488	20214
891.611	20054
891.734	20138
891.857	20111
891.98	20077
892.103	20092
892.226	20161
892.349	19997
892.471	19944
892.594	20130
892.717	20008
892.839	19970
892.962	20043
893.085	20039
893.207	20027
893.33	19921
893.452	20012
893.575	20115
893.697	19967
893.819	20161
893.941	20195
894.064	20100
894.186	19955
894.308	19974
894.43	20100
894.552	20119
894.674	20115
894.796	19879
894.918	20008
895.04	20005
895.161	19974
895.283	19959
895.405	19902
895.526	20039
895.648	19951
895.769	20107
895.891	20050
896.012	20195
896.134	19997
896.255	19978
896.376	19997
896.498	19970
896.619	19955
896.74	19944
896.861	20065
896.982	20419
897.103	20503
897.224	20377
897.345	20244
897.466	20195
897.587	20164
897.708	20377
897.828	20400
897.949	20183
898.07	20043
898.19	20031
898.311	20317
898.431	20157
898.552	20267
898.672	20301
898.792	20324
898.913	20176
899.033	20145
899.153	20031
899.273	19875
899.393	20012
899.513	19982
899.633	20016
899.753	19944
899.873	20054
899.993	20024
900.113	19921
900.232	20062
900.352	19944
900.472	19845
900.591	19734
900.711	19784
900.83	19712
900.95	19909
901.069	19856
901.189	19613
901.308	19430
901.427	19327
901.546	19426
901.665	19430
901.784	19388
901.904	19293
902.023	19126
902.141	19122
902.26	18909
902.379	19046
902.498	18901
902.617	18814
902.735	18745
902.854	18787
902.973	18871
903.091	18566
903.21	18506
903.328	18608
903.446	18475
903.565	18403
903.683	18353
903.801	18213
903.919	18292
904.038	18281
904.156	18152
904.274	18232
904.392	18133
904.51	17980
904.627	18083
904.745	18125
904.863	18114
904.981	17863
905.098	17855
905.216	17775
905.334	17840
905.451	17897
905.569	17817
905.686	17950
905.803	17786
905.921	17577
906.038	17729
906.155	17608
906.272	17368
906.389	17539
906.506	17337
906.623	17292
906.74	17246
906.857	17220
906.974	17273
907.091	17368
907.208	17490
907.324	17239
907.441	17242
907.557	17037
907.674	17113
907.79	17010
907.907	16991
908.023	17105
908.139	17075
908.256	16991
908.372	16949
908.488	16847
908.604	16790
908.72	16717
908.836	16816
908.952	16767
909.068	16843
909.184	16858
909.3	16721
909.415	16729
909.531	16778
909.647	16508
909.762	16394
909.878	16398
909.993	16436
910.108	16402
910.224	16421
910.339	16516
910.454	16325
910.57	16249
910.685	16284
910.8	16622
910.915	16440
911.03	16375
911.145	16067
911.259	16010
911.374	15979
911.489	16002
911.604	15876
911.718	15804
911.833	15747
911.947	15675
912.062	15713
912.176	15770
912.291	15747
912.405	15823
912.519	16021
912.633	16059
912.748	15854
912.862	15816
912.976	15633
913.09	15584
913.204	15587
913.318	15641
913.431	15633
913.545	15591
913.659	15720
913.772	15580
913.886	15481
914	15325
914.113	15477
914.226	15538
914.34	15412
914.453	15260
914.566	15431
914.68	15325
914.793	15340
914.906	15127
915.019	15089
915.132	15017
915.245	15001
915.358	14952
915.47	14998
915.583	14990
915.696	15017
915.809	15173
915.921	15077
916.034	15009
916.146	14979
916.259	14921
916.371	14952
916.483	14956
916.595	14853
916.708	14895
916.82	14853
916.932	14880
917.044	14792
917.156	14708
917.268	14731
917.38	14651
917.491	14625
917.603	14693
917.715	14640
917.826	14769
917.938	14651
918.049	14549
918.161	14518
918.272	14902
918.384	14689
918.495	14556
918.606	14473
918.717	14377
918.828	14488
918.939	14484
919.05	14339
919.161	14465
919.272	14271
919.383	14324
919.494	14461
919.604	14568
919.715	14499
919.826	14332
919.936	14465
920.047	14431
920.157	14492
920.267	14549
920.378	14473
920.488	14423
920.598	14511
920.708	14682
920.818	14541
920.928	14602
921.038	14655
921.148	14705
921.258	14233
921.368	14347
921.477	14119
921.587	14130
921.697	13967
921.806	14134
921.916	13967
922.025	13772
922.134	13784
922.244	13746
922.353	13826
922.462	13670
922.571	13537
922.68	13422
922.789	13472
922.898	13499
923.007	13354
923.116	13438
923.224	13392
923.333	13430
923.442	13240
923.55	13183
923.659	13251
923.767	13419
923.876	13301
923.984	13297
924.092	13122
924.201	13171
924.309	13194
924.417	13168
924.525	13133
924.633	13126
924.741	13936
924.849	12932
924.956	13012
925.064	12840
925.172	12764
925.279	12863
925.387	12913
925.494	12817
925.602	12894
925.709	12890
925.816	12688
925.924	12806
926.031	12802
926.138	12821
926.245	12764
926.352	12700
926.459	12837
926.566	12726
926.673	12791
926.779	12662
926.886	12639
926.993	12513
927.099	12437
927.206	12414
927.312	12369
927.419	12490
927.525	12414
927.631	12456
927.737	12361
927.843	12243
927.95	12144
928.056	12304
928.162	12296
928.267	12281
928.373	12909
928.479	12205
928.585	12068
928.69	12155
928.796	12270
928.901	12087
929.007	11969
929.112	12117
929.218	12121
929.323	11954
929.428	11958
929.533	12152
929.638	11897
929.743	11893
929.848	11984
929.953	11954
930.058	11920
930.163	11779
930.267	11684
930.372	11722
930.477	11680
930.581	11927
930.685	11680
930.79	11558
930.894	11634
930.998	11604
931.103	11585
931.207	11277
931.311	11258
931.415	11159
931.519	10881
931.623	10957
