Data from test_V78500241_3370.txt Node
Date: Fri Mar 25 15:33:19 CST 2022
User: usil
Spectrometer: V785-0024
Trigger mode: 0
Integration Time (sec): 4.000000E-1
Scans to average: 1
Nonlinearity correction enabled: false
Boxcar width: 0
Storing dark spectrum: false
XAxis mode: Wavelengths
Number of Pixels in Spectrum: 1024
>>>>>Begin Spectral Data<<<<<
801.071	27226
801.214	27135
801.356	27089
801.499	26826
801.641	26724
801.783	26750
801.926	26754
802.068	26648
802.211	26720
802.353	26552
802.496	26575
802.638	26495
802.78	26328
802.923	26355
803.065	26347
803.208	26115
803.35	26404
803.492	26511
803.635	26526
803.777	26442
803.919	26450
804.061	26842
804.204	26651
804.346	26404
804.488	26339
804.63	26484
804.773	26400
804.915	26480
805.057	26693
805.199	26408
805.341	26552
805.483	26556
805.626	26621
805.768	26629
805.91	26682
806.052	26579
806.194	26667
806.336	26785
806.478	26579
806.62	26625
806.762	26617
806.904	26933
807.046	27043
807.188	27077
807.33	27150
807.472	27104
807.614	26925
807.756	26960
807.898	26853
808.04	26864
808.182	26815
808.324	26918
808.465	26800
808.607	27104
808.749	27226
808.891	27230
809.033	27302
809.174	27249
809.316	27169
809.458	27272
809.6	27211
809.741	27268
809.883	27332
810.025	27561
810.166	27526
810.308	27454
810.45	27530
810.591	27466
810.733	27317
810.875	27184
811.016	27176
811.158	27119
811.299	27279
811.441	27317
811.582	27348
811.724	27287
811.865	27032
812.007	27252
812.148	27268
812.29	27245
812.431	27496
812.573	27447
812.714	27595
812.855	27709
812.997	27713
813.138	27922
813.279	27762
813.421	27797
813.562	27641
813.703	27576
813.845	27367
813.986	27093
814.127	27024
814.268	26883
814.41	26918
814.551	26842
814.692	26811
814.833	26815
814.974	26758
815.115	26883
815.256	26705
815.397	26750
815.539	26682
815.68	26765
815.821	26571
815.962	26754
816.103	26511
816.244	26457
816.385	26415
816.526	26317
816.666	26267
816.807	26138
816.948	26149
817.089	26195
817.23	26229
817.371	26008
817.512	26145
817.653	26039
817.793	26111
817.934	26229
818.075	26195
818.216	26103
818.356	26050
818.497	25913
818.638	25879
818.778	25894
818.919	25830
819.06	25925
819.2	25944
819.341	25913
819.481	26024
819.622	26374
819.762	26442
819.903	26377
820.043	26301
820.184	26309
820.324	26221
820.465	26275
820.605	26161
820.746	26149
820.886	26107
821.026	26027
821.167	26271
821.307	26248
821.447	26195
821.588	25993
821.728	25803
821.868	25784
822.008	25544
822.149	25609
822.289	25529
822.429	25316
822.569	25190
822.709	25289
822.849	25187
822.99	25107
823.13	25145
823.27	25133
823.41	24863
823.55	24715
823.69	24973
823.83	24905
823.97	24798
824.11	24753
824.25	24715
824.389	24639
824.529	24734
824.669	24821
824.809	24795
824.949	24700
825.089	24776
825.228	24738
825.368	24559
825.508	24498
825.648	24578
825.787	24578
825.927	24688
826.067	24502
826.206	24627
826.346	24692
826.485	24681
826.625	24684
826.765	24821
826.904	24528
827.044	24445
827.183	24361
827.323	24213
827.462	24422
827.601	24319
827.741	24289
827.88	24266
828.02	24178
828.159	24178
828.298	24224
828.437	24338
828.577	24140
828.716	24357
828.855	24174
828.994	24041
829.134	23931
829.273	24079
829.412	24041
829.551	24003
829.69	24034
829.829	23996
829.968	24079
830.107	24076
830.246	24041
830.385	23874
830.524	23908
830.663	23882
830.802	23752
830.941	23452
831.08	23809
831.219	23824
831.357	23630
831.496	23809
831.635	23687
831.774	23608
831.913	23581
832.051	23311
832.19	23326
832.329	23356
832.467	23322
832.606	23356
832.744	23311
832.883	23197
833.022	23296
833.16	23261
833.299	23383
833.437	23410
833.576	23448
833.714	23383
833.852	23406
833.991	23284
834.129	23425
834.267	23478
834.406	23448
834.544	23406
834.682	23486
834.821	23315
834.959	23528
835.097	23315
835.235	23444
835.373	23486
835.511	23429
835.65	23193
835.788	23261
835.926	22953
836.064	23079
836.202	23181
836.34	23258
836.478	23280
836.615	23242
836.753	23231
836.891	23383
837.029	23433
837.167	23105
837.305	23212
837.443	23060
837.58	22965
837.718	23204
837.856	23064
837.993	22987
838.131	23003
838.269	23067
838.406	23052
838.544	22968
838.681	22782
838.819	22733
838.956	22497
839.094	22523
839.231	22523
839.369	22831
839.506	22919
839.643	22759
839.781	22599
839.918	22588
840.055	22592
840.193	22538
840.33	22455
840.467	22462
840.604	22634
840.742	22820
840.879	22295
841.016	22398
841.153	22371
841.29	22569
841.427	22432
841.564	22596
841.701	22466
841.838	22519
841.975	22409
842.112	22379
842.249	22436
842.385	22204
842.522	22516
842.659	22318
842.796	22265
842.933	22261
843.069	22261
843.206	22238
843.343	22314
843.479	22238
843.616	22219
843.752	22048
843.889	22036
844.025	22196
844.162	22013
844.298	22116
844.435	22036
844.571	21956
844.708	22147
844.844	22253
844.98	22074
845.117	22124
845.253	21895
845.389	21880
845.525	21956
845.661	21903
845.798	21812
845.934	21835
846.07	21751
846.206	21785
846.342	21918
846.478	21762
846.614	21458
846.75	21519
846.886	21507
847.022	21481
847.158	21572
847.294	21416
847.429	21583
847.565	21462
847.701	21720
847.837	21245
847.972	21321
848.108	21321
848.244	21237
848.379	21245
848.515	21089
848.65	21096
848.786	21085
848.921	21081
849.057	21199
849.192	21199
849.328	21077
849.463	21112
849.598	21020
849.734	20994
849.869	20921
850.004	20800
850.14	20887
850.275	20921
850.41	20849
850.545	20842
850.68	20815
850.815	20910
850.95	20872
851.085	21013
851.22	20876
851.355	20830
851.49	20918
851.625	20735
851.76	20773
851.895	20796
852.03	20788
852.165	20815
852.299	20826
852.434	20960
852.569	20910
852.703	20746
852.838	20986
852.973	21135
853.107	20975
853.242	20773
853.376	20617
853.511	20598
853.645	20735
853.78	20701
853.914	20769
854.048	20731
854.183	20621
854.317	20788
854.451	20944
854.585	20705
854.72	20701
854.854	20796
854.988	20636
855.122	20689
855.256	20609
855.39	20712
855.524	20811
855.658	20720
855.792	20762
855.926	20651
856.06	20674
856.194	20834
856.327	20849
856.461	20590
856.595	20678
856.729	20716
856.862	20731
856.996	20708
857.13	20750
857.263	20804
857.397	20743
857.53	20781
857.664	20651
857.797	20773
857.931	20925
858.064	20777
858.197	20674
858.331	20640
858.464	20636
858.597	20590
858.731	20689
858.864	20644
858.997	20537
859.13	20712
859.263	20617
859.396	20853
859.529	20765
859.662	20568
859.795	20651
859.928	20708
860.061	20944
860.194	20876
860.327	20621
860.46	20921
860.592	20811
860.725	20701
860.858	20842
860.99	20743
861.123	20655
861.256	20731
861.388	20754
861.521	21405
861.653	20575
861.786	20427
861.918	20568
862.05	20625
862.183	20621
862.315	20754
862.447	20609
862.58	20682
862.712	20438
862.844	20438
862.976	20507
863.108	20438
863.24	20777
863.372	20229
863.504	20438
863.636	20385
863.768	20545
863.9	20412
864.032	20431
864.164	20370
864.296	20412
864.428	20450
864.559	20583
864.691	20465
864.823	20415
864.954	20480
865.086	20469
865.217	20313
865.349	20153
865.48	20252
865.612	20320
865.743	20389
865.875	20320
866.006	20355
866.137	20240
866.269	20328
866.4	20252
866.531	20309
866.662	20229
866.793	20263
866.924	20240
867.055	20263
867.186	20317
867.317	20176
867.448	20202
867.579	20244
867.71	20195
867.841	20199
867.972	20320
868.103	20259
868.233	20298
868.364	20225
868.495	20427
868.625	20396
868.756	20636
868.886	20499
869.017	20476
869.147	20655
869.278	20659
869.408	20556
869.539	20556
869.669	20621
869.799	20587
869.929	20644
870.06	20758
870.19	20849
870.32	20777
870.45	20849
870.58	20990
870.71	21154
870.84	21093
870.97	20826
871.1	20880
871.23	21051
871.36	21017
871.489	21116
871.619	21157
871.749	21096
871.879	21093
872.008	21176
872.138	21077
872.267	21108
872.397	20963
872.526	20880
872.656	20891
872.785	20941
872.915	21199
873.044	21173
873.173	21127
873.303	21138
873.432	21192
873.561	21249
873.69	21165
873.819	21116
873.948	21150
874.077	21047
874.206	21157
874.335	21230
874.464	21245
874.593	21370
874.722	21268
874.851	21393
874.979	21382
875.108	21439
875.237	21485
875.365	21363
875.494	21477
875.623	21450
875.751	21378
875.88	21481
876.008	21473
876.136	21652
876.265	21823
876.393	21899
876.521	21876
876.65	21869
876.778	21785
876.906	21755
877.034	21663
877.162	21675
877.29	21675
877.418	21759
877.546	21667
877.674	21690
877.802	21694
877.93	21781
878.058	21637
878.185	21690
878.313	21709
878.441	21728
878.568	21542
878.696	21641
878.824	21743
878.951	21701
879.079	21915
879.206	22067
879.333	21915
879.461	21694
879.588	21907
879.715	21823
879.842	21842
879.97	21903
880.097	21564
880.224	21507
880.351	21682
880.478	21652
880.605	21572
880.732	21545
880.859	21842
880.986	21595
881.112	21511
881.239	21511
881.366	21291
881.493	21256
881.619	21214
881.746	21287
881.872	21028
881.999	21089
882.125	21119
882.252	21100
882.378	21009
882.505	21176
882.631	20979
882.757	20925
882.883	20979
883.01	20807
883.136	20921
883.262	20750
883.388	20724
883.514	20891
883.64	20906
883.766	20823
883.892	20636
884.018	20571
884.143	20891
884.269	20872
884.395	20705
884.52	20552
884.646	20427
884.772	20377
884.897	20404
885.023	20552
885.148	20587
885.274	20678
885.399	20602
885.524	20511
885.65	20545
885.775	20499
885.9	20404
886.025	20663
886.15	20499
886.275	20431
886.4	20248
886.525	20408
886.65	20347
886.775	20400
886.9	20594
887.025	20724
887.149	20469
887.274	20267
887.399	20229
887.523	20324
887.648	20214
887.773	20138
887.897	20214
888.021	20351
888.146	20237
888.27	20324
888.395	20381
888.519	20263
888.643	20282
888.767	20434
888.891	20134
889.015	20062
889.139	20069
889.263	19997
889.387	20218
889.511	20309
889.635	20199
889.759	20012
889.883	20172
890.006	20008
890.13	20218
890.254	19959
890.377	19894
890.501	19890
890.624	19814
890.748	19833
890.871	19883
890.995	19776
891.118	19639
891.241	19620
891.364	19651
891.488	19795
891.611	19655
891.734	19670
891.857	19693
891.98	19712
892.103	19761
892.226	19723
892.349	19514
892.471	19487
892.594	19651
892.717	19620
892.839	19578
892.962	19491
893.085	19666
893.207	19670
893.33	19556
893.452	19510
893.575	19582
893.697	19525
893.819	19807
893.941	19666
894.064	19765
894.186	19609
894.308	19578
894.43	19696
894.552	19761
894.674	19635
894.796	19434
894.918	19487
895.04	19571
895.161	19540
895.283	19594
895.405	19525
895.526	19586
895.648	19559
895.769	19658
895.891	19571
896.012	19567
896.134	19753
896.255	19597
896.376	19548
896.498	19674
896.619	19624
896.74	19559
896.861	19518
896.982	19871
897.103	20062
897.224	19963
897.345	19944
897.466	19738
897.587	19879
897.708	19917
897.828	19795
897.949	19814
898.07	19613
898.19	19818
898.311	19887
898.431	19727
898.552	19830
898.672	19772
898.792	19951
898.913	19772
899.033	19780
899.153	19620
899.273	19529
899.393	19525
899.513	19582
899.633	19597
899.753	19582
899.873	19422
899.993	19510
900.113	19460
900.232	19605
900.352	19438
900.472	19384
900.591	19312
900.711	19324
900.83	19301
900.95	19407
901.069	19411
901.189	19228
901.308	19008
901.427	18882
901.546	18913
901.665	18973
901.784	19065
901.904	18757
902.023	18658
902.141	18464
902.26	18448
902.379	18513
902.498	18467
902.617	18342
902.735	18490
902.854	18486
902.973	18334
903.091	18205
903.21	18201
903.328	18133
903.446	18003
903.565	18072
903.683	18015
903.801	17805
903.919	17908
904.038	17863
904.156	17687
904.274	17687
904.392	17760
904.51	17642
904.627	17710
904.745	17718
904.863	17821
904.981	17577
905.098	17376
905.216	17307
905.334	17463
905.451	17474
905.569	17376
905.686	17398
905.803	17269
905.921	17212
906.038	17235
906.155	17204
906.272	17197
906.389	17105
906.506	16828
906.623	16923
906.74	16908
906.857	16843
906.974	16809
907.091	17025
907.208	16972
907.324	16953
907.441	16805
907.557	16607
907.674	16748
907.79	16569
907.907	16596
908.023	16725
908.139	16561
908.256	16573
908.372	16569
908.488	16615
908.604	16432
908.72	16390
908.836	16382
908.952	16352
909.068	16455
909.184	16516
909.3	16341
909.415	16402
909.531	16314
909.647	16211
909.762	16074
909.878	16067
909.993	16090
910.108	16071
910.224	15979
910.339	16017
910.454	15968
910.57	15930
910.685	15907
910.8	16226
910.915	16025
911.03	15953
911.145	15682
911.259	15690
911.374	15743
911.489	15545
911.604	15652
911.718	15401
911.833	15462
911.947	15310
912.062	15222
912.176	15420
912.291	15382
912.405	15431
912.519	15652
912.633	15663
912.748	15393
912.862	15447
912.976	15176
913.09	15237
913.204	15119
913.318	15272
913.431	15382
913.545	15218
913.659	15382
913.772	15218
913.886	15097
914	15066
914.113	15039
914.226	15184
914.34	15119
914.453	14994
914.566	15085
914.68	15043
914.793	15020
914.906	14750
915.019	14663
915.132	14670
915.245	14731
915.358	14724
915.47	14678
915.583	14693
915.696	14743
915.809	14838
915.921	14785
916.034	14644
916.146	14552
916.259	14571
916.371	14674
916.483	14636
916.595	14507
916.708	14602
916.82	14480
916.932	14530
917.044	14457
917.156	14465
917.268	14218
917.38	14351
917.491	14362
917.603	14362
917.715	14427
917.826	14492
917.938	14301
918.049	14244
918.161	14332
918.272	14442
918.384	14434
918.495	14240
918.606	14206
918.717	14092
918.828	14149
918.939	14172
919.05	14012
919.161	14168
919.272	13982
919.383	13993
919.494	14168
919.604	14282
919.715	14149
919.826	14096
919.936	14100
920.047	14161
920.157	14043
920.267	14278
920.378	14050
920.488	14012
920.598	14225
920.708	14393
920.818	14195
920.928	14263
921.038	14393
921.148	14385
921.258	14039
921.368	13997
921.477	13837
921.587	13860
921.697	13769
921.806	13860
921.916	13742
922.025	13620
922.134	13525
922.244	13415
922.353	13575
922.462	13373
922.571	13346
922.68	13247
922.789	13171
922.898	13110
923.007	13103
923.116	13122
923.224	13145
923.333	13103
923.442	13008
923.55	12935
923.659	12985
923.767	12993
923.876	12840
923.984	13114
924.092	12810
924.201	12981
924.309	12905
924.417	12901
924.525	12897
924.633	12814
924.741	13753
924.849	12623
924.956	12681
925.064	12620
925.172	12494
925.279	12627
925.387	12593
925.494	12684
925.602	12639
925.709	12635
925.816	12506
925.924	12627
926.031	12623
926.138	12521
926.245	12574
926.352	12486
926.459	12574
926.566	12616
926.673	12422
926.779	12391
926.886	12277
926.993	12190
927.099	12205
927.206	12129
927.312	12125
927.419	12213
927.525	12144
927.631	12167
927.737	12117
927.843	11996
927.95	11851
928.056	12057
928.162	12076
928.267	11988
928.373	12547
928.479	12034
928.585	11893
928.69	11954
928.796	11999
928.901	11859
929.007	11703
929.112	11893
929.218	11783
929.323	11752
929.428	11707
929.533	11821
929.638	11634
929.743	11596
929.848	11672
929.953	11714
930.058	11608
930.163	11425
930.267	11455
930.372	11516
930.477	11395
930.581	11642
930.685	11398
930.79	11299
930.894	11334
930.998	11216
931.103	11356
931.207	11045
931.311	10965
931.415	10961
931.519	10710
931.623	10660
