Data from test_V78500241_3495.txt Node
Date: Fri Mar 25 15:34:11 CST 2022
User: usil
Spectrometer: V785-0024
Trigger mode: 0
Integration Time (sec): 4.000000E-1
Scans to average: 1
Nonlinearity correction enabled: false
Boxcar width: 0
Storing dark spectrum: false
XAxis mode: Wavelengths
Number of Pixels in Spectrum: 1024
>>>>>Begin Spectral Data<<<<<
801.071	27230
801.214	27127
801.356	26925
801.499	27017
801.641	26727
801.783	26845
801.926	26929
802.068	26750
802.211	26777
802.353	26777
802.496	26564
802.638	26507
802.78	26351
802.923	26237
803.065	26267
803.208	26347
803.35	26423
803.492	26473
803.635	26552
803.777	26412
803.919	26613
804.061	26918
804.204	26743
804.346	26670
804.488	26473
804.63	26526
804.773	26499
804.915	26663
805.057	26655
805.199	26659
805.341	26602
805.483	26750
805.626	26758
805.768	26583
805.91	26769
806.052	26682
806.194	26674
806.336	26758
806.478	26739
806.62	26762
806.762	26838
806.904	26952
807.046	27085
807.188	27032
807.33	27100
807.472	27104
807.614	27154
807.756	27165
807.898	26910
808.04	26838
808.182	26845
808.324	26902
808.465	26925
808.607	27154
808.749	27180
808.891	27359
809.033	27450
809.174	27397
809.316	27233
809.458	27363
809.6	27154
809.741	27256
809.883	27367
810.025	27667
810.166	27679
810.308	27485
810.45	27557
810.591	27568
810.733	27332
810.875	27367
811.016	27310
811.158	27222
811.299	27367
811.441	27526
811.582	27378
811.724	27306
811.865	27351
812.007	27173
812.148	27252
812.29	27416
812.431	27340
812.573	27583
812.714	27717
812.855	27854
812.997	27770
813.138	27876
813.279	27941
813.421	27724
813.562	27751
813.703	27580
813.845	27454
813.986	27317
814.127	26994
814.268	26975
814.41	26994
814.551	26952
814.692	27074
814.833	26975
814.974	26830
815.115	26956
815.256	26906
815.397	26746
815.539	26876
815.68	26773
815.821	26697
815.962	26720
816.103	26834
816.244	26480
816.385	26492
816.526	26465
816.666	26351
816.807	26248
816.948	26366
817.089	26309
817.23	26252
817.371	26210
817.512	26214
817.653	26218
817.793	26130
817.934	26142
818.075	26206
818.216	26210
818.356	26214
818.497	26195
818.638	26024
818.778	26046
818.919	26046
819.06	26016
819.2	26035
819.341	26263
819.481	26240
819.622	26400
819.762	26503
819.903	26526
820.043	26465
820.184	26290
820.324	26343
820.465	26431
820.605	26214
820.746	26282
820.886	26153
821.026	26396
821.167	26248
821.307	26412
821.447	26305
821.588	26043
821.728	25917
821.868	25826
822.008	25753
822.149	25655
822.289	25769
822.429	25350
822.569	25308
822.709	25365
822.849	25225
822.99	25179
823.13	25171
823.27	25236
823.41	25133
823.55	24897
823.69	25069
823.83	25034
823.97	24901
824.11	24863
824.25	24821
824.389	24848
824.529	24932
824.669	24726
824.809	25000
824.949	24852
825.089	24932
825.228	24992
825.368	24749
825.508	24749
825.648	24677
825.787	24681
825.927	24760
826.067	24681
826.206	24631
826.346	24768
826.485	24738
826.625	24696
826.765	24768
826.904	24700
827.044	24513
827.183	24407
827.323	24414
827.462	24509
827.601	24414
827.741	24452
827.88	24441
828.02	24323
828.159	24273
828.298	24452
828.437	24422
828.577	24205
828.716	24521
828.855	24410
828.994	24117
829.134	24133
829.273	24064
829.412	24213
829.551	24079
829.69	24095
829.829	24045
829.968	24190
830.107	24163
830.246	24266
830.385	24087
830.524	24007
830.663	23882
830.802	23817
830.941	23745
831.08	23840
831.219	23889
831.357	23855
831.496	23999
831.635	23695
831.774	23684
831.913	23589
832.051	23505
832.19	23543
832.329	23486
832.467	23467
832.606	23368
832.744	23372
832.883	23360
833.022	23531
833.16	23440
833.299	23440
833.437	23387
833.576	23562
833.714	23516
833.852	23554
833.991	23615
834.129	23760
834.267	23668
834.406	23524
834.544	23516
834.682	23581
834.821	23372
834.959	23653
835.097	23493
835.235	23558
835.373	23478
835.511	23398
835.65	23315
835.788	23326
835.926	23113
836.064	23094
836.202	23140
836.34	23337
836.478	23410
836.615	23345
836.753	23356
836.891	23448
837.029	23433
837.167	23322
837.305	23174
837.443	23220
837.58	23181
837.718	23197
837.856	23284
837.993	23052
838.131	23220
838.269	23079
838.406	23102
838.544	23044
838.681	22889
838.819	22767
838.956	22698
839.094	22626
839.231	22656
839.369	22725
839.506	23071
839.643	23006
839.781	22698
839.918	22694
840.055	22774
840.193	22668
840.33	22599
840.467	22573
840.604	22706
840.742	22915
840.879	22474
841.016	22546
841.153	22535
841.29	22710
841.427	22535
841.564	22573
841.701	22675
841.838	22550
841.975	22538
842.112	22656
842.249	22466
842.385	22424
842.522	22569
842.659	22478
842.796	22352
842.933	22280
843.069	22291
843.206	22417
843.343	22386
843.479	22169
843.616	22375
843.752	22306
843.889	22154
844.025	22344
844.162	22078
844.298	22280
844.435	22185
844.571	22070
844.708	22196
844.844	22318
844.98	22356
845.117	22185
845.253	22158
845.389	21953
845.525	22086
845.661	22036
845.798	21819
845.934	21895
846.07	21861
846.206	21880
846.342	22002
846.478	21922
846.614	21671
846.75	21576
846.886	21762
847.022	21713
847.158	21713
847.294	21682
847.429	21663
847.565	21648
847.701	21888
847.837	21416
847.972	21401
848.108	21504
848.244	21458
848.379	21226
848.515	21336
848.65	21077
848.786	21279
848.921	21199
849.057	21272
849.192	21241
849.328	21157
849.463	21386
849.598	21173
849.734	21116
849.869	21039
850.004	20914
850.14	21055
850.275	21036
850.41	21032
850.545	21020
850.68	20956
850.815	21081
850.95	21047
851.085	21104
851.22	21146
851.355	21081
851.49	20952
851.625	20906
851.76	20971
851.895	20887
852.03	20937
852.165	20899
852.299	21036
852.434	21127
852.569	21024
852.703	20998
852.838	21032
852.973	21085
853.107	21218
853.242	20967
853.376	20830
853.511	20735
853.645	20762
853.78	20941
853.914	20819
854.048	20842
854.183	20826
854.317	20872
854.451	21005
854.585	20880
854.72	20902
854.854	20823
854.988	20769
855.122	20864
855.256	20716
855.39	20849
855.524	20876
855.658	20914
855.792	20807
855.926	20880
856.06	20929
856.194	20910
856.327	20861
856.461	20773
856.595	20678
856.729	20902
856.862	20925
856.996	20899
857.13	20823
857.263	20994
857.397	20925
857.53	20716
857.664	20838
857.797	20944
857.931	20979
858.064	20921
858.197	20914
858.331	20929
858.464	20880
858.597	20727
858.731	20705
858.864	20876
858.997	20887
859.13	20769
859.263	20857
859.396	20941
859.529	20735
859.662	20868
859.795	20807
859.928	20868
860.061	20899
860.194	21123
860.327	20971
860.46	20849
860.592	20960
860.725	20986
860.858	21077
860.99	20910
861.123	20781
861.256	20674
861.388	20883
861.521	21557
861.653	20834
861.786	20575
861.918	20735
862.05	20727
862.183	20823
862.315	20853
862.447	20864
862.58	20876
862.712	20590
862.844	20469
862.976	20598
863.108	20727
863.24	21032
863.372	20503
863.504	20530
863.636	20583
863.768	20625
863.9	20560
864.032	20514
864.164	20556
864.296	20617
864.428	20587
864.559	20636
864.691	20533
864.823	20522
864.954	20549
865.086	20473
865.217	20575
865.349	20396
865.48	20305
865.612	20484
865.743	20587
865.875	20571
866.006	20385
866.137	20514
866.269	20511
866.4	20476
866.531	20339
866.662	20423
866.793	20507
866.924	20454
867.055	20415
867.186	20476
867.317	20427
867.448	20305
867.579	20404
867.71	20438
867.841	20332
867.972	20431
868.103	20393
868.233	20377
868.364	20374
868.495	20549
868.625	20617
868.756	20648
868.886	20575
869.017	20659
869.147	20868
869.278	20682
869.408	20632
869.539	20564
869.669	20708
869.799	20743
869.929	20659
870.06	20765
870.19	20895
870.32	20956
870.45	21062
870.58	20979
870.71	21108
870.84	21154
870.97	21055
871.1	21093
871.23	21233
871.36	21260
871.489	21154
871.619	21192
871.749	21096
871.879	21298
872.008	21393
872.138	21214
872.267	21298
872.397	21077
872.526	21058
872.656	21085
872.785	21146
872.915	21340
873.044	21321
873.173	21329
873.303	21359
873.432	21332
873.561	21420
873.69	21230
873.819	21275
873.948	21420
874.077	21348
874.206	21218
874.335	21291
874.464	21393
874.593	21603
874.722	21481
874.851	21504
874.979	21561
875.108	21724
875.237	21473
875.365	21393
875.494	21523
875.623	21629
875.751	21405
875.88	21625
876.008	21774
876.136	21781
876.265	21972
876.393	22059
876.521	21937
876.65	21979
876.778	21899
876.906	21861
877.034	21759
877.162	21911
877.29	21865
877.418	22013
877.546	22048
877.674	21926
877.802	21934
877.93	21797
878.058	21835
878.185	21835
878.313	21850
878.441	21827
878.568	21599
878.696	21766
878.824	21892
878.951	21930
879.079	22010
879.206	22162
879.333	22090
879.461	21949
879.588	21892
879.715	22055
879.842	22215
879.97	21953
880.097	21717
880.224	21663
880.351	21694
880.478	21793
880.605	21633
880.732	21667
880.859	21918
880.986	21618
881.112	21854
881.239	21739
881.366	21469
881.493	21458
881.619	21199
881.746	21473
881.872	21321
881.999	21260
882.125	21173
882.252	21237
882.378	21230
882.505	21428
882.631	21233
882.757	21066
882.883	21070
883.01	21001
883.136	20849
883.262	20842
883.388	20777
883.514	21020
883.64	20952
883.766	20887
883.892	20655
884.018	20765
884.143	21020
884.269	21058
884.395	20758
884.52	20606
884.646	20735
884.772	20617
884.897	20648
885.023	20648
885.148	20644
885.274	20743
885.399	20785
885.524	20522
885.65	20594
885.775	20632
885.9	20537
886.025	20739
886.15	20819
886.275	20556
886.4	20465
886.525	20617
886.65	20549
886.775	20617
886.9	20701
887.025	20765
887.149	20590
887.274	20465
887.399	20465
887.523	20431
887.648	20343
887.773	20362
887.897	20522
888.021	20602
888.146	20278
888.27	20473
888.395	20560
888.519	20362
888.643	20434
888.767	20389
888.891	20343
889.015	20134
889.139	20275
889.263	20229
889.387	20328
889.511	20511
889.635	20336
889.759	20145
889.883	20237
890.006	20240
890.13	20298
890.254	20062
890.377	20119
890.501	19875
890.624	20005
890.748	19989
890.871	19818
890.995	19742
891.118	19670
891.241	19753
891.364	19757
891.488	19906
891.611	19799
891.734	19742
891.857	19750
891.98	19811
892.103	19993
892.226	19681
892.349	19601
892.471	19567
892.594	19734
892.717	19772
892.839	19677
892.962	19765
893.085	19746
893.207	19674
893.33	19559
893.452	19681
893.575	19704
893.697	19696
893.819	19944
893.941	19795
894.064	19913
894.186	19666
894.308	19578
894.43	19708
894.552	19841
894.674	19696
894.796	19643
894.918	19643
895.04	19586
895.161	19700
895.283	19723
895.405	19658
895.526	19746
895.648	19624
895.769	19799
895.891	19700
896.012	19738
896.134	19696
896.255	19784
896.376	19696
896.498	19738
896.619	19864
896.74	19670
896.861	19723
896.982	20035
897.103	20191
897.224	19913
897.345	19837
897.466	19814
897.587	19936
897.708	20039
897.828	19967
897.949	19875
898.07	19757
898.19	19887
898.311	20084
898.431	19970
898.552	19963
898.672	19955
898.792	20046
898.913	19955
899.033	19925
899.153	19750
899.273	19658
899.393	19750
899.513	19696
899.633	19639
899.753	19635
899.873	19750
899.993	19655
900.113	19613
900.232	19605
900.352	19544
900.472	19491
900.591	19514
900.711	19411
900.83	19373
900.95	19578
901.069	19502
901.189	19263
901.308	19194
901.427	19072
901.546	19099
901.665	19148
901.784	19072
901.904	18867
902.023	18852
902.141	18658
902.26	18612
902.379	18707
902.498	18585
902.617	18525
902.735	18528
902.854	18536
902.973	18551
903.091	18308
903.21	18232
903.328	18178
903.446	18091
903.565	18057
903.683	18121
903.801	17988
903.919	17996
904.038	17965
904.156	17798
904.274	17828
904.392	17885
904.51	17745
904.627	17821
904.745	17798
904.863	17901
904.981	17581
905.098	17539
905.216	17520
905.334	17608
905.451	17493
905.569	17509
905.686	17589
905.803	17600
905.921	17212
906.038	17376
906.155	17261
906.272	17056
906.389	17250
906.506	17033
906.623	16980
906.74	16976
906.857	16923
906.974	16949
907.091	17090
907.208	17235
907.324	17018
907.441	16999
907.557	16850
907.674	16805
907.79	16729
907.907	16755
908.023	16733
908.139	16752
908.256	16759
908.372	16653
908.488	16615
908.604	16603
908.72	16459
908.836	16523
908.952	16504
909.068	16523
909.184	16584
909.3	16462
909.415	16573
909.531	16417
909.647	16223
909.762	16280
909.878	16150
909.993	16230
910.108	16211
910.224	16185
910.339	16154
910.454	16036
910.57	16055
910.685	16051
910.8	16177
910.915	16223
911.03	16021
911.145	15880
911.259	15770
911.374	15823
911.489	15701
911.604	15564
911.718	15519
911.833	15580
911.947	15405
912.062	15340
912.176	15500
912.291	15652
912.405	15530
912.519	15599
912.633	15671
912.748	15542
912.862	15435
912.976	15397
913.09	15325
913.204	15329
913.318	15378
913.431	15405
913.545	15340
913.659	15504
913.772	15340
913.886	15233
914	15093
914.113	15218
914.226	15344
914.34	15207
914.453	15032
914.566	15176
914.68	15089
914.793	14971
914.906	14929
915.019	14724
915.132	14636
915.245	14777
915.358	14807
915.47	14754
915.583	14765
915.696	14838
915.809	14921
915.921	14891
916.034	14830
916.146	14610
916.259	14625
916.371	14701
916.483	14720
916.595	14545
916.708	14621
916.82	14712
916.932	14545
917.044	14689
917.156	14598
917.268	14427
917.38	14488
917.491	14457
917.603	14507
917.715	14556
917.826	14469
917.938	14355
918.049	14267
918.161	14366
918.272	14473
918.384	14537
918.495	14442
918.606	14290
918.717	14180
918.828	14286
918.939	14358
919.05	14157
919.161	14286
919.272	14046
919.383	14115
919.494	14286
919.604	14370
919.715	14210
919.826	14088
919.936	14145
920.047	14259
920.157	14294
920.267	14393
920.378	14191
920.488	14130
920.598	14339
920.708	14484
920.818	14298
920.928	14355
921.038	14560
921.148	14362
921.258	14077
921.368	14115
921.477	13909
921.587	13902
921.697	13875
921.806	13902
921.916	13856
922.025	13639
922.134	13632
922.244	13552
922.353	13655
922.462	13502
922.571	13426
922.68	13304
922.789	13247
922.898	13225
923.007	13221
923.116	13270
923.224	13179
923.333	13244
923.442	13137
923.55	13126
923.659	13080
923.767	13202
923.876	13069
923.984	13061
924.092	12954
924.201	13046
924.309	12954
924.417	13072
924.525	12989
924.633	12973
924.741	13731
924.849	12760
924.956	12882
925.064	12734
925.172	12578
925.279	12692
925.387	12715
925.494	12719
925.602	12711
925.709	12768
925.816	12570
925.924	12715
926.031	12768
926.138	12658
926.245	12669
926.352	12608
926.459	12612
926.566	12726
926.673	12623
926.779	12448
926.886	12384
926.993	12361
927.099	12353
927.206	12205
927.312	12220
927.419	12311
927.525	12262
927.631	12247
927.737	12213
927.843	12209
927.95	12015
928.056	12079
928.162	12194
928.267	12049
928.373	12650
928.479	12167
928.585	11889
928.69	12015
928.796	12045
928.901	11958
929.007	11802
929.112	11999
929.218	12015
929.323	11939
929.428	11870
929.533	11878
929.638	11798
929.743	11710
929.848	11741
929.953	11809
930.058	11630
930.163	11573
930.267	11608
930.372	11657
930.477	11528
930.581	11657
930.685	11524
930.79	11376
930.894	11444
930.998	11383
931.103	11524
931.207	11094
931.311	11109
931.415	10991
931.519	10835
931.623	10820
