Data from test_V78500241_2857.txt Node
Date: Fri Mar 25 15:29:45 CST 2022
User: usil
Spectrometer: V785-0024
Trigger mode: 0
Integration Time (sec): 4.000000E-1
Scans to average: 1
Nonlinearity correction enabled: false
Boxcar width: 0
Storing dark spectrum: false
XAxis mode: Wavelengths
Number of Pixels in Spectrum: 1024
>>>>>Begin Spectral Data<<<<<
801.071	26937
801.214	26777
801.356	26682
801.499	26533
801.641	26590
801.783	26488
801.926	26533
802.068	26602
802.211	26442
802.353	26404
802.496	26180
802.638	26214
802.78	26039
802.923	26115
803.065	25966
803.208	26161
803.35	26111
803.492	26202
803.635	26195
803.777	26256
803.919	26278
804.061	26549
804.204	26221
804.346	26290
804.488	26244
804.63	26240
804.773	26134
804.915	26339
805.057	26347
805.199	26328
805.341	26377
805.483	26161
805.626	26473
805.768	26256
805.91	26446
806.052	26480
806.194	26199
806.336	26518
806.478	26408
806.62	26438
806.762	26396
806.904	26518
807.046	26876
807.188	26906
807.33	26773
807.472	26940
807.614	26781
807.756	26868
807.898	26621
808.04	26594
808.182	26659
808.324	26697
808.465	26804
808.607	26944
808.749	27043
808.891	27100
809.033	27112
809.174	27032
809.316	27009
809.458	26963
809.6	26891
809.741	27074
809.883	27100
810.025	27283
810.166	27291
810.308	27188
810.45	27161
810.591	27169
810.733	26963
810.875	26963
811.016	26792
811.158	26975
811.299	26990
811.441	27058
811.582	27062
811.724	26872
811.865	27020
812.007	26998
812.148	26963
812.29	26990
812.431	27096
812.573	27264
812.714	27355
812.855	27427
812.997	27564
813.138	27534
813.279	27603
813.421	27492
813.562	27363
813.703	27211
813.845	27131
813.986	26929
814.127	26560
814.268	26613
814.41	26667
814.551	26648
814.692	26686
814.833	26655
814.974	26636
815.115	26773
815.256	26453
815.397	26492
815.539	26511
815.68	26370
815.821	26366
815.962	26488
816.103	26389
816.244	26263
816.385	26256
816.526	26107
816.666	26027
816.807	25940
816.948	25986
817.089	26035
817.23	25860
817.371	25902
817.512	25989
817.653	25750
817.793	25803
817.934	25852
818.075	25871
818.216	25970
818.356	25761
818.497	25723
818.638	25499
818.778	25712
818.919	25586
819.06	25635
819.2	25738
819.341	25856
819.481	25921
819.622	25947
819.762	26187
819.903	26161
820.043	25966
820.184	25906
820.324	25917
820.465	26035
820.605	26039
820.746	25902
820.886	25784
821.026	25963
821.167	25894
821.307	26043
821.447	25807
821.588	25643
821.728	25556
821.868	25415
822.008	25422
822.149	25304
822.289	25343
822.429	25137
822.569	24992
822.709	25012
822.849	24863
822.99	24802
823.13	24901
823.27	24817
823.41	24696
823.55	24475
823.69	24612
823.83	24681
823.97	24639
824.11	24483
824.25	24281
824.389	24410
824.529	24441
824.669	24498
824.809	24597
824.949	24517
825.089	24460
825.228	24502
825.368	24190
825.508	24270
825.648	24330
825.787	24327
825.927	24365
826.067	24327
826.206	24197
826.346	24391
826.485	24292
826.625	24304
826.765	24399
826.904	24327
827.044	23992
827.183	24136
827.323	23912
827.462	23961
827.601	23901
827.741	24026
827.88	23950
828.02	23878
828.159	23904
828.298	23999
828.437	23992
828.577	23984
828.716	24045
828.855	23882
828.994	23748
829.134	23695
829.273	23756
829.412	23638
829.551	23661
829.69	23722
829.829	23745
829.968	23703
830.107	23901
830.246	23592
830.385	23680
830.524	23535
830.663	23444
830.802	23490
830.941	23353
831.08	23299
831.219	23318
831.357	23493
831.496	23493
831.635	23288
831.774	23109
831.913	23239
832.051	23056
832.19	23052
832.329	23006
832.467	23018
832.606	22938
832.744	22881
832.883	23025
833.022	22889
833.16	22847
833.299	23025
833.437	23117
833.576	23159
833.714	23071
833.852	23102
833.991	23033
834.129	23083
834.267	23090
834.406	23113
834.544	22949
834.682	23025
834.821	22801
834.959	23216
835.097	23025
835.235	23018
835.373	23098
835.511	23029
835.65	22850
835.788	22885
835.926	22801
836.064	22683
836.202	22713
836.34	23014
836.478	22942
836.615	22710
836.753	22881
836.891	22881
837.029	22858
837.167	22885
837.305	22892
837.443	22778
837.58	22672
837.718	22805
837.856	22759
837.993	22603
838.131	22771
838.269	22508
838.406	22615
838.544	22497
838.681	22375
838.819	22249
838.956	22051
839.094	22135
839.231	22268
839.369	22398
839.506	22660
839.643	22382
839.781	22234
839.918	22154
840.055	22196
840.193	22215
840.33	22162
840.467	22147
840.604	22215
840.742	22379
840.879	21991
841.016	22032
841.153	22048
841.29	22188
841.427	22101
841.564	22154
841.701	22112
841.838	21983
841.975	21880
842.112	22143
842.249	21975
842.385	21915
842.522	21991
842.659	21968
842.796	21819
842.933	21819
843.069	21888
843.206	21850
843.343	21895
843.479	21895
843.616	21774
843.752	21686
843.889	21652
844.025	21789
844.162	21728
844.298	21717
844.435	21625
844.571	21595
844.708	21679
844.844	21831
844.98	21835
845.117	21747
845.253	21485
845.389	21424
845.525	21580
845.661	21530
845.798	21428
845.934	21580
846.07	21268
846.206	21431
846.342	21496
846.478	21492
846.614	21188
846.75	21184
846.886	21199
847.022	21157
847.158	21192
847.294	21096
847.429	21161
847.565	21165
847.701	21374
847.837	20941
847.972	20906
848.108	20838
848.244	21005
848.379	20823
848.515	20773
848.65	20682
848.786	20682
848.921	20773
849.057	20716
849.192	20697
849.328	20861
849.463	20826
849.598	20545
849.734	20632
849.869	20609
850.004	20541
850.14	20507
850.275	20552
850.41	20355
850.545	20511
850.68	20461
850.815	20549
850.95	20438
851.085	20674
851.22	20495
851.355	20473
851.49	20564
851.625	20465
851.76	20522
851.895	20355
852.03	20434
852.165	20514
852.299	20564
852.434	20609
852.569	20522
852.703	20511
852.838	20533
852.973	20613
853.107	20602
853.242	20431
853.376	20313
853.511	20259
853.645	20415
853.78	20492
853.914	20351
854.048	20362
854.183	20343
854.317	20374
854.451	20602
854.585	20442
854.72	20362
854.854	20377
854.988	20275
855.122	20362
855.256	20149
855.39	20248
855.524	20389
855.658	20366
855.792	20419
855.926	20396
856.06	20564
856.194	20457
856.327	20233
856.461	20252
856.595	20271
856.729	20267
856.862	20339
856.996	20309
857.13	20415
857.263	20457
857.397	20393
857.53	20298
857.664	20351
857.797	20366
857.931	20404
858.064	20328
858.197	20431
858.331	20328
858.464	20233
858.597	20218
858.731	20195
858.864	20358
858.997	20256
859.13	20286
859.263	20419
859.396	20347
859.529	20263
859.662	20259
859.795	20240
859.928	20301
860.061	20541
860.194	20511
860.327	20438
860.46	20442
860.592	20454
860.725	20469
860.858	20393
860.99	20317
861.123	20294
861.256	20176
861.388	20355
861.521	20929
861.653	20180
861.786	19997
861.918	20157
862.05	20134
862.183	20221
862.315	20237
862.447	20313
862.58	20256
862.712	20122
862.844	20062
862.976	20138
863.108	20130
863.24	20568
863.372	20119
863.504	20084
863.636	19978
863.768	20092
863.9	20088
864.032	20073
864.164	20024
864.296	20035
864.428	20229
864.559	20073
864.691	20062
864.823	20043
864.954	20050
865.086	19963
865.217	20039
865.349	19951
865.48	19890
865.612	19894
865.743	20107
865.875	19989
866.006	19830
866.137	19913
866.269	20024
866.4	19993
866.531	19913
866.662	19864
866.793	19837
866.924	19871
867.055	20016
867.186	19898
867.317	19936
867.448	19769
867.579	19940
867.71	19799
867.841	19769
867.972	19917
868.103	19959
868.233	19890
868.364	19925
868.495	19917
868.625	20084
868.756	20145
868.886	20100
869.017	20084
869.147	20290
869.278	20221
869.408	20096
869.539	20103
869.669	20115
869.799	20202
869.929	20286
870.06	20305
870.19	20488
870.32	20385
870.45	20583
870.58	20499
870.71	20655
870.84	20495
870.97	20556
871.1	20526
871.23	20625
871.36	20708
871.489	20629
871.619	20712
871.749	20625
871.879	20613
872.008	20765
872.138	20819
872.267	20705
872.397	20678
872.526	20575
872.656	20514
872.785	20514
872.915	20739
873.044	20811
873.173	20724
873.303	20876
873.432	20868
873.561	20838
873.69	20762
873.819	20781
873.948	20944
874.077	20632
874.206	20670
874.335	20746
874.464	20891
874.593	20948
874.722	20883
874.851	20998
874.979	21036
875.108	21028
875.237	21024
875.365	20857
875.494	20971
875.623	21001
875.751	20994
875.88	20899
876.008	21077
876.136	21222
876.265	21424
876.393	21519
876.521	21428
876.65	21542
876.778	21416
876.906	21325
877.034	21408
877.162	21420
877.29	21336
877.418	21359
877.546	21306
877.674	21336
877.802	21424
877.93	21431
878.058	21283
878.185	21233
878.313	21291
878.441	21252
878.568	21146
878.696	21340
878.824	21454
878.951	21469
879.079	21511
879.206	21671
879.333	21610
879.461	21348
879.588	21450
879.715	21538
879.842	21606
879.97	21363
880.097	21184
880.224	21256
880.351	21211
880.478	21245
880.605	21211
880.732	21119
880.859	21405
880.986	21127
881.112	21142
881.239	21112
881.366	20910
881.493	20883
881.619	20663
881.746	20788
881.872	20716
881.999	20712
882.125	20716
882.252	20804
882.378	20682
882.505	20853
882.631	20678
882.757	20499
882.883	20434
883.01	20495
883.136	20408
883.262	20355
883.388	20263
883.514	20396
883.64	20560
883.766	20385
883.892	20298
884.018	20298
884.143	20469
884.269	20571
884.395	20206
884.52	20168
884.646	20221
884.772	20081
884.897	19997
885.023	20092
885.148	20271
885.274	20317
885.399	20278
885.524	20111
885.65	20168
885.775	20153
885.9	20111
886.025	20183
886.15	20183
886.275	20035
886.4	20069
886.525	20172
886.65	19967
886.775	20050
886.9	20183
887.025	20240
887.149	20035
887.274	19944
887.399	19871
887.523	19917
887.648	19852
887.773	19780
887.897	19989
888.021	20046
888.146	19845
888.27	19894
888.395	20027
888.519	19944
888.643	19898
888.767	19951
888.891	19776
889.015	19700
889.139	19750
889.263	19753
889.387	19795
889.511	19826
889.635	19909
889.759	19620
889.883	19601
890.006	19651
890.13	19928
890.254	19529
890.377	19609
890.501	19480
890.624	19392
890.748	19476
890.871	19365
890.995	19232
891.118	19327
891.241	19316
891.364	19232
891.488	19388
891.611	19274
891.734	19312
891.857	19411
891.98	19400
892.103	19400
892.226	19350
892.349	19392
892.471	19107
892.594	19057
892.717	19232
892.839	19225
892.962	19156
893.085	19244
893.207	19198
893.33	19065
893.452	19164
893.575	19445
893.697	19247
893.819	19400
893.941	19415
894.064	19384
894.186	19183
894.308	19126
894.43	19350
894.552	19343
894.674	19324
894.796	19175
894.918	19240
895.04	19190
895.161	19282
895.283	19289
895.405	19179
895.526	19202
895.648	19270
895.769	19240
895.891	19263
896.012	19301
896.134	19285
896.255	19297
896.376	19251
896.498	19232
896.619	19297
896.74	19110
896.861	19263
896.982	19586
897.103	19719
897.224	19571
897.345	19483
897.466	19396
897.587	19415
897.708	19582
897.828	19510
897.949	19468
898.07	19270
898.19	19430
898.311	19514
898.431	19419
898.552	19388
898.672	19506
898.792	19575
898.913	19464
899.033	19312
899.153	19247
899.273	19126
899.393	19259
899.513	19304
899.633	19430
899.753	19301
899.873	19259
899.993	19266
900.113	19225
900.232	19240
900.352	19187
900.472	19053
900.591	19012
900.711	19065
900.83	19034
900.95	19152
901.069	19110
901.189	18920
901.308	18578
901.427	18776
901.546	18791
901.665	18517
901.784	18593
901.904	18403
902.023	18437
902.141	18228
902.26	18186
902.379	18247
902.498	18190
902.617	18167
902.735	18178
902.854	18266
902.973	18057
903.091	17832
903.21	17855
903.328	17813
903.446	17653
903.565	17672
903.683	17649
903.801	17509
903.919	17684
904.038	17680
904.156	17417
904.274	17433
904.392	17311
904.51	17391
904.627	17337
904.745	17398
904.863	17448
904.981	17250
905.098	17048
905.216	17140
905.334	17086
905.451	17208
905.569	17025
905.686	17204
905.803	17045
905.921	16911
906.038	17025
906.155	16847
906.272	16854
906.389	16767
906.506	16618
906.623	16637
906.74	16599
906.857	16478
906.974	16542
907.091	16672
907.208	16831
907.324	16641
907.441	16538
907.557	16360
907.674	16318
907.79	16246
907.907	16215
908.023	16451
908.139	16421
908.256	16223
908.372	16299
908.488	16219
908.604	16120
908.72	16067
908.836	16162
908.952	16090
909.068	16109
909.184	16272
909.3	16032
909.415	16169
909.531	16090
909.647	15808
909.762	15762
909.878	15781
909.993	15816
910.108	15698
910.224	15789
910.339	15686
910.454	15720
910.57	15698
910.685	15534
910.8	15903
910.915	15709
911.03	15694
911.145	15549
911.259	15329
911.374	15435
911.489	15405
911.604	15268
911.718	15089
911.833	15131
911.947	15055
912.062	15123
912.176	15192
912.291	15211
912.405	15135
912.519	15382
912.633	15351
912.748	15226
912.862	15097
912.976	15005
913.09	14944
913.204	14963
913.318	14929
913.431	15020
913.545	15058
913.659	15005
913.772	15001
913.886	14845
914	14815
914.113	14902
914.226	14933
914.34	14861
914.453	14663
914.566	14815
914.68	14629
914.793	14629
914.906	14533
915.019	14385
915.132	14358
915.245	14518
915.358	14454
915.47	14358
915.583	14385
915.696	14412
915.809	14530
915.921	14492
916.034	14377
916.146	14271
916.259	14290
916.371	14381
916.483	14370
916.595	14343
916.708	14324
916.82	14290
916.932	14176
917.044	14320
917.156	14183
917.268	14153
917.38	14123
917.491	14001
917.603	14138
917.715	14176
917.826	14145
917.938	14054
918.049	13944
918.161	14069
918.272	14180
918.384	14130
918.495	14126
918.606	13932
918.717	13890
918.828	13913
918.939	13944
919.05	13750
919.161	13837
919.272	13643
919.383	13658
919.494	13970
919.604	14153
919.715	13780
919.826	13750
919.936	13868
920.047	13978
920.157	13780
920.267	13944
920.378	13864
920.488	13784
920.598	13921
920.708	14092
920.818	13986
920.928	13967
921.038	14145
921.148	14111
921.258	13719
921.368	13666
921.477	13571
921.587	13575
921.697	13514
921.806	13605
921.916	13537
922.025	13289
922.134	13316
922.244	13274
922.353	13335
922.462	13152
922.571	13057
922.68	12882
922.789	12928
922.898	12989
923.007	12897
923.116	12962
923.224	12943
923.333	12886
923.442	12753
923.55	12760
923.659	12719
923.767	12829
923.876	12738
923.984	12806
924.092	12631
924.201	12646
924.309	12585
924.417	12688
924.525	12544
924.633	12528
924.741	13518
924.849	12426
924.956	12509
925.064	12380
925.172	12395
925.279	12399
925.387	12426
925.494	12311
925.602	12414
925.709	12395
925.816	12224
925.924	12376
926.031	12418
926.138	12350
926.245	12266
926.352	12194
926.459	12380
926.566	12418
926.673	12285
926.779	12068
926.886	12076
926.993	11977
927.099	11977
927.206	11931
927.312	11828
927.419	11988
927.525	11969
927.631	12121
927.737	11786
927.843	11809
927.95	11737
928.056	11767
928.162	11828
928.267	11824
928.373	12391
928.479	11786
928.585	11619
928.69	11756
928.796	11767
928.901	11729
929.007	11444
929.112	11558
929.218	11634
929.323	11539
929.428	11528
929.533	11653
929.638	11383
929.743	11581
929.848	11520
929.953	11478
930.058	11353
930.163	11181
930.267	11189
930.372	11383
930.477	11250
930.581	11402
930.685	11296
930.79	11147
930.894	11204
930.998	11029
931.103	11223
931.207	10919
931.311	10835
931.415	10702
931.519	10462
931.623	10573
