Data from test_V78500241_3.txt Node
Date: Fri Mar 25 15:09:53 CST 2022
User: usil
Spectrometer: V785-0024
Trigger mode: 0
Integration Time (sec): 4.000000E-1
Scans to average: 1
Nonlinearity correction enabled: false
Boxcar width: 0
Storing dark spectrum: false
XAxis mode: Wavelengths
Number of Pixels in Spectrum: 1024
>>>>>Begin Spectral Data<<<<<
801.071	27439
801.214	27405
801.356	27203
801.499	27066
801.641	26933
801.783	26849
801.926	26937
802.068	26735
802.211	26937
802.353	26712
802.496	26480
802.638	26530
802.78	26537
802.923	26427
803.065	26393
803.208	26358
803.35	26336
803.492	26450
803.635	26678
803.777	26450
803.919	26552
804.061	26849
804.204	26389
804.346	26415
804.488	26199
804.63	26374
804.773	26332
804.915	26427
805.057	26480
805.199	26324
805.341	26541
805.483	26393
805.626	26632
805.768	26396
805.91	26495
806.052	26526
806.194	26457
806.336	26625
806.478	26499
806.62	26537
806.762	26518
806.904	26731
807.046	26883
807.188	26720
807.33	26823
807.472	26952
807.614	26792
807.756	26689
807.898	26480
808.04	26492
808.182	26560
808.324	26560
808.465	26549
808.607	26727
808.749	26845
808.891	26861
809.033	27024
809.174	26868
809.316	26902
809.458	26982
809.6	26788
809.741	27017
809.883	26899
810.025	27005
810.166	27055
810.308	27154
810.45	27036
810.591	27043
810.733	26811
810.875	26773
811.016	26773
811.158	26617
811.299	26872
811.441	26967
811.582	26804
811.724	26720
811.865	26777
812.007	26716
812.148	26819
812.29	26724
812.431	26849
812.573	27131
812.714	27100
812.855	27230
812.997	27401
813.138	27534
813.279	27530
813.421	27230
813.562	27161
813.703	27195
813.845	26883
813.986	26701
814.127	26377
814.268	26415
814.41	26366
814.551	26313
814.692	26385
814.833	26278
814.974	26191
815.115	26415
815.256	26157
815.397	26214
815.539	26126
815.68	26008
815.821	26050
815.962	26134
816.103	26065
816.244	25734
816.385	25780
816.526	25841
816.666	25601
816.807	25354
816.948	25514
817.089	25594
817.23	25453
817.371	25346
817.512	25445
817.653	25460
817.793	25411
817.934	25479
818.075	25449
818.216	25289
818.356	25377
818.497	25202
818.638	25156
818.778	25053
818.919	25194
819.06	25103
819.2	25206
819.341	25244
819.481	25365
819.622	25407
819.762	25597
819.903	25548
820.043	25499
820.184	25441
820.324	25415
820.465	25464
820.605	25377
820.746	25411
820.886	25285
821.026	25282
821.167	25308
821.307	25476
821.447	25365
821.588	25042
821.728	25061
821.868	24825
822.008	24677
822.149	24646
822.289	24658
822.429	24388
822.569	24399
822.709	24448
822.849	24273
822.99	24155
823.13	24129
823.27	24114
823.41	24018
823.55	23958
823.69	23973
823.83	23977
823.97	23885
824.11	23634
824.25	23691
824.389	23798
824.529	23737
824.669	23680
824.809	23737
824.949	23767
825.089	23752
825.228	23699
825.368	23505
825.508	23509
825.648	23547
825.787	23535
825.927	23577
826.067	23482
826.206	23463
826.346	23531
826.485	23585
826.625	23623
826.765	23627
826.904	23520
827.044	23383
827.183	23090
827.323	23124
827.462	23288
827.601	23223
827.741	23181
827.88	23193
828.02	23064
828.159	23143
828.298	23140
828.437	23303
828.577	23075
828.716	23261
828.855	23067
828.994	22877
829.134	23044
829.273	22976
829.412	22793
829.551	22858
829.69	22850
829.829	22869
829.968	22854
830.107	22915
830.246	22911
830.385	22645
830.524	22713
830.663	22580
830.802	22424
830.941	22417
831.08	22375
831.219	22470
831.357	22478
831.496	22675
831.635	22329
831.774	22253
831.913	22173
832.051	22010
832.19	22124
832.329	22295
832.467	22010
832.606	21987
832.744	21983
832.883	22055
833.022	22032
833.16	22150
833.299	22044
833.437	22101
833.576	21979
833.714	22040
833.852	21964
833.991	22086
834.129	22177
834.267	22086
834.406	21987
834.544	22093
834.682	22147
834.821	22059
834.959	22051
835.097	21968
835.235	21979
835.373	22158
835.511	21994
835.65	21884
835.788	21956
835.926	21717
836.064	21629
836.202	21622
836.34	21705
836.478	21941
836.615	21797
836.753	21800
836.891	21964
837.029	21983
837.167	21827
837.305	21865
837.443	21759
837.58	21724
837.718	21827
837.856	21694
837.993	21675
838.131	21663
838.269	21622
838.406	21603
838.544	21557
838.681	21294
838.819	21344
838.956	21211
839.094	21203
839.231	21313
839.369	21268
839.506	21466
839.643	21332
839.781	21081
839.918	21291
840.055	21142
840.193	21077
840.33	20982
840.467	21043
840.604	21165
840.742	21214
840.879	20868
841.016	20952
841.153	20887
841.29	21188
841.427	20937
841.564	21119
841.701	20842
841.838	20823
841.975	20845
842.112	21036
842.249	20804
842.385	20644
842.522	20910
842.659	20788
842.796	20686
842.933	20800
843.069	20655
843.206	20682
843.343	20781
843.479	20769
843.616	20697
843.752	20587
843.889	20499
844.025	20682
844.162	20434
844.298	20583
844.435	20404
844.571	20404
844.708	20564
844.844	20404
844.98	20579
845.117	20488
845.253	20336
845.389	20400
845.525	20328
845.661	20263
845.798	20263
845.934	20233
846.07	20126
846.206	20256
846.342	20336
846.478	20282
846.614	19928
846.75	19833
846.886	19917
847.022	19928
847.158	20024
847.294	19928
847.429	19982
847.565	19814
847.701	20233
847.837	19586
847.972	19457
848.108	19727
848.244	19788
848.379	19487
848.515	19460
848.65	19449
848.786	19403
848.921	19540
849.057	19643
849.192	19411
849.328	19422
849.463	19502
849.598	19445
849.734	19365
849.869	19301
850.004	19061
850.14	19122
850.275	19129
850.41	19129
850.545	19206
850.68	18985
850.815	19247
850.95	19209
851.085	19392
851.22	19346
851.355	19274
851.49	19114
851.625	19114
851.76	19168
851.895	19137
852.03	19084
852.165	18973
852.299	19209
852.434	19213
852.569	19179
852.703	19110
852.838	19247
852.973	19221
853.107	19217
853.242	19095
853.376	19012
853.511	18825
853.645	19053
853.78	19038
853.914	19069
854.048	18962
854.183	18852
854.317	19057
854.451	19160
854.585	19050
854.72	19095
854.854	19095
854.988	18875
855.122	18993
855.256	18802
855.39	19000
855.524	19042
855.658	19015
855.792	19023
855.926	19038
856.06	18966
856.194	19061
856.327	18951
856.461	18894
856.595	18970
856.729	18878
856.862	19099
856.996	19023
857.13	19118
857.263	19179
857.397	19023
857.53	18779
857.664	19034
857.797	19057
857.931	19114
858.064	18989
858.197	19031
858.331	18989
858.464	18863
858.597	18863
858.731	19042
858.864	18928
858.997	18939
859.13	18909
859.263	18871
859.396	19088
859.529	18993
859.662	18886
859.795	18840
859.928	18939
860.061	18935
860.194	19141
860.327	18913
860.46	18764
860.592	19012
860.725	19000
860.858	18924
860.99	18939
861.123	18787
861.256	18787
861.388	18837
861.521	19453
861.653	18783
861.786	18802
861.918	18703
862.05	18856
862.183	18920
862.315	18882
862.447	18935
862.58	18924
862.712	18681
862.844	18574
862.976	18810
863.108	18707
863.24	19053
863.372	18582
863.504	18566
863.636	18707
863.768	18673
863.9	18665
864.032	18483
864.164	18547
864.296	18604
864.428	18707
864.559	18700
864.691	18665
864.823	18570
864.954	18700
865.086	18547
865.217	18407
865.349	18502
865.48	18525
865.612	18532
865.743	18635
865.875	18494
866.006	18566
866.137	18559
866.269	18509
866.4	18646
866.531	18452
866.662	18536
866.793	18490
866.924	18407
867.055	18445
867.186	18475
867.317	18403
867.448	18448
867.579	18532
867.71	18365
867.841	18304
867.972	18532
868.103	18490
868.233	18551
868.364	18456
868.495	18620
868.625	18700
868.756	18658
868.886	18665
869.017	18700
869.147	18810
869.278	18791
869.408	18776
869.539	18646
869.669	18806
869.799	18684
869.929	18882
870.06	18783
870.19	19110
870.32	18920
870.45	19107
870.58	19027
870.71	19179
870.84	19114
870.97	19084
871.1	19145
871.23	19213
871.36	19377
871.489	19080
871.619	19160
871.749	19289
871.879	19301
872.008	19384
872.138	19312
872.267	19346
872.397	19293
872.526	19095
872.656	19107
872.785	19065
872.915	19354
873.044	19430
873.173	19259
873.303	19301
873.432	19285
873.561	19457
873.69	19308
873.819	19209
873.948	19369
874.077	19316
874.206	19346
874.335	19221
874.464	19502
874.593	19597
874.722	19434
874.851	19521
874.979	19632
875.108	19635
875.237	19548
875.365	19510
875.494	19495
875.623	19723
875.751	19613
875.88	19674
876.008	19761
876.136	19772
876.265	20035
876.393	20145
876.521	20119
876.65	20050
876.778	19989
876.906	19875
877.034	19906
877.162	19871
877.29	19928
877.418	20008
877.546	19925
877.674	19963
877.802	19928
877.93	20050
878.058	19909
878.185	19898
878.313	19940
878.441	20008
878.568	19776
878.696	19864
878.824	20092
878.951	20035
879.079	20073
879.206	20271
879.333	20134
879.461	19947
879.588	20039
879.715	20126
879.842	20134
879.97	19978
880.097	19909
880.224	19708
880.351	19898
880.478	19925
880.605	19788
880.732	19761
880.859	20031
880.986	19902
881.112	19765
881.239	19719
881.366	19658
881.493	19510
881.619	19495
881.746	19472
881.872	19392
881.999	19464
882.125	19133
882.252	19430
882.378	19449
882.505	19590
882.631	19365
882.757	19266
882.883	19259
883.01	19187
883.136	19198
883.262	19137
883.388	19099
883.514	19141
883.64	19304
883.766	19145
883.892	18905
884.018	19015
884.143	19225
884.269	19282
884.395	19095
884.52	18897
884.646	18875
884.772	18753
884.897	18673
885.023	18901
885.148	18962
885.274	19103
885.399	18901
885.524	18890
885.65	18932
885.775	18848
885.9	18802
886.025	18913
886.15	18973
886.275	18817
886.4	18684
886.525	18817
886.65	18829
886.775	18722
886.9	18920
887.025	19084
887.149	18798
887.274	18700
887.399	18612
887.523	18601
887.648	18555
887.773	18540
887.897	18623
888.021	18654
888.146	18506
888.27	18734
888.395	18882
888.519	18665
888.643	18593
888.767	18650
888.891	18494
889.015	18384
889.139	18426
889.263	18414
889.387	18403
889.511	18642
889.635	18582
889.759	18452
889.883	18369
890.006	18342
890.13	18490
890.254	18350
890.377	18456
890.501	18163
890.624	18178
890.748	18251
890.871	18167
890.995	18072
891.118	17961
891.241	18007
891.364	17977
891.488	18159
891.611	18015
891.734	18038
891.857	18076
891.98	18091
892.103	18045
892.226	18098
892.349	17942
892.471	17851
892.594	18015
892.717	18095
892.839	18057
892.962	18049
893.085	17988
893.207	17980
893.33	17851
893.452	17935
893.575	17942
893.697	17961
893.819	18152
893.941	18083
894.064	18121
894.186	17946
894.308	17855
894.43	18125
894.552	18190
894.674	18030
894.796	18003
894.918	18030
895.04	17901
895.161	18106
895.283	18106
895.405	18019
895.526	17988
895.648	18026
895.769	17973
895.891	18068
896.012	18087
896.134	18273
896.255	18072
896.376	17954
896.498	18133
896.619	18106
896.74	18091
896.861	18235
896.982	18506
897.103	18540
897.224	18289
897.345	18247
897.466	18277
897.587	18247
897.708	18506
897.828	18296
897.949	18163
898.07	18072
898.19	18171
898.311	18426
898.431	18205
898.552	18292
898.672	18346
898.792	18300
898.913	18228
899.033	18159
899.153	17988
899.273	17912
899.393	18019
899.513	17961
899.633	17912
899.753	18007
899.873	17980
899.993	18155
900.113	17920
900.232	18015
900.352	17863
900.472	17855
900.591	17771
900.711	17775
900.83	17726
900.95	17939
901.069	17992
901.189	17718
901.308	17573
901.427	17376
901.546	17573
901.665	17532
901.784	17520
901.904	17311
902.023	17273
902.141	17113
902.26	16984
902.379	17071
902.498	17014
902.617	16896
902.735	17079
902.854	17048
902.973	16949
903.091	16744
903.21	16653
903.328	16748
903.446	16599
903.565	16451
903.683	16398
903.801	16356
903.919	16478
904.038	16466
904.156	16329
904.274	16432
904.392	16280
904.51	16295
904.627	16265
904.745	16253
904.863	16215
904.981	15987
905.098	15846
905.216	15960
905.334	15892
905.451	15934
905.569	15953
905.686	15987
905.803	15892
905.921	15743
906.038	15781
906.155	15800
906.272	15709
906.389	15694
906.506	15488
906.623	15557
906.74	15473
906.857	15374
906.974	15386
907.091	15500
907.208	15576
907.324	15549
907.441	15401
907.557	15245
907.674	15233
907.79	15165
907.907	15119
908.023	15199
908.139	15146
908.256	15058
908.372	15055
908.488	15051
908.604	14899
908.72	14887
908.836	14815
908.952	14941
909.068	14845
909.184	15051
909.3	14868
909.415	14933
909.531	14902
909.647	14640
909.762	14552
909.878	14640
909.993	14590
910.108	14552
910.224	14575
910.339	14644
910.454	14412
910.57	14438
910.685	14450
910.8	14606
910.915	14564
911.03	14514
911.145	14229
911.259	14199
911.374	14233
911.489	14092
911.604	14100
911.718	13913
911.833	13978
911.947	13871
912.062	13788
912.176	13940
912.291	13928
912.405	13940
912.519	14065
912.633	14130
912.748	13963
912.862	13986
912.976	13776
913.09	13723
913.204	13693
913.318	13784
913.431	13860
913.545	13738
913.659	13925
913.772	13803
913.886	13655
914	13624
914.113	13734
914.226	13734
914.34	13738
914.453	13632
914.566	13681
914.68	13533
914.793	13422
914.906	13354
915.019	13339
915.132	13274
915.245	13270
915.358	13434
915.47	13312
915.583	13331
915.696	13388
915.809	13422
915.921	13430
916.034	13247
916.146	13194
916.259	13202
916.371	13320
916.483	13324
916.595	13187
916.708	13183
916.82	13175
916.932	13171
917.044	13168
917.156	13225
917.268	13015
917.38	13023
917.491	13031
917.603	12996
917.715	13084
917.826	13137
917.938	12939
918.049	12806
918.161	12886
918.272	13061
918.384	13110
918.495	12928
918.606	12829
918.717	12738
918.828	12859
918.939	12806
919.05	12806
919.161	12684
919.272	12601
919.383	12665
919.494	12806
919.604	12951
919.715	12840
919.826	12749
919.936	12772
920.047	12806
920.157	12791
920.267	13027
920.378	12787
920.488	12795
920.598	12913
920.708	13061
920.818	12894
920.928	12833
921.038	13179
921.148	13042
921.258	12776
921.368	12681
921.477	12429
921.587	12456
921.697	12422
921.806	12506
921.916	12475
922.025	12308
922.134	12201
922.244	12136
922.353	12186
922.462	12057
922.571	11977
922.68	11916
922.789	11897
922.898	11813
923.007	11855
923.116	11863
923.224	11824
923.333	11859
923.442	11703
923.55	11649
923.659	11623
923.767	11707
923.876	11668
923.984	11688
924.092	11627
924.201	11592
924.309	11596
924.417	11627
924.525	11478
924.633	11600
924.741	12601
924.849	11372
924.956	11512
925.064	11368
925.172	11246
925.279	11414
925.387	11398
925.494	11273
925.602	11448
925.709	11410
925.816	11307
925.924	11322
926.031	11421
926.138	11334
926.245	11353
926.352	11189
926.459	11383
926.566	11395
926.673	11220
926.779	11151
926.886	11140
926.993	11064
927.099	10949
927.206	10866
927.312	10968
927.419	10995
927.525	11037
927.631	11014
927.737	10828
927.843	10862
927.95	10725
928.056	10782
928.162	10809
928.267	10919
928.373	11554
928.479	10965
928.585	10706
928.69	10801
928.796	10797
928.901	10763
929.007	10641
929.112	10675
929.218	10710
929.323	10596
929.428	10634
929.533	10702
929.638	10481
929.743	10523
929.848	10607
929.953	10531
930.058	10497
930.163	10211
930.267	10318
930.372	10417
930.477	10185
930.581	10428
930.685	10367
930.79	10215
930.894	10246
930.998	10219
931.103	10333
931.207	9987
931.311	9869
931.415	9800
931.519	9637
931.623	9603
