Data from test_V78500241_1699.txt Node
Date: Fri Mar 25 15:21:41 CST 2022
User: usil
Spectrometer: V785-0024
Trigger mode: 0
Integration Time (sec): 4.000000E-1
Scans to average: 1
Nonlinearity correction enabled: false
Boxcar width: 0
Storing dark spectrum: false
XAxis mode: Wavelengths
Number of Pixels in Spectrum: 1024
>>>>>Begin Spectral Data<<<<<
801.071	28029
801.214	27861
801.356	27648
801.499	27625
801.641	27553
801.783	27431
801.926	27534
802.068	27557
802.211	27469
802.353	27405
802.496	27173
802.638	27180
802.78	27226
802.923	27066
803.065	27100
803.208	27055
803.35	27203
803.492	27252
803.635	27340
803.777	27211
803.919	27397
804.061	27690
804.204	27344
804.346	27416
804.488	27218
804.63	27359
804.773	27348
804.915	27397
805.057	27439
805.199	27287
805.341	27488
805.483	27496
805.626	27526
805.768	27443
805.91	27553
806.052	27534
806.194	27526
806.336	27724
806.478	27477
806.62	27496
806.762	27698
806.904	27701
807.046	28021
807.188	27895
807.33	27907
807.472	27983
807.614	27869
807.756	27899
807.898	27880
808.04	27850
808.182	27808
808.324	27736
808.465	27751
808.607	28040
808.749	28105
808.891	28265
809.033	28299
809.174	28341
809.316	27998
809.458	28131
809.6	28074
809.741	28230
809.883	28421
810.025	28478
810.166	28310
810.308	28390
810.45	28303
810.591	28329
810.733	28162
810.875	28116
811.016	28048
811.158	27926
811.299	28303
811.441	28276
811.582	28284
811.724	28090
811.865	28143
812.007	28124
812.148	28063
812.29	28116
812.431	28226
812.573	28584
812.714	28348
812.855	28592
812.997	28668
813.138	28862
813.279	28786
813.421	28755
813.562	28649
813.703	28519
813.845	28401
813.986	28055
814.127	28029
814.268	27831
814.41	27854
814.551	27888
814.692	27918
814.833	27781
814.974	27842
815.115	27823
815.256	27857
815.397	27690
815.539	27793
815.68	27530
815.821	27652
815.962	27709
816.103	27614
816.244	27477
816.385	27458
816.526	27336
816.666	27226
816.807	27165
816.948	27157
817.089	27287
817.23	27188
817.371	27116
817.512	27230
817.653	27131
817.793	27020
817.934	27123
818.075	27161
818.216	27154
818.356	27112
818.497	27005
818.638	26857
818.778	26944
818.919	26872
819.06	26940
819.2	27051
819.341	27089
819.481	27230
819.622	27214
819.762	27374
819.903	27439
820.043	27412
820.184	27264
820.324	27218
820.465	27317
820.605	27408
820.746	27233
820.886	27085
821.026	27203
821.167	27294
821.307	27317
821.447	27123
821.588	27070
821.728	26853
821.868	26762
822.008	26617
822.149	26613
822.289	26651
822.429	26374
822.569	26366
822.709	26256
822.849	26046
822.99	26088
823.13	26031
823.27	26058
823.41	25841
823.55	25955
823.69	25963
823.83	25921
823.97	25951
824.11	25837
824.25	25723
824.389	25647
824.529	25788
824.669	25822
824.809	25818
824.949	25898
825.089	25879
825.228	25803
825.368	25677
825.508	25635
825.648	25719
825.787	25700
825.927	25662
826.067	25700
826.206	25693
826.346	25643
826.485	25677
826.625	25681
826.765	25742
826.904	25742
827.044	25483
827.183	25312
827.323	25464
827.462	25556
827.601	25445
827.741	25491
827.88	25491
828.02	25350
828.159	25282
828.298	25335
828.437	25556
828.577	25331
828.716	25457
828.855	25183
828.994	25000
829.134	25069
829.273	25076
829.412	24981
829.551	25004
829.69	25088
829.829	25019
829.968	25168
830.107	25190
830.246	25091
830.385	25110
830.524	24962
830.663	24806
830.802	24863
830.941	24627
831.08	24696
831.219	24901
831.357	24776
831.496	25038
831.635	24673
831.774	24563
831.913	24620
832.051	24536
832.19	24574
832.329	24521
832.467	24296
832.606	24304
832.744	24369
832.883	24247
833.022	24338
833.16	24513
833.299	24384
833.437	24289
833.576	24361
833.714	24399
833.852	24536
833.991	24388
834.129	24505
834.267	24460
834.406	24490
834.544	24464
834.682	24490
834.821	24433
834.959	24578
835.097	24353
835.235	24525
835.373	24471
835.511	24429
835.65	24155
835.788	24262
835.926	24201
836.064	24087
836.202	24087
836.34	24270
836.478	24194
836.615	24216
836.753	24213
836.891	24323
837.029	24281
837.167	24220
837.305	24167
837.443	24110
837.58	23996
837.718	24117
837.856	24098
837.993	24022
838.131	23999
838.269	24148
838.406	23996
838.544	23958
838.681	23843
838.819	23737
838.956	23646
839.094	23577
839.231	23691
839.369	23855
839.506	24034
839.643	23866
839.781	23543
839.918	23623
840.055	23649
840.193	23634
840.33	23592
840.467	23345
840.604	23589
840.742	23737
840.879	23387
841.016	23391
841.153	23303
841.29	23615
841.427	23551
841.564	23547
841.701	23425
841.838	23330
841.975	23391
842.112	23368
842.249	23220
842.385	23242
842.522	23391
842.659	23414
842.796	23220
842.933	23124
843.069	23273
843.206	23155
843.343	23322
843.479	23216
843.616	23193
843.752	23079
843.889	23113
844.025	23136
844.162	22961
844.298	23117
844.435	23159
844.571	23014
844.708	22984
844.844	23159
844.98	23136
845.117	23094
845.253	22949
845.389	22774
845.525	22900
845.661	22793
845.798	22866
845.934	22816
846.07	22790
846.206	22755
846.342	22927
846.478	22809
846.614	22607
846.75	22455
846.886	22466
847.022	22470
847.158	22470
847.294	22478
847.429	22497
847.565	22497
847.701	22694
847.837	22223
847.972	22147
848.108	22291
848.244	22322
848.379	22147
848.515	22040
848.65	22192
848.786	22010
848.921	22150
849.057	22200
849.192	22154
849.328	22070
849.463	22082
849.598	22063
849.734	21911
849.869	21884
850.004	21854
850.14	21888
850.275	21873
850.41	21709
850.545	21854
850.68	21804
850.815	21774
850.95	21732
851.085	21960
851.22	21895
851.355	21846
851.49	21736
851.625	21724
851.76	21808
851.895	21679
852.03	21709
852.165	21907
852.299	21941
852.434	21960
852.569	21956
852.703	21785
852.838	21781
852.973	21873
853.107	21987
853.242	21846
853.376	21660
853.511	21572
853.645	21713
853.78	21793
853.914	21747
854.048	21591
854.183	21690
854.317	21682
854.451	21854
854.585	21618
854.72	21595
854.854	21736
854.988	21557
855.122	21686
855.256	21576
855.39	21633
855.524	21652
855.658	21694
855.792	21580
855.926	21622
856.06	21789
856.194	21781
856.327	21663
856.461	21595
856.595	21587
856.729	21641
856.862	21709
856.996	21732
857.13	21679
857.263	21747
857.397	21633
857.53	21587
857.664	21682
857.797	21675
857.931	21694
858.064	21610
858.197	21679
858.331	21770
858.464	21545
858.597	21545
858.731	21732
858.864	21625
858.997	21511
859.13	21637
859.263	21618
859.396	21781
859.529	21652
859.662	21747
859.795	21614
859.928	21675
860.061	21816
860.194	21857
860.327	21717
860.46	21644
860.592	21816
860.725	21785
860.858	21846
860.99	21660
861.123	21641
861.256	21648
861.388	21701
861.521	22352
861.653	21583
861.786	21439
861.918	21576
862.05	21549
862.183	21625
862.315	21576
862.447	21717
862.58	21656
862.712	21420
862.844	21344
862.976	21477
863.108	21443
863.24	21671
863.372	21245
863.504	21298
863.636	21329
863.768	21367
863.9	21439
864.032	21287
864.164	21287
864.296	21351
864.428	21511
864.559	21443
864.691	21485
864.823	21329
864.954	21408
865.086	21443
865.217	21363
865.349	21138
865.48	21237
865.612	21260
865.743	21291
865.875	21321
866.006	21222
866.137	21378
866.269	21249
866.4	21272
866.531	21237
866.662	21161
866.793	21184
866.924	21150
867.055	21157
867.186	21142
867.317	21154
867.448	21093
867.579	21291
867.71	21036
867.841	21116
867.972	21249
868.103	21074
868.233	21192
868.364	21112
868.495	21252
868.625	21485
868.756	21492
868.886	21405
869.017	21408
869.147	21492
869.278	21583
869.408	21473
869.539	21272
869.669	21507
869.799	21469
869.929	21542
870.06	21583
870.19	21583
870.32	21648
870.45	21743
870.58	21781
870.71	22013
870.84	21827
870.97	21812
871.1	21713
871.23	22063
871.36	21987
871.489	21941
871.619	21975
871.749	22097
871.879	21991
872.008	22097
872.138	22044
872.267	21994
872.397	21937
872.526	21850
872.656	21937
872.785	21964
872.915	22010
873.044	22169
873.173	22010
873.303	22040
873.432	22185
873.561	22200
873.69	22090
873.819	21930
873.948	22139
874.077	22036
874.206	21888
874.335	22032
874.464	22162
874.593	22329
874.722	22215
874.851	22363
874.979	22333
875.108	22276
875.237	22158
875.365	22086
875.494	22310
875.623	22417
875.751	22242
875.88	22215
876.008	22421
876.136	22443
876.265	22675
876.393	22896
876.521	22691
876.65	22736
876.778	22721
876.906	22565
877.034	22596
877.162	22668
877.29	22535
877.418	22599
877.546	22611
877.674	22554
877.802	22531
877.93	22573
878.058	22611
878.185	22489
878.313	22584
878.441	22577
878.568	22478
878.696	22538
878.824	22691
878.951	22641
879.079	22672
879.206	22828
879.333	22744
879.461	22634
879.588	22748
879.715	22805
879.842	22809
879.97	22721
880.097	22474
880.224	22409
880.351	22481
880.478	22455
880.605	22569
880.732	22516
880.859	22694
880.986	22474
881.112	22459
881.239	22318
881.366	22010
881.493	22032
881.619	22051
881.746	22051
881.872	21926
881.999	21789
882.125	21812
882.252	21987
882.378	22017
882.505	22078
882.631	21915
882.757	21739
882.883	21835
883.01	21618
883.136	21603
883.262	21519
883.388	21492
883.514	21831
883.64	21701
883.766	21652
883.892	21469
884.018	21469
884.143	21759
884.269	21690
884.395	21317
884.52	21287
884.646	21329
884.772	21313
884.897	21260
885.023	21272
885.148	21294
885.274	21435
885.399	21389
885.524	21351
885.65	21268
885.775	21374
885.9	21348
886.025	21393
886.15	21420
886.275	21443
886.4	21154
886.525	21268
886.65	21268
886.775	21260
886.9	21348
887.025	21515
887.149	21367
887.274	21127
887.399	21077
887.523	21089
887.648	21062
887.773	21028
887.897	21203
888.021	20982
888.146	21066
888.27	21089
888.395	21264
888.519	21081
888.643	21119
888.767	20986
888.891	20979
889.015	20921
889.139	20925
889.263	20773
889.387	20929
889.511	21104
889.635	21028
889.759	20895
889.883	20876
890.006	20986
890.13	20929
890.254	20708
890.377	20834
890.501	20594
890.624	20552
890.748	20720
890.871	20442
890.995	20427
891.118	20465
891.241	20412
891.364	20438
891.488	20571
891.611	20488
891.734	20355
891.857	20476
891.98	20442
892.103	20530
892.226	20518
892.349	20450
892.471	20328
892.594	20446
892.717	20404
892.839	20332
892.962	20328
893.085	20427
893.207	20362
893.33	20252
893.452	20233
893.575	20412
893.697	20351
893.819	20442
893.941	20461
894.064	20377
894.186	20267
894.308	20305
894.43	20476
894.552	20564
894.674	20419
894.796	20267
894.918	20237
895.04	20377
895.161	20358
895.283	20370
895.405	20282
895.526	20351
895.648	20271
895.769	20412
895.891	20423
896.012	20336
896.134	20366
896.255	20423
896.376	20301
896.498	20358
896.619	20377
896.74	20339
896.861	20465
896.982	20689
897.103	20826
897.224	20663
897.345	20533
897.466	20488
897.587	20568
897.708	20659
897.828	20526
897.949	20412
898.07	20374
898.19	20480
898.311	20587
898.431	20492
898.552	20537
898.672	20579
898.792	20492
898.913	20476
899.033	20484
899.153	20358
899.273	20393
899.393	20305
899.513	20240
899.633	20271
899.753	20370
899.873	20149
899.993	20320
900.113	20218
900.232	20187
900.352	20145
900.472	20077
900.591	20016
900.711	20062
900.83	20054
900.95	20119
901.069	20157
901.189	19944
901.308	19647
901.427	19635
901.546	19681
901.665	19704
901.784	19712
901.904	19552
902.023	19419
902.141	19202
902.26	19312
902.379	19164
902.498	19057
902.617	19114
902.735	19179
902.854	19168
902.973	19118
903.091	18802
903.21	18764
903.328	18768
903.446	18677
903.565	18635
903.683	18658
903.801	18566
903.919	18616
904.038	18654
904.156	18407
904.274	18464
904.392	18315
904.51	18380
904.627	18334
904.745	18441
904.863	18391
904.981	18197
905.098	17992
905.216	18102
905.334	18091
905.451	18064
905.569	18136
905.686	18209
905.803	18072
905.921	17828
906.038	17984
906.155	17805
906.272	17676
906.389	17794
906.506	17676
906.623	17570
906.74	17577
906.857	17520
906.974	17524
907.091	17581
907.208	17665
907.324	17714
907.441	17528
907.557	17349
907.674	17322
907.79	17360
907.907	17391
908.023	17364
908.139	17292
908.256	17189
908.372	17197
908.488	17288
908.604	17033
908.72	17014
908.836	17041
908.952	17083
909.068	16999
909.184	17098
909.3	16999
909.415	16991
909.531	17041
909.647	16854
909.762	16790
909.878	16664
909.993	16706
910.108	16736
910.224	16637
910.339	16702
910.454	16558
910.57	16512
910.685	16462
910.8	16713
910.915	16694
911.03	16489
911.145	16360
911.259	16352
911.374	16295
911.489	16215
911.604	16196
911.718	16074
911.833	16090
911.947	16025
912.062	15895
912.176	16044
912.291	16074
912.405	16059
912.519	16219
912.633	16200
912.748	15987
912.862	16055
912.976	15846
913.09	15793
913.204	15930
913.318	15762
913.431	16002
913.545	15949
913.659	15930
913.772	15854
913.886	15663
914	15785
914.113	15694
914.226	15804
914.34	15789
914.453	15545
914.566	15743
914.68	15526
914.793	15580
914.906	15302
915.019	15203
915.132	15199
915.245	15245
915.358	15416
915.47	15287
915.583	15420
915.696	15325
915.809	15416
915.921	15306
916.034	15245
916.146	15192
916.259	15017
916.371	15176
916.483	15207
916.595	15135
916.708	15135
916.82	15138
916.932	15097
917.044	15077
917.156	15093
917.268	14948
917.38	14960
917.491	14918
917.603	15028
917.715	14941
917.826	14975
917.938	14811
918.049	14861
918.161	14807
918.272	14990
918.384	14971
918.495	14800
918.606	14606
918.717	14705
918.828	14712
918.939	14686
919.05	14541
919.161	14625
919.272	14480
919.383	14473
919.494	14682
919.604	14796
919.715	14629
919.826	14587
919.936	14659
920.047	14720
920.157	14678
920.267	14735
920.378	14712
920.488	14564
920.598	14849
920.708	14902
920.818	14788
920.928	14765
921.038	14853
921.148	14743
921.258	14541
921.368	14427
921.477	14336
921.587	14324
921.697	14199
921.806	14461
921.916	14263
922.025	14126
922.134	14046
922.244	13951
922.353	14039
922.462	13864
922.571	13761
922.68	13651
922.789	13609
922.898	13655
923.007	13628
923.116	13700
923.224	13559
923.333	13620
923.442	13491
923.55	13594
923.659	13464
923.767	13620
923.876	13487
923.984	13586
924.092	13430
924.201	13384
924.309	13430
924.417	13350
924.525	13335
924.633	13320
924.741	14103
924.849	13107
924.956	13217
925.064	13065
925.172	12981
925.279	13095
925.387	13053
925.494	13114
925.602	13202
925.709	13107
925.816	12928
925.924	13057
926.031	13126
926.138	13034
926.245	13065
926.352	12875
926.459	12966
926.566	13156
926.673	12920
926.779	12787
926.886	12840
926.993	12566
927.099	12711
927.206	12608
927.312	12578
927.419	12700
927.525	12654
927.631	12734
927.737	12494
927.843	12384
927.95	12395
928.056	12426
928.162	12422
928.267	12532
928.373	12977
928.479	12456
928.585	12289
928.69	12380
928.796	12380
928.901	12308
929.007	12228
929.112	12300
929.218	12308
929.323	12254
929.428	12159
929.533	12235
929.638	12114
929.743	12076
929.848	12201
929.953	12079
930.058	12049
930.163	11821
930.267	11904
930.372	12026
930.477	11783
930.581	12026
930.685	11889
930.79	11733
930.894	11783
930.998	11699
931.103	11843
931.207	11509
931.311	11433
931.415	11433
931.519	11166
931.623	11147
