Data from test_V78500241_2882.txt Node
Date: Fri Mar 25 15:29:55 CST 2022
User: usil
Spectrometer: V785-0024
Trigger mode: 0
Integration Time (sec): 4.000000E-1
Scans to average: 1
Nonlinearity correction enabled: false
Boxcar width: 0
Storing dark spectrum: false
XAxis mode: Wavelengths
Number of Pixels in Spectrum: 1024
>>>>>Begin Spectral Data<<<<<
801.071	27313
801.214	27085
801.356	26880
801.499	26788
801.641	26746
801.783	26792
801.926	26739
802.068	26746
802.211	26674
802.353	26598
802.496	26324
802.638	26469
802.78	26415
802.923	26404
803.065	26225
803.208	26214
803.35	26431
803.492	26393
803.635	26575
803.777	26533
803.919	26415
804.061	26902
804.204	26651
804.346	26625
804.488	26461
804.63	26541
804.773	26332
804.915	26583
805.057	26689
805.199	26461
805.341	26495
805.483	26735
805.626	26834
805.768	26571
805.91	26705
806.052	26701
806.194	26648
806.336	26826
806.478	26731
806.62	26708
806.762	26800
806.904	26891
807.046	27222
807.188	27058
807.33	27112
807.472	27176
807.614	27001
807.756	27077
807.898	26952
808.04	26807
808.182	26857
808.324	26895
808.465	26990
808.607	27089
808.749	27233
808.891	27389
809.033	27504
809.174	27310
809.316	27184
809.458	27355
809.6	27279
809.741	27272
809.883	27401
810.025	27557
810.166	27610
810.308	27496
810.45	27542
810.591	27500
810.733	27355
810.875	27359
811.016	27199
811.158	27195
811.299	27408
811.441	27591
811.582	27545
811.724	27268
811.865	27207
812.007	27325
812.148	27306
812.29	27427
812.431	27458
812.573	27690
812.714	27583
812.855	27698
812.997	27854
813.138	27934
813.279	27766
813.421	27793
813.562	27819
813.703	27443
813.845	27580
813.986	27176
814.127	27036
814.268	26872
814.41	26914
814.551	27028
814.692	27017
814.833	26804
814.974	26872
815.115	26921
815.256	26781
815.397	26788
815.539	26880
815.68	26621
815.821	26746
815.962	26743
816.103	26765
816.244	26587
816.385	26465
816.526	26545
816.666	26149
816.807	26199
816.948	26298
817.089	26210
817.23	26168
817.371	26282
817.512	26351
817.653	26214
817.793	26142
817.934	26221
818.075	26199
818.216	26180
818.356	26229
818.497	26077
818.638	25879
818.778	25913
818.919	25864
819.06	25871
819.2	25997
819.341	26107
819.481	26225
819.622	26202
819.762	26461
819.903	26377
820.043	26256
820.184	26142
820.324	26294
820.465	26256
820.605	26309
820.746	26309
820.886	26035
821.026	26149
821.167	26225
821.307	26286
821.447	26237
821.588	26119
821.728	25978
821.868	25879
822.008	25620
822.149	25681
822.289	25487
822.429	25422
822.569	25422
822.709	25301
822.849	25179
822.99	25103
823.13	25057
823.27	25129
823.41	24962
823.55	24905
823.69	24954
823.83	25031
823.97	24859
824.11	24753
824.25	24730
824.389	24661
824.529	24764
824.669	24821
824.809	24810
824.949	24954
825.089	24798
825.228	24764
825.368	24639
825.508	24551
825.648	24711
825.787	24734
825.927	24776
826.067	24631
826.206	24620
826.346	24635
826.485	24734
826.625	24677
826.765	24738
826.904	24612
827.044	24426
827.183	24437
827.323	24365
827.462	24388
827.601	24323
827.741	24289
827.88	24281
828.02	24235
828.159	24235
828.298	24311
828.437	24285
828.577	24201
828.716	24467
828.855	24235
828.994	24095
829.134	23958
829.273	24117
829.412	23916
829.551	23958
829.69	24034
829.829	24041
829.968	24034
830.107	23977
830.246	24102
830.385	23954
830.524	23912
830.663	23851
830.802	23805
830.941	23581
831.08	23516
831.219	23627
831.357	23684
831.496	23840
831.635	23672
831.774	23558
831.913	23516
832.051	23463
832.19	23474
832.329	23509
832.467	23448
832.606	23227
832.744	23398
832.883	23258
833.022	23334
833.16	23223
833.299	23261
833.437	23326
833.576	23250
833.714	23417
833.852	23402
833.991	23349
834.129	23425
834.267	23531
834.406	23417
834.544	23318
834.682	23387
834.821	23303
834.959	23543
835.097	23284
835.235	23429
835.373	23402
835.511	23425
835.65	23337
835.788	23200
835.926	23071
836.064	23041
836.202	23041
836.34	23239
836.478	23277
836.615	23208
836.753	23227
836.891	23197
837.029	23204
837.167	23200
837.305	23022
837.443	23075
837.58	23041
837.718	23147
837.856	23071
837.993	22911
838.131	23162
838.269	23071
838.406	22938
838.544	22923
838.681	22755
838.819	22626
838.956	22557
839.094	22474
839.231	22459
839.369	22790
839.506	22911
839.643	22812
839.781	22489
839.918	22356
840.055	22394
840.193	22466
840.33	22451
840.467	22485
840.604	22447
840.742	22668
840.879	22284
841.016	22405
841.153	22424
841.29	22588
841.427	22371
841.564	22535
841.701	22402
841.838	22405
841.975	22257
842.112	22276
842.249	22253
842.385	22272
842.522	22470
842.659	22272
842.796	22234
842.933	22276
843.069	22135
843.206	22063
843.343	22382
843.479	22093
843.616	22215
843.752	22150
843.889	21994
844.025	22109
844.162	21979
844.298	22169
844.435	21994
844.571	21911
844.708	22051
844.844	22112
844.98	21994
845.117	22074
845.253	21903
845.389	21888
845.525	21945
845.661	21774
845.798	21690
845.934	21846
846.07	21542
846.206	21625
846.342	21774
846.478	21690
846.614	21454
846.75	21397
846.886	21473
847.022	21542
847.158	21420
847.294	21466
847.429	21473
847.565	21511
847.701	21667
847.837	21116
847.972	21241
848.108	21245
848.244	21298
848.379	21127
848.515	20986
848.65	21005
848.786	21039
848.921	21047
849.057	21211
849.192	21154
849.328	21104
849.463	21188
849.598	21043
849.734	20921
849.869	20914
850.004	20769
850.14	20769
850.275	20861
850.41	20739
850.545	20918
850.68	20781
850.815	20834
850.95	20731
851.085	20986
851.22	20937
851.355	20773
851.49	20720
851.625	20823
851.76	20788
851.895	20743
852.03	20705
852.165	20845
852.299	20830
852.434	20906
852.569	20735
852.703	20769
852.838	20883
852.973	20914
853.107	20883
853.242	20746
853.376	20708
853.511	20552
853.645	20552
853.78	20777
853.914	20629
854.048	20617
854.183	20606
854.317	20640
854.451	20891
854.585	20625
854.72	20644
854.854	20697
854.988	20522
855.122	20667
855.256	20408
855.39	20476
855.524	20754
855.658	20792
855.792	20651
855.926	20617
856.06	20663
856.194	20746
856.327	20450
856.461	20537
856.595	20632
856.729	20533
856.862	20788
856.996	20636
857.13	20686
857.263	20746
857.397	20758
857.53	20583
857.664	20804
857.797	20712
857.931	20765
858.064	20651
858.197	20727
858.331	20495
858.464	20511
858.597	20514
858.731	20484
858.864	20545
858.997	20613
859.13	20674
859.263	20674
859.396	20773
859.529	20568
859.662	20636
859.795	20476
859.928	20746
860.061	20811
860.194	20804
860.327	20689
860.46	20594
860.592	20792
860.725	20769
860.858	20739
860.99	20648
861.123	20530
861.256	20518
861.388	20583
861.521	21325
861.653	20484
861.786	20560
861.918	20488
862.05	20495
862.183	20530
862.315	20644
862.447	20602
862.58	20499
862.712	20393
862.844	20332
862.976	20412
863.108	20381
863.24	20731
863.372	20267
863.504	20328
863.636	20263
863.768	20381
863.9	20282
864.032	20408
864.164	20339
864.296	20347
864.428	20514
864.559	20431
864.691	20526
864.823	20457
864.954	20385
865.086	20275
865.217	20134
865.349	20130
865.48	20252
865.612	20256
865.743	20400
865.875	20119
866.006	20161
866.137	20176
866.269	20290
866.4	20263
866.531	20130
866.662	20218
866.793	20252
866.924	20259
867.055	20199
867.186	20248
867.317	20134
867.448	20073
867.579	20229
867.71	20145
867.841	20126
867.972	20130
868.103	20252
868.233	20176
868.364	20081
868.495	20339
868.625	20377
868.756	20545
868.886	20298
869.017	20374
869.147	20579
869.278	20438
869.408	20473
869.539	20473
869.669	20427
869.799	20408
869.929	20583
870.06	20476
870.19	20724
870.32	20617
870.45	20845
870.58	20925
870.71	20944
870.84	20899
870.97	20952
871.1	20899
871.23	21051
871.36	21043
871.489	20971
871.619	21104
871.749	21074
871.879	21077
872.008	21119
872.138	21116
872.267	21077
872.397	20902
872.526	20838
872.656	20868
872.785	20876
872.915	21055
873.044	21123
873.173	21100
873.303	21089
873.432	21154
873.561	21112
873.69	21157
873.819	21161
873.948	21096
874.077	21116
874.206	21028
874.335	21055
874.464	21184
874.593	21332
874.722	21173
874.851	21317
874.979	21374
875.108	21359
875.237	21245
875.365	21310
875.494	21329
875.623	21447
875.751	21306
875.88	21367
876.008	21511
876.136	21534
876.265	21652
876.393	21793
876.521	21827
876.65	21827
876.778	21759
876.906	21679
877.034	21679
877.162	21751
877.29	21591
877.418	21800
877.546	21709
877.674	21599
877.802	21656
877.93	21629
878.058	21622
878.185	21656
878.313	21561
878.441	21686
878.568	21515
878.696	21698
878.824	21572
878.951	21808
879.079	21808
879.206	21972
879.333	21846
879.461	21774
879.588	21774
879.715	21918
879.842	22002
879.97	21713
880.097	21496
880.224	21466
880.351	21572
880.478	21477
880.605	21534
880.732	21492
880.859	21728
880.986	21526
881.112	21526
881.239	21367
881.366	21279
881.493	21195
881.619	21036
881.746	21062
881.872	21188
881.999	20899
882.125	20967
882.252	21123
882.378	21009
882.505	21119
882.631	20979
882.757	20777
882.883	20845
883.01	20834
883.136	20781
883.262	20663
883.388	20636
883.514	20807
883.64	20868
883.766	20651
883.892	20575
884.018	20598
884.143	20800
884.269	20781
884.395	20480
884.52	20457
884.646	20495
884.772	20400
884.897	20282
885.023	20423
885.148	20507
885.274	20674
885.399	20693
885.524	20450
885.65	20537
885.775	20427
885.9	20457
886.025	20511
886.15	20549
886.275	20366
886.4	20385
886.525	20484
886.65	20233
886.775	20336
886.9	20549
887.025	20568
887.149	20446
887.274	20355
887.399	20161
887.523	20282
887.648	20130
887.773	20119
887.897	20263
888.021	20233
888.146	20168
888.27	20336
888.395	20256
888.519	20195
888.643	20252
888.767	20134
888.891	20142
889.015	20031
889.139	20073
889.263	20161
889.387	20103
889.511	20069
889.635	19997
889.759	20050
889.883	20092
890.006	20020
890.13	20195
890.254	19982
890.377	19974
890.501	19852
890.624	19719
890.748	19898
890.871	19594
890.995	19712
891.118	19609
891.241	19537
891.364	19734
891.488	19712
891.611	19597
891.734	19594
891.857	19655
891.98	19575
892.103	19651
892.226	19582
892.349	19609
892.471	19400
892.594	19457
892.717	19544
892.839	19400
892.962	19548
893.085	19605
893.207	19529
893.33	19499
893.452	19407
893.575	19548
893.697	19582
893.819	19601
893.941	19632
894.064	19647
894.186	19445
894.308	19480
894.43	19609
894.552	19616
894.674	19635
894.796	19453
894.918	19639
895.04	19430
895.161	19609
895.283	19689
895.405	19411
895.526	19521
895.648	19635
895.769	19552
895.891	19537
896.012	19533
896.134	19719
896.255	19506
896.376	19403
896.498	19430
896.619	19628
896.74	19457
896.861	19655
896.982	19833
897.103	19993
897.224	19795
897.345	19738
897.466	19632
897.587	19731
897.708	19906
897.828	19708
897.949	19795
898.07	19613
898.19	19658
898.311	19841
898.431	19696
898.552	19803
898.672	19807
898.792	19826
898.913	19845
899.033	19616
899.153	19586
899.273	19476
899.393	19537
899.513	19514
899.633	19582
899.753	19567
899.873	19521
899.993	19521
900.113	19453
900.232	19445
900.352	19358
900.472	19362
900.591	19331
900.711	19301
900.83	19164
900.95	19335
901.069	19354
901.189	19225
901.308	19095
901.427	18905
901.546	18840
901.665	18810
901.784	18939
901.904	18817
902.023	18749
902.141	18540
902.26	18418
902.379	18506
902.498	18391
902.617	18445
902.735	18437
902.854	18429
902.973	18388
903.091	18174
903.21	18148
903.328	18163
903.446	17931
903.565	17923
903.683	17821
903.801	17748
903.919	17855
904.038	17908
904.156	17672
904.274	17764
904.392	17741
904.51	17646
904.627	17596
904.745	17703
904.863	17729
904.981	17421
905.098	17414
905.216	17406
905.334	17398
905.451	17391
905.569	17311
905.686	17292
905.803	17250
905.921	17166
906.038	17197
906.155	17220
906.272	17067
906.389	17159
906.506	16866
906.623	16919
906.74	16965
906.857	16771
906.974	16850
907.091	16946
907.208	16976
907.324	16854
907.441	16755
907.557	16611
907.674	16611
907.79	16474
907.907	16626
908.023	16645
908.139	16569
908.256	16523
908.372	16546
908.488	16462
908.604	16318
908.72	16287
908.836	16421
908.952	16348
909.068	16371
909.184	16424
909.3	16382
909.415	16310
909.531	16211
909.647	16078
909.762	16078
909.878	15972
909.993	16124
910.108	16055
910.224	16036
910.339	16029
910.454	16078
910.57	15861
910.685	15819
910.8	16048
910.915	16021
911.03	15739
911.145	15698
911.259	15682
911.374	15663
911.489	15614
911.604	15545
911.718	15428
911.833	15283
911.947	15431
912.062	15351
912.176	15405
912.291	15485
912.405	15469
912.519	15622
912.633	15641
912.748	15466
912.862	15348
912.976	15245
913.09	15119
913.204	15256
913.318	15241
913.431	15344
913.545	15272
913.659	15310
913.772	15199
913.886	15104
914	15062
914.113	15138
914.226	15108
914.34	15085
914.453	14891
914.566	15005
914.68	14921
914.793	14963
914.906	14674
915.019	14545
915.132	14537
915.245	14590
915.358	14613
915.47	14731
915.583	14556
915.696	14670
915.809	14796
915.921	14743
916.034	14568
916.146	14556
916.259	14583
916.371	14590
916.483	14617
916.595	14434
916.708	14511
916.82	14499
916.932	14480
917.044	14396
917.156	14419
917.268	14374
917.38	14434
917.491	14358
917.603	14400
917.715	14370
917.826	14366
917.938	14298
918.049	14214
918.161	14301
918.272	14457
918.384	14393
918.495	14301
918.606	14054
918.717	14031
918.828	14054
918.939	14221
919.05	14012
919.161	14024
919.272	13860
919.383	13830
919.494	14031
919.604	14229
919.715	14115
919.826	14054
919.936	13997
920.047	14183
920.157	14065
920.267	14202
920.378	14092
920.488	14096
920.598	14214
920.708	14278
920.818	14103
920.928	14206
921.038	14393
921.148	14309
921.258	14031
921.368	13967
921.477	13780
921.587	13765
921.697	13613
921.806	13837
921.916	13670
922.025	13480
922.134	13525
922.244	13411
922.353	13559
922.462	13384
922.571	13263
922.68	13156
922.789	13149
922.898	13126
923.007	12947
923.116	13168
923.224	13110
923.333	13023
923.442	13008
923.55	12958
923.659	12939
923.767	13057
923.876	12894
923.984	12962
924.092	12890
924.201	12814
924.309	12882
924.417	12837
924.525	12806
924.633	12734
924.741	13727
924.849	12563
924.956	12703
925.064	12536
925.172	12422
925.279	12601
925.387	12627
925.494	12563
925.602	12639
925.709	12601
925.816	12426
925.924	12437
926.031	12555
926.138	12646
926.245	12521
926.352	12338
926.459	12525
926.566	12433
926.673	12483
926.779	12350
926.886	12361
926.993	12178
927.099	12087
927.206	12117
927.312	12121
927.419	12171
927.525	12155
927.631	12190
927.737	11999
927.843	12064
927.95	11939
928.056	11920
928.162	12038
928.267	12045
928.373	12604
928.479	12045
928.585	11760
928.69	11870
928.796	11912
928.901	11882
929.007	11627
929.112	11832
929.218	11733
929.323	11767
929.428	11714
929.533	11748
929.638	11710
929.743	11668
929.848	11653
929.953	11611
930.058	11482
930.163	11391
930.267	11379
930.372	11474
930.477	11337
930.581	11554
930.685	11417
930.79	11246
930.894	11315
930.998	11239
931.103	11478
931.207	10987
931.311	11056
931.415	10972
931.519	10752
931.623	10637
