Data from test_V78500241_776.txt Node
Date: Fri Mar 25 15:15:15 CST 2022
User: usil
Spectrometer: V785-0024
Trigger mode: 0
Integration Time (sec): 4.000000E-1
Scans to average: 1
Nonlinearity correction enabled: false
Boxcar width: 0
Storing dark spectrum: false
XAxis mode: Wavelengths
Number of Pixels in Spectrum: 1024
>>>>>Begin Spectral Data<<<<<
801.071	28143
801.214	28173
801.356	27880
801.499	27979
801.641	27781
801.783	27819
801.926	27838
802.068	27755
802.211	27781
802.353	27694
802.496	27519
802.638	27557
802.78	27427
802.923	27420
803.065	27439
803.208	27420
803.35	27564
803.492	27572
803.635	27610
803.777	27523
803.919	27667
804.061	28055
804.204	27709
804.346	27629
804.488	27599
804.63	27580
804.773	27637
804.915	27797
805.057	27823
805.199	27701
805.341	27838
805.483	27819
805.626	27899
805.768	27682
805.91	27857
806.052	27827
806.194	27591
806.336	27998
806.478	27869
806.62	27751
806.762	27838
806.904	28173
807.046	28409
807.188	28314
807.33	28188
807.472	28310
807.614	28215
807.756	28261
807.898	28006
808.04	27983
808.182	28226
808.324	28044
808.465	28150
808.607	28333
808.749	28462
808.891	28725
809.033	28607
809.174	28542
809.316	28493
809.458	28485
809.6	28611
809.741	28694
809.883	28698
810.025	28740
810.166	28824
810.308	28904
810.45	28710
810.591	28710
810.733	28618
810.875	28318
811.016	28432
811.158	28405
811.299	28527
811.441	28691
811.582	28413
811.724	28394
811.865	28500
812.007	28485
812.148	28493
812.29	28470
812.431	28717
812.573	28892
812.714	28847
812.855	28976
812.997	29189
813.138	29258
813.279	29197
813.421	29014
813.562	29086
813.703	28892
813.845	28736
813.986	28459
814.127	28318
814.268	28158
814.41	28371
814.551	28223
814.692	28219
814.833	28105
814.974	28211
815.115	28219
815.256	28002
815.397	28128
815.539	28036
815.68	28036
815.821	27968
815.962	27865
816.103	28036
816.244	27854
816.385	27808
816.526	27785
816.666	27633
816.807	27637
816.948	27622
817.089	27526
817.23	27698
817.371	27526
817.512	27458
817.653	27545
817.793	27618
817.934	27473
818.075	27568
818.216	27644
818.356	27599
818.497	27302
818.638	27142
818.778	27256
818.919	27283
819.06	27272
819.2	27367
819.341	27481
819.481	27606
819.622	27633
819.762	27819
819.903	27720
820.043	27720
820.184	27694
820.324	27580
820.465	27606
820.605	27561
820.746	27610
820.886	27500
821.026	27717
821.167	27561
821.307	27572
821.447	27587
821.588	27386
821.728	27268
821.868	27135
822.008	27024
822.149	26986
822.289	26940
822.429	26750
822.569	26731
822.709	26663
822.849	26514
822.99	26423
823.13	26415
823.27	26469
823.41	26431
823.55	26294
823.69	26271
823.83	26290
823.97	26400
824.11	26142
824.25	26176
824.389	26176
824.529	26210
824.669	26202
824.809	26400
824.949	26332
825.089	26221
825.228	26237
825.368	26081
825.508	26020
825.648	26065
825.787	26107
825.927	26103
826.067	26149
826.206	25963
826.346	25959
826.485	26126
826.625	26088
826.765	26183
826.904	26043
827.044	25818
827.183	25837
827.323	25841
827.462	25772
827.601	25799
827.741	25674
827.88	25887
828.02	25723
828.159	25761
828.298	25776
828.437	25769
828.577	25738
828.716	25761
828.855	25677
828.994	25396
829.134	25578
829.273	25529
829.412	25445
829.551	25483
829.69	25487
829.829	25514
829.968	25518
830.107	25563
830.246	25537
830.385	25377
830.524	25434
830.663	25282
830.802	25194
830.941	25000
831.08	25027
831.219	25145
831.357	25255
831.496	25145
831.635	25099
831.774	24962
831.913	24973
832.051	24837
832.19	24878
832.329	24886
832.467	24894
832.606	24646
832.744	24722
832.883	24719
833.022	24715
833.16	24757
833.299	24745
833.437	24745
833.576	24859
833.714	24833
833.852	24916
833.991	24814
834.129	24867
834.267	25008
834.406	24757
834.544	24783
834.682	24882
834.821	24802
834.959	24863
835.097	24631
835.235	24856
835.373	24806
835.511	24703
835.65	24661
835.788	24719
835.926	24505
836.064	24403
836.202	24540
836.34	24646
836.478	24688
836.615	24585
836.753	24639
836.891	24753
837.029	24601
837.167	24551
837.305	24578
837.443	24513
837.58	24483
837.718	24570
837.856	24475
837.993	24410
838.131	24403
838.269	24281
838.406	24323
838.544	24182
838.681	24110
838.819	24182
838.956	23859
839.094	23821
839.231	23950
839.369	24095
839.506	24251
839.643	24243
839.781	24003
839.918	23836
840.055	23885
840.193	23836
840.33	23802
840.467	23809
840.604	23790
840.742	24110
840.879	23729
841.016	23699
841.153	23809
841.29	23908
841.427	23912
841.564	23946
841.701	23809
841.838	23699
841.975	23828
842.112	23661
842.249	23558
842.385	23699
842.522	23790
842.659	23619
842.796	23562
842.933	23596
843.069	23486
843.206	23493
843.343	23661
843.479	23710
843.616	23478
843.752	23223
843.889	23288
844.025	23459
844.162	23356
844.298	23474
844.435	23440
844.571	23341
844.708	23414
844.844	23471
844.98	23391
845.117	23455
845.253	23440
845.389	23170
845.525	23311
845.661	23235
845.798	23056
845.934	23098
846.07	22919
846.206	23086
846.342	23239
846.478	23006
846.614	22877
846.75	22915
846.886	22748
847.022	22904
847.158	22767
847.294	22733
847.429	22854
847.565	22839
847.701	22850
847.837	22607
847.972	22546
848.108	22611
848.244	22687
848.379	22584
848.515	22318
848.65	22287
848.786	22508
848.921	22409
849.057	22485
849.192	22546
849.328	22447
849.463	22390
849.598	22314
849.734	22356
849.869	22280
850.004	22090
850.14	22226
850.275	22158
850.41	22093
850.545	22112
850.68	21972
850.815	22139
850.95	22147
851.085	22394
851.22	22440
851.355	22120
851.49	22226
851.625	22097
851.76	22093
851.895	22150
852.03	22002
852.165	22143
852.299	22226
852.434	22158
852.569	22192
852.703	22173
852.838	22242
852.973	22303
853.107	22337
853.242	22230
853.376	22124
853.511	21808
853.645	21987
853.78	22017
853.914	22017
854.048	21907
854.183	22048
854.317	21964
854.451	22143
854.585	22044
854.72	21926
854.854	22124
854.988	21888
855.122	21956
855.256	21941
855.39	21846
855.524	22162
855.658	21941
855.792	21857
855.926	21960
856.06	21960
856.194	22097
856.327	21964
856.461	21800
856.595	22002
856.729	21884
856.862	22082
856.996	21991
857.13	22051
857.263	22086
857.397	22147
857.53	21987
857.664	22029
857.797	22128
857.931	22048
858.064	22059
858.197	22097
858.331	21911
858.464	21846
858.597	21766
858.731	21915
858.864	21930
858.997	21964
859.13	22036
859.263	21937
859.396	21941
859.529	21907
859.662	21968
859.795	21945
859.928	21911
860.061	22185
860.194	22112
860.327	22017
860.46	21975
860.592	22112
860.725	22139
860.858	22158
860.99	21987
861.123	21911
861.256	21880
861.388	22013
861.521	22611
861.653	21911
861.786	21831
861.918	21789
862.05	21922
862.183	21880
862.315	21831
862.447	21945
862.58	21823
862.712	21667
862.844	21713
862.976	21808
863.108	21728
863.24	22101
863.372	21633
863.504	21698
863.636	21739
863.768	21595
863.9	21610
864.032	21701
864.164	21701
864.296	21701
864.428	21800
864.559	21690
864.691	21789
864.823	21736
864.954	21603
865.086	21625
865.217	21576
865.349	21450
865.48	21667
865.612	21511
865.743	21789
865.875	21622
866.006	21603
866.137	21481
866.269	21530
866.4	21580
866.531	21477
866.662	21412
866.793	21439
866.924	21519
867.055	21523
867.186	21454
867.317	21538
867.448	21504
867.579	21424
867.71	21439
867.841	21485
867.972	21599
868.103	21321
868.233	21549
868.364	21526
868.495	21625
868.625	21599
868.756	21789
868.886	21701
869.017	21690
869.147	21930
869.278	21949
869.408	21694
869.539	21781
869.669	21789
869.799	21835
869.929	21812
870.06	21915
870.19	21895
870.32	22135
870.45	22048
870.58	22070
870.71	22196
870.84	22265
870.97	22147
871.1	22059
871.23	22223
871.36	22215
871.489	22120
871.619	22238
871.749	22261
871.879	22280
872.008	22466
872.138	22363
872.267	22272
872.397	22284
872.526	22124
872.656	21979
872.785	22116
872.915	22337
873.044	22455
873.173	22363
873.303	22291
873.432	22519
873.561	22508
873.69	22333
873.819	22409
873.948	22413
874.077	22238
874.206	22333
874.335	22337
874.464	22485
874.593	22649
874.722	22489
874.851	22546
874.979	22622
875.108	22717
875.237	22535
875.365	22398
875.494	22516
875.623	22641
875.751	22470
875.88	22504
876.008	22748
876.136	22710
876.265	22968
876.393	22999
876.521	22972
876.65	23029
876.778	22850
876.906	22885
877.034	22908
877.162	22919
877.29	22839
877.418	22805
877.546	22858
877.674	22839
877.802	22835
877.93	22828
878.058	22877
878.185	22831
878.313	22831
878.441	22858
878.568	22675
878.696	22869
878.824	22839
878.951	22987
879.079	23128
879.206	23155
879.333	23170
879.461	22755
879.588	23003
879.715	23029
879.842	23132
879.97	22911
880.097	22710
880.224	22763
880.351	22691
880.478	22508
880.605	22664
880.732	22683
880.859	22930
880.986	22710
881.112	22664
881.239	22588
881.366	22519
881.493	22329
881.619	22192
881.746	22299
881.872	22306
881.999	22181
882.125	22150
882.252	22280
882.378	22318
882.505	22325
882.631	22025
882.757	21918
882.883	22070
883.01	21987
883.136	22021
883.262	21846
883.388	21800
883.514	21953
883.64	22006
883.766	21979
883.892	21751
884.018	21747
884.143	21899
884.269	21899
884.395	21774
884.52	21629
884.646	21618
884.772	21473
884.897	21504
885.023	21576
885.148	21614
885.274	21694
885.399	21739
885.524	21682
885.65	21648
885.775	21675
885.9	21591
886.025	21686
886.15	21705
886.275	21439
886.4	21530
886.525	21591
886.65	21549
886.775	21568
886.9	21587
887.025	21907
887.149	21549
887.274	21321
887.399	21317
887.523	21378
887.648	21393
887.773	21348
887.897	21389
888.021	21431
888.146	21325
888.27	21519
888.395	21386
888.519	21336
888.643	21466
888.767	21435
888.891	21142
889.015	21062
889.139	21275
889.263	21108
889.387	21192
889.511	21298
889.635	21332
889.759	21085
889.883	21188
890.006	21123
890.13	21176
890.254	21184
890.377	21127
890.501	20948
890.624	20788
890.748	20967
890.871	20735
890.995	20781
891.118	20765
891.241	20743
891.364	20777
891.488	20785
891.611	20785
891.734	20575
891.857	20754
891.98	20731
892.103	20697
892.226	20693
892.349	20571
892.471	20454
892.594	20533
892.717	20720
892.839	20598
892.962	20602
893.085	20549
893.207	20602
893.33	20526
893.452	20583
893.575	20629
893.697	20473
893.819	20743
893.941	20819
894.064	20689
894.186	20533
894.308	20465
894.43	20716
894.552	20762
894.674	20648
894.796	20476
894.918	20651
895.04	20511
895.161	20655
895.283	20549
895.405	20602
895.526	20644
895.648	20594
895.769	20457
895.891	20625
896.012	20716
896.134	20602
896.255	20541
896.376	20473
896.498	20533
896.619	20579
896.74	20522
896.861	20682
896.982	20979
897.103	20941
897.224	20895
897.345	20716
897.466	20743
897.587	20819
897.708	21032
897.828	20819
897.949	20773
898.07	20564
898.19	20640
898.311	20868
898.431	20689
898.552	20834
898.672	20746
898.792	20956
898.913	20921
899.033	20640
899.153	20579
899.273	20533
899.393	20552
899.513	20473
899.633	20594
899.753	20606
899.873	20507
899.993	20503
900.113	20473
900.232	20488
900.352	20438
900.472	20305
900.591	20351
900.711	20278
900.83	20320
900.95	20423
901.069	20480
901.189	20229
901.308	19963
901.427	19814
901.546	19959
901.665	19955
901.784	19936
901.904	19693
902.023	19700
902.141	19510
902.26	19537
902.379	19422
902.498	19381
902.617	19327
902.735	19559
902.854	19373
902.973	19209
903.091	19126
903.21	19091
903.328	19069
903.446	18985
903.565	18882
903.683	18844
903.801	18654
903.919	18814
904.038	18772
904.156	18604
904.274	18700
904.392	18661
904.51	18570
904.627	18521
904.745	18608
904.863	18650
904.981	18437
905.098	18270
905.216	18273
905.334	18292
905.451	18330
905.569	18262
905.686	18262
905.803	18273
905.921	18209
906.038	18247
906.155	18152
906.272	18064
906.389	17999
906.506	17878
906.623	17851
906.74	17863
906.857	17714
906.974	17707
907.091	17798
907.208	17912
907.324	17923
907.441	17832
907.557	17638
907.674	17539
907.79	17570
907.907	17436
908.023	17532
908.139	17520
908.256	17417
908.372	17471
908.488	17341
908.604	17410
908.72	17204
908.836	17181
908.952	17220
909.068	17200
909.184	17261
909.3	17200
909.415	17330
909.531	17269
909.647	16873
909.762	16927
909.878	16873
909.993	17014
910.108	16953
910.224	16934
910.339	16968
910.454	16816
910.57	16767
910.685	16702
910.8	16938
910.915	16900
911.03	16702
911.145	16500
911.259	16531
911.374	16577
911.489	16497
911.604	16405
911.718	16333
911.833	16333
911.947	16143
912.062	16200
912.176	16268
912.291	16352
912.405	16276
912.519	16337
912.633	16428
912.748	16356
912.862	16181
912.976	16082
913.09	15941
913.204	15991
913.318	16112
913.431	16055
913.545	16226
913.659	16181
913.772	16040
913.886	15899
914	15880
914.113	16006
914.226	15956
914.34	15937
914.453	15713
914.566	15934
914.68	15720
914.793	15751
914.906	15667
915.019	15545
915.132	15412
915.245	15500
915.358	15507
915.47	15492
915.583	15500
915.696	15557
915.809	15690
915.921	15660
916.034	15526
916.146	15363
916.259	15386
916.371	15443
916.483	15519
916.595	15344
916.708	15237
916.82	15272
916.932	15287
917.044	15294
917.156	15211
917.268	15176
917.38	15051
917.491	15138
917.603	15005
917.715	15241
917.826	15237
917.938	15009
918.049	15005
918.161	15047
918.272	15203
918.384	15241
918.495	15013
918.606	15017
918.717	14845
918.828	14948
918.939	14933
919.05	14868
919.161	14815
919.272	14648
919.383	14655
919.494	14944
919.604	15104
919.715	14773
919.826	14773
919.936	14902
920.047	14876
920.157	14876
920.267	15013
920.378	14914
920.488	14712
920.598	14948
920.708	15154
920.818	14979
920.928	14880
921.038	15157
921.148	15024
921.258	14781
921.368	14648
921.477	14598
921.587	14438
921.697	14495
921.806	14590
921.916	14469
922.025	14298
922.134	14259
922.244	14195
922.353	14199
922.462	14107
922.571	14081
922.68	13807
922.789	13811
922.898	13814
923.007	13788
923.116	13826
923.224	13841
923.333	13898
923.442	13662
923.55	13712
923.659	13700
923.767	13826
923.876	13613
923.984	13723
924.092	13590
924.201	13590
924.309	13594
924.417	13544
924.525	13590
924.633	13457
924.741	14275
924.849	13324
924.956	13464
925.064	13301
925.172	13156
925.279	13171
925.387	13316
925.494	13240
925.602	13438
925.709	13282
925.816	13160
925.924	13156
926.031	13293
926.138	13236
926.245	13278
926.352	13129
926.459	13244
926.566	13236
926.673	13114
926.779	13031
926.886	12985
926.993	12779
927.099	12901
927.206	12684
927.312	12707
927.419	12806
927.525	12707
927.631	12882
927.737	12684
927.843	12601
927.95	12456
928.056	12574
928.162	12547
928.267	12738
928.373	13339
928.479	12665
928.585	12502
928.69	12646
928.796	12574
928.901	12460
929.007	12418
929.112	12426
929.218	12361
929.323	12399
929.428	12292
929.533	12460
929.638	12304
929.743	12292
929.848	12365
929.953	12209
930.058	12232
930.163	12041
930.267	12079
930.372	12167
930.477	11969
930.581	12171
930.685	12076
930.79	11961
930.894	11916
930.998	11824
931.103	12083
931.207	11649
931.311	11570
931.415	11459
931.519	11383
931.623	11318
