Data from test_V78500241_273.txt Node
Date: Fri Mar 25 15:11:45 CST 2022
User: usil
Spectrometer: V785-0024
Trigger mode: 0
Integration Time (sec): 4.000000E-1
Scans to average: 1
Nonlinearity correction enabled: false
Boxcar width: 0
Storing dark spectrum: false
XAxis mode: Wavelengths
Number of Pixels in Spectrum: 1024
>>>>>Begin Spectral Data<<<<<
801.071	27835
801.214	27686
801.356	27724
801.499	27526
801.641	27351
801.783	27298
801.926	27481
802.068	27378
802.211	27321
802.353	27207
802.496	27085
802.638	27123
802.78	26944
802.923	26975
803.065	26910
803.208	26963
803.35	27020
803.492	27287
803.635	27138
803.777	27024
803.919	27096
804.061	27427
804.204	27154
804.346	27009
804.488	27135
804.63	26979
804.773	26967
804.915	27024
805.057	27173
805.199	27005
805.341	27157
805.483	27150
805.626	27169
805.768	27100
805.91	27241
806.052	27325
806.194	27157
806.336	27363
806.478	27188
806.62	27203
806.762	27466
806.904	27526
807.046	27755
807.188	27561
807.33	27488
807.472	27694
807.614	27469
807.756	27679
807.898	27435
808.04	27443
808.182	27317
808.324	27553
808.465	27530
808.607	27656
808.749	27717
808.891	27892
809.033	27956
809.174	27705
809.316	27835
809.458	27724
809.6	27865
809.741	27827
809.883	27865
810.025	28154
810.166	28055
810.308	27968
810.45	28010
810.591	27991
810.733	27793
810.875	27808
811.016	27698
811.158	27519
811.299	27892
811.441	27945
811.582	27922
811.724	27637
811.865	27641
812.007	27823
812.148	27701
812.29	27690
812.431	27911
812.573	27907
812.714	28097
812.855	28284
812.997	28291
813.138	28485
813.279	28421
813.421	28257
813.562	28169
813.703	28120
813.845	28082
813.986	27717
814.127	27667
814.268	27450
814.41	27462
814.551	27344
814.692	27450
814.833	27294
814.974	27393
815.115	27374
815.256	27260
815.397	27222
815.539	27180
815.68	27142
815.821	27062
815.962	27123
816.103	27195
816.244	27028
816.385	26952
816.526	26933
816.666	26670
816.807	26514
816.948	26716
817.089	26762
817.23	26648
817.371	26568
817.512	26545
817.653	26492
817.793	26560
817.934	26705
818.075	26568
818.216	26636
818.356	26613
818.497	26453
818.638	26176
818.778	26271
818.919	26218
819.06	26450
819.2	26412
819.341	26549
819.481	26549
819.622	26667
819.762	26861
819.903	26883
820.043	26777
820.184	26640
820.324	26712
820.465	26621
820.605	26648
820.746	26575
820.886	26503
821.026	26587
821.167	26625
821.307	26549
821.447	26412
821.588	26298
821.728	26240
821.868	26096
822.008	26065
822.149	25974
822.289	25909
822.429	25780
822.569	25582
822.709	25510
822.849	25495
822.99	25525
823.13	25491
823.27	25449
823.41	25236
823.55	25209
823.69	25362
823.83	25190
823.97	25263
824.11	25247
824.25	25008
824.389	25148
824.529	25240
824.669	25012
824.809	25263
824.949	25213
825.089	25122
825.228	25080
825.368	24928
825.508	24928
825.648	24981
825.787	25023
825.927	24996
826.067	24878
826.206	24894
826.346	25019
826.485	24951
826.625	24878
826.765	25023
826.904	24954
827.044	24715
827.183	24635
827.323	24661
827.462	24654
827.601	24631
827.741	24479
827.88	24787
828.02	24608
828.159	24570
828.298	24650
828.437	24608
828.577	24551
828.716	24726
828.855	24578
828.994	24433
829.134	24426
829.273	24353
829.412	24277
829.551	24232
829.69	24235
829.829	24304
829.968	24399
830.107	24384
830.246	24391
830.385	24152
830.524	24167
830.663	24167
830.802	24102
830.941	23874
831.08	23889
831.219	23904
831.357	24034
831.496	24254
831.635	23988
831.774	23794
831.913	23786
832.051	23748
832.19	23691
832.329	23790
832.467	23680
832.606	23524
832.744	23528
832.883	23493
833.022	23516
833.16	23600
833.299	23627
833.437	23528
833.576	23577
833.714	23680
833.852	23733
833.991	23695
834.129	23767
834.267	23764
834.406	23608
834.544	23790
834.682	23630
834.821	23653
834.959	23817
835.097	23562
835.235	23756
835.373	23657
835.511	23649
835.65	23562
835.788	23444
835.926	23258
836.064	23303
836.202	23345
836.34	23459
836.478	23547
836.615	23421
836.753	23463
836.891	23562
837.029	23425
837.167	23429
837.305	23315
837.443	23433
837.58	23341
837.718	23311
837.856	23395
837.993	23166
838.131	23337
838.269	23090
838.406	23231
838.544	23204
838.681	22968
838.819	22889
838.956	22850
839.094	22801
839.231	22801
839.369	22911
839.506	23181
839.643	22919
839.781	22809
839.918	22698
840.055	22683
840.193	22877
840.33	22554
840.467	22691
840.604	22679
840.742	22976
840.879	22561
841.016	22596
841.153	22569
841.29	22748
841.427	22683
841.564	22752
841.701	22584
841.838	22557
841.975	22599
842.112	22630
842.249	22531
842.385	22535
842.522	22615
842.659	22485
842.796	22413
842.933	22352
843.069	22413
843.206	22390
843.343	22493
843.479	22367
843.616	22557
843.752	22207
843.889	22238
844.025	22371
844.162	22135
844.298	22329
844.435	22215
844.571	22093
844.708	22105
844.844	22287
844.98	22348
845.117	22226
845.253	21918
845.389	22006
845.525	22078
845.661	22048
845.798	21937
845.934	21895
846.07	21835
846.206	22032
846.342	22082
846.478	21819
846.614	21698
846.75	21485
846.886	21507
847.022	21728
847.158	21656
847.294	21679
847.429	21747
847.565	21637
847.701	21800
847.837	21370
847.972	21317
848.108	21435
848.244	21401
848.379	21252
848.515	21310
848.65	21188
848.786	21306
848.921	21199
849.057	21340
849.192	21340
849.328	21321
849.463	21226
849.598	21241
849.734	21104
849.869	21028
850.004	20986
850.14	20967
850.275	20990
850.41	20838
850.545	20998
850.68	20937
850.815	20921
850.95	21043
851.085	21093
851.22	21089
851.355	20960
851.49	20944
851.625	20956
851.76	21013
851.895	20765
852.03	20918
852.165	20868
852.299	20872
852.434	21020
852.569	20963
852.703	20960
852.838	20918
852.973	21165
853.107	21024
853.242	20944
853.376	20716
853.511	20762
853.645	20777
853.78	20845
853.914	20762
854.048	20678
854.183	20682
854.317	20716
854.451	20944
854.585	20663
854.72	20655
854.854	20811
854.988	20727
855.122	20674
855.256	20648
855.39	20667
855.524	20845
855.658	20765
855.792	20765
855.926	20735
856.06	20762
856.194	20792
856.327	20670
856.461	20644
856.595	20689
856.729	20636
856.862	20819
856.996	20811
857.13	20883
857.263	20788
857.397	20902
857.53	20769
857.664	20777
857.797	20731
857.931	20929
858.064	20686
858.197	20777
858.331	20804
858.464	20716
858.597	20648
858.731	20701
858.864	20606
858.997	20636
859.13	20743
859.263	20724
859.396	20800
859.529	20659
859.662	20682
859.795	20727
859.928	20758
860.061	20815
860.194	20868
860.327	20838
860.46	20705
860.592	20849
860.725	20895
860.858	20708
860.99	20720
861.123	20594
861.256	20701
861.388	20773
861.521	21397
861.653	20476
861.786	20537
861.918	20735
862.05	20686
862.183	20602
862.315	20590
862.447	20804
862.58	20609
862.712	20480
862.844	20400
862.976	20404
863.108	20511
863.24	20826
863.372	20324
863.504	20393
863.636	20446
863.768	20355
863.9	20305
864.032	20419
864.164	20492
864.296	20575
864.428	20518
864.559	20454
864.691	20476
864.823	20442
864.954	20381
865.086	20339
865.217	20385
865.349	20244
865.48	20339
865.612	20343
865.743	20484
865.875	20301
866.006	20298
866.137	20275
866.269	20442
866.4	20290
866.531	20328
866.662	20256
866.793	20233
866.924	20259
867.055	20332
867.186	20351
867.317	20271
867.448	20221
867.579	20282
867.71	20229
867.841	20256
867.972	20275
868.103	20298
868.233	20229
868.364	20434
868.495	20370
868.625	20469
868.756	20648
868.886	20362
869.017	20552
869.147	20659
869.278	20659
869.408	20625
869.539	20659
869.669	20587
869.799	20587
869.929	20750
870.06	20708
870.19	20883
870.32	20864
870.45	20857
870.58	20975
870.71	21074
870.84	20994
870.97	20921
871.1	20872
871.23	21096
871.36	21192
871.489	20979
871.619	21146
871.749	21112
871.879	21192
872.008	21214
872.138	21150
872.267	21119
872.397	20960
872.526	20975
872.656	20906
872.785	20956
872.915	21249
873.044	21264
873.173	21146
873.303	21169
873.432	21275
873.561	21173
873.69	21275
873.819	21176
873.948	21226
874.077	21233
874.206	21131
874.335	21199
874.464	21291
874.593	21359
874.722	21412
874.851	21420
874.979	21481
875.108	21420
875.237	21336
875.365	21291
875.494	21340
875.623	21431
875.751	21393
875.88	21374
876.008	21504
876.136	21705
876.265	21778
876.393	21937
876.521	21804
876.65	21880
876.778	21778
876.906	21766
877.034	21762
877.162	21857
877.29	21698
877.418	21850
877.546	21728
877.674	21739
877.802	21800
877.93	21793
878.058	21648
878.185	21686
878.313	21759
878.441	21869
878.568	21686
878.696	21629
878.824	21751
878.951	21930
879.079	21899
879.206	21987
879.333	21941
879.461	21789
879.588	21953
879.715	21892
879.842	22036
879.97	21774
880.097	21599
880.224	21610
880.351	21545
880.478	21530
880.605	21660
880.732	21447
880.859	21857
880.986	21648
881.112	21564
881.239	21557
881.366	21367
881.493	21241
881.619	21188
881.746	21192
881.872	21211
881.999	21161
882.125	21154
882.252	21245
882.378	21169
882.505	21203
882.631	21001
882.757	20880
882.883	20960
883.01	20918
883.136	20815
883.262	20655
883.388	20746
883.514	20933
883.64	20773
883.766	20796
883.892	20686
884.018	20720
884.143	20804
884.269	20853
884.395	20564
884.52	20412
884.646	20537
884.772	20476
884.897	20511
885.023	20579
885.148	20701
885.274	20712
885.399	20583
885.524	20530
885.65	20507
885.775	20404
885.9	20526
886.025	20617
886.15	20712
886.275	20484
886.4	20438
886.525	20533
886.65	20343
886.775	20396
886.9	20682
887.025	20834
887.149	20606
887.274	20278
887.399	20355
887.523	20237
887.648	20111
887.773	20115
887.897	20305
888.021	20366
888.146	20206
888.27	20317
888.395	20450
888.519	20396
888.643	20313
888.767	20301
888.891	20252
889.015	19997
889.139	20138
889.263	20088
889.387	20214
889.511	20248
889.635	20263
889.759	20142
889.883	20016
890.006	20119
890.13	20164
890.254	19978
890.377	20012
890.501	19746
890.624	19738
890.748	19761
890.871	19662
890.995	19480
891.118	19693
891.241	19685
891.364	19647
891.488	19795
891.611	19594
891.734	19651
891.857	19677
891.98	19620
892.103	19552
892.226	19609
892.349	19666
892.471	19624
892.594	19571
892.717	19571
892.839	19616
892.962	19639
893.085	19784
893.207	19655
893.33	19407
893.452	19476
893.575	19578
893.697	19449
893.819	19628
893.941	19738
894.064	19765
894.186	19487
894.308	19483
894.43	19483
894.552	19761
894.674	19670
894.796	19594
894.918	19487
895.04	19537
895.161	19594
895.283	19628
895.405	19502
895.526	19586
895.648	19643
895.769	19499
895.891	19628
896.012	19750
896.134	19670
896.255	19578
896.376	19708
896.498	19628
896.619	19544
896.74	19506
896.861	19708
896.982	19906
897.103	20081
897.224	19940
897.345	19803
897.466	19826
897.587	19841
897.708	19978
897.828	19913
897.949	19738
898.07	19689
898.19	19746
898.311	19856
898.431	19791
898.552	19757
898.672	19925
898.792	19879
898.913	19742
899.033	19666
899.153	19556
899.273	19521
899.393	19521
899.513	19548
899.633	19559
899.753	19567
899.873	19499
899.993	19655
900.113	19525
900.232	19388
900.352	19506
900.472	19434
900.591	19403
900.711	19346
900.83	19236
900.95	19320
901.069	19365
901.189	19259
901.308	18977
901.427	18962
901.546	19050
901.665	18890
901.784	18909
901.904	18711
902.023	18696
902.141	18502
902.26	18498
902.379	18471
902.498	18483
902.617	18338
902.735	18448
902.854	18509
902.973	18369
903.091	18091
903.21	18030
903.328	18152
903.446	18072
903.565	17946
903.683	17942
903.801	17828
903.919	17901
904.038	17828
904.156	17767
904.274	17745
904.392	17676
904.51	17710
904.627	17668
904.745	17737
904.863	17767
904.981	17539
905.098	17376
905.216	17376
905.334	17379
905.451	17360
905.569	17235
905.686	17341
905.803	17414
905.921	17033
906.038	17280
906.155	17151
906.272	17033
906.389	17162
906.506	16866
906.623	16915
906.74	16919
906.857	16790
906.974	16782
907.091	16980
907.208	16968
907.324	16923
907.441	16774
907.557	16698
907.674	16702
907.79	16542
907.907	16622
908.023	16637
908.139	16558
908.256	16504
908.372	16519
908.488	16466
908.604	16447
908.72	16394
908.836	16379
908.952	16299
909.068	16356
909.184	16474
909.3	16329
909.415	16379
909.531	16242
909.647	16158
909.762	16021
909.878	16059
909.993	16139
910.108	16063
910.224	15998
910.339	16006
910.454	15911
910.57	15960
910.685	15861
910.8	15991
910.915	15930
911.03	15720
911.145	15564
911.259	15675
911.374	15610
911.489	15530
911.604	15534
911.718	15348
911.833	15268
911.947	15317
912.062	15104
912.176	15393
912.291	15462
912.405	15363
912.519	15500
912.633	15473
912.748	15340
912.862	15256
912.976	15138
913.09	15047
913.204	15142
913.318	15260
913.431	15222
913.545	15230
913.659	15291
913.772	15218
913.886	15055
914	15055
914.113	15024
914.226	15081
914.34	15028
914.453	14914
914.566	15001
914.68	14937
914.793	14838
914.906	14670
915.019	14613
915.132	14587
915.245	14629
915.358	14667
915.47	14514
915.583	14625
915.696	14663
915.809	14705
915.921	14800
916.034	14610
916.146	14476
916.259	14484
916.371	14598
916.483	14442
916.595	14450
916.708	14396
916.82	14492
916.932	14320
917.044	14427
917.156	14377
917.268	14176
917.38	14355
917.491	14237
917.603	14278
917.715	14328
917.826	14355
917.938	14214
918.049	14210
918.161	14138
918.272	14366
918.384	14355
918.495	14187
918.606	14016
918.717	13978
918.828	14058
918.939	14043
919.05	13959
919.161	14054
919.272	13818
919.383	13925
919.494	14020
919.604	14244
919.715	14043
919.826	13986
919.936	13982
920.047	14046
920.157	14035
920.267	14218
920.378	13925
920.488	13959
920.598	14218
920.708	14336
920.818	14195
920.928	14309
921.038	14271
921.148	14305
921.258	13967
921.368	13860
921.477	13822
921.587	13727
921.697	13624
921.806	13753
921.916	13544
922.025	13415
922.134	13373
922.244	13403
922.353	13381
922.462	13278
922.571	13118
922.68	13065
922.789	13137
922.898	13019
923.007	13000
923.116	13145
923.224	13008
923.333	12958
923.442	12935
923.55	12760
923.659	12856
923.767	13004
923.876	12810
923.984	12894
924.092	12817
924.201	12825
924.309	12867
924.417	12760
924.525	12730
924.633	12776
924.741	13510
924.849	12437
924.956	12642
925.064	12536
925.172	12536
925.279	12494
925.387	12506
925.494	12506
925.602	12502
925.709	12517
925.816	12395
925.924	12346
926.031	12494
926.138	12380
926.245	12483
926.352	12369
926.459	12399
926.566	12486
926.673	12330
926.779	12216
926.886	12239
926.993	12216
927.099	12045
927.206	12079
927.312	11999
927.419	12068
927.525	12045
927.631	12114
927.737	11920
927.843	11874
927.95	11824
928.056	11870
928.162	11897
928.267	11950
928.373	12467
928.479	11961
928.585	11661
928.69	11821
928.796	11939
928.901	11695
929.007	11627
929.112	11790
929.218	11775
929.323	11726
929.428	11630
929.533	11817
929.638	11596
929.743	11611
929.848	11657
929.953	11573
930.058	11467
930.163	11303
930.267	11387
930.372	11414
930.477	11303
930.581	11600
930.685	11311
930.79	11151
930.894	11208
930.998	11124
931.103	11364
931.207	10972
931.311	10904
931.415	10767
931.519	10546
931.623	10546
