Data from test_V78500241_1241.txt Node
Date: Fri Mar 25 15:18:29 CST 2022
User: usil
Spectrometer: V785-0024
Trigger mode: 0
Integration Time (sec): 4.000000E-1
Scans to average: 1
Nonlinearity correction enabled: false
Boxcar width: 0
Storing dark spectrum: false
XAxis mode: Wavelengths
Number of Pixels in Spectrum: 1024
>>>>>Begin Spectral Data<<<<<
801.071	28211
801.214	28063
801.356	27785
801.499	27781
801.641	27511
801.783	27755
801.926	27694
802.068	27679
802.211	27625
802.353	27545
802.496	27298
802.638	27287
802.78	27180
802.923	27192
803.065	27188
803.208	27226
803.35	27283
803.492	27359
803.635	27401
803.777	27447
803.919	27515
804.061	27823
804.204	27466
804.346	27462
804.488	27344
804.63	27504
804.773	27313
804.915	27545
805.057	27629
805.199	27614
805.341	27648
805.483	27698
805.626	27587
805.768	27408
805.91	27496
806.052	27717
806.194	27496
806.336	27857
806.478	27690
806.62	27637
806.762	27667
806.904	27823
807.046	28116
807.188	27975
807.33	27998
807.472	28162
807.614	28032
807.756	28086
807.898	27914
808.04	27766
808.182	27816
808.324	27998
808.465	28029
808.607	28124
808.749	28112
808.891	28303
809.033	28443
809.174	28322
809.316	28215
809.458	28261
809.6	28226
809.741	28367
809.883	28322
810.025	28527
810.166	28538
810.308	28588
810.45	28538
810.591	28360
810.733	28375
810.875	28367
811.016	28059
811.158	28143
811.299	28314
811.441	28401
811.582	28390
811.724	28230
811.865	28223
812.007	28230
812.148	28268
812.29	28295
812.431	28546
812.573	28645
812.714	28675
812.855	28668
812.997	28877
813.138	29117
813.279	28824
813.421	28778
813.562	28717
813.703	28584
813.845	28489
813.986	28158
814.127	28044
814.268	28147
814.41	28067
814.551	27816
814.692	28013
814.833	27907
814.974	28063
815.115	27949
815.256	27785
815.397	27934
815.539	27842
815.68	27812
815.821	27633
815.962	27759
816.103	27823
816.244	27660
816.385	27557
816.526	27504
816.666	27329
816.807	27367
816.948	27283
817.089	27397
817.23	27283
817.371	27226
817.512	27302
817.653	27230
817.793	27173
817.934	27294
818.075	27268
818.216	27291
818.356	27275
818.497	27173
818.638	27055
818.778	26762
818.919	26982
819.06	27131
819.2	27100
819.341	27279
819.481	27188
819.622	27469
819.762	27583
819.903	27496
820.043	27374
820.184	27447
820.324	27374
820.465	27332
820.605	27367
820.746	27378
820.886	27142
821.026	27275
821.167	27332
821.307	27454
821.447	27199
821.588	27283
821.728	26944
821.868	26910
822.008	26754
822.149	26800
822.289	26659
822.429	26450
822.569	26514
822.709	26412
822.849	26248
822.99	26278
823.13	26320
823.27	26271
823.41	26122
823.55	25986
823.69	26244
823.83	26107
823.97	26092
824.11	25856
824.25	25906
824.389	25826
824.529	25986
824.669	25921
824.809	26016
824.949	25822
825.089	25997
825.228	25966
825.368	25868
825.508	25841
825.648	25818
825.787	25822
825.927	25784
826.067	25670
826.206	25769
826.346	25841
826.485	25826
826.625	25822
826.765	25932
826.904	25788
827.044	25613
827.183	25487
827.323	25411
827.462	25552
827.601	25575
827.741	25605
827.88	25559
828.02	25324
828.159	25548
828.298	25529
828.437	25715
828.577	25438
828.716	25559
828.855	25445
828.994	25187
829.134	25270
829.273	25293
829.412	25278
829.551	25126
829.69	25278
829.829	25270
829.968	25236
830.107	25198
830.246	25278
830.385	25164
830.524	25103
830.663	25072
830.802	24954
830.941	24871
831.08	24859
831.219	24882
831.357	24768
831.496	25042
831.635	24692
831.774	24802
831.913	24707
832.051	24589
832.19	24627
832.329	24616
832.467	24559
832.606	24422
832.744	24403
832.883	24429
833.022	24388
833.16	24547
833.299	24441
833.437	24547
833.576	24490
833.714	24547
833.852	24623
833.991	24517
834.129	24711
834.267	24639
834.406	24483
834.544	24658
834.682	24578
834.821	24627
834.959	24753
835.097	24646
835.235	24654
835.373	24646
835.511	24544
835.65	24296
835.788	24418
835.926	24410
836.064	24190
836.202	24258
836.34	24433
836.478	24475
836.615	24361
836.753	24395
836.891	24372
837.029	24327
837.167	24369
837.305	24163
837.443	24277
837.58	24205
837.718	24403
837.856	24319
837.993	24273
838.131	24243
838.269	24152
838.406	24346
838.544	24045
838.681	24053
838.819	23927
838.956	23630
839.094	23726
839.231	23958
839.369	23908
839.506	24083
839.643	23813
839.781	23729
839.918	23611
840.055	23695
840.193	23714
840.33	23619
840.467	23779
840.604	23623
840.742	23855
840.879	23406
841.016	23562
841.153	23497
841.29	23794
841.427	23535
841.564	23771
841.701	23535
841.838	23554
841.975	23600
842.112	23436
842.249	23433
842.385	23292
842.522	23589
842.659	23471
842.796	23402
842.933	23463
843.069	23307
843.206	23337
843.343	23376
843.479	23429
843.616	23414
843.752	23242
843.889	23284
844.025	23296
844.162	23159
844.298	23269
844.435	23193
844.571	22984
844.708	23086
844.844	23360
844.98	23277
845.117	23254
845.253	23147
845.389	23048
845.525	23162
845.661	23067
845.798	22854
845.934	22946
846.07	22900
846.206	22889
846.342	22984
846.478	22831
846.614	22702
846.75	22554
846.886	22637
847.022	22694
847.158	22656
847.294	22542
847.429	22580
847.565	22630
847.701	22839
847.837	22390
847.972	22291
848.108	22428
848.244	22535
848.379	22253
848.515	22238
848.65	22230
848.786	22341
848.921	22246
849.057	22230
849.192	22363
849.328	22207
849.463	22196
849.598	22196
849.734	22204
849.869	22044
850.004	22021
850.14	22078
850.275	21975
850.41	21911
850.545	22002
850.68	21895
850.815	22036
850.95	21873
851.085	22044
851.22	22093
851.355	21949
851.49	22059
851.625	21835
851.76	21884
851.895	22025
852.03	21778
852.165	22082
852.299	21975
852.434	21968
852.569	22006
852.703	21926
852.838	21972
852.973	22070
853.107	21994
853.242	21869
853.376	21743
853.511	21663
853.645	21739
853.78	21838
853.914	21747
854.048	21736
854.183	21739
854.317	21861
854.451	22074
854.585	21652
854.72	21789
854.854	21846
854.988	21835
855.122	21842
855.256	21671
855.39	21698
855.524	21907
855.658	21827
855.792	21778
855.926	21911
856.06	21804
856.194	21816
856.327	21709
856.461	21816
856.595	21739
856.729	21739
856.862	21934
856.996	21797
857.13	21835
857.263	21823
857.397	21915
857.53	21876
857.664	21838
857.797	21793
857.931	21998
858.064	21800
858.197	21972
858.331	21876
858.464	21762
858.597	21701
858.731	21850
858.864	21660
858.997	21743
859.13	21854
859.263	21846
859.396	21785
859.529	21751
859.662	21793
859.795	21625
859.928	21747
860.061	21918
860.194	22040
860.327	21797
860.46	21880
860.592	21850
860.725	21949
860.858	21918
860.99	21698
861.123	21739
861.256	21637
861.388	21785
861.521	22485
861.653	21564
861.786	21568
861.918	21561
862.05	21629
862.183	21625
862.315	21846
862.447	21816
862.58	21724
862.712	21572
862.844	21424
862.976	21576
863.108	21595
863.24	21926
863.372	21393
863.504	21466
863.636	21439
863.768	21363
863.9	21663
864.032	21477
864.164	21428
864.296	21466
864.428	21614
864.559	21473
864.691	21656
864.823	21606
864.954	21515
865.086	21462
865.217	21397
865.349	21439
865.48	21424
865.612	21401
865.743	21557
865.875	21310
866.006	21332
866.137	21405
866.269	21287
866.4	21389
866.531	21382
866.662	21195
866.793	21268
866.924	21405
867.055	21291
867.186	21336
867.317	21249
867.448	21138
867.579	21310
867.71	21302
867.841	21173
867.972	21294
868.103	21317
868.233	21374
868.364	21420
868.495	21249
868.625	21473
868.756	21606
868.886	21473
869.017	21534
869.147	21580
869.278	21599
869.408	21462
869.539	21633
869.669	21583
869.799	21511
869.929	21705
870.06	21587
870.19	21808
870.32	21743
870.45	21903
870.58	21899
870.71	21964
870.84	22002
870.97	21941
871.1	21918
871.23	22143
871.36	22067
871.489	22010
871.619	22162
871.749	22109
871.879	22162
872.008	22265
872.138	22196
872.267	22147
872.397	22017
872.526	21842
872.656	21926
872.785	21983
872.915	22158
873.044	22287
873.173	22234
873.303	22169
873.432	22147
873.561	22234
873.69	22166
873.819	22223
873.948	22242
874.077	22169
874.206	22230
874.335	22188
874.464	22185
874.593	22440
874.722	22337
874.851	22348
874.979	22375
875.108	22447
875.237	22314
875.365	22162
875.494	22303
875.623	22504
875.751	22341
875.88	22508
876.008	22512
876.136	22497
876.265	22782
876.393	22866
876.521	22771
876.65	22755
876.778	22805
876.906	22607
877.034	22812
877.162	22710
877.29	22687
877.418	22687
877.546	22710
877.674	22729
877.802	22850
877.93	22786
878.058	22755
878.185	22527
878.313	22573
878.441	22622
878.568	22603
878.696	22546
878.824	22778
878.951	22752
879.079	22942
879.206	23113
879.333	22923
879.461	22847
879.588	23029
879.715	22873
879.842	23037
879.97	22679
880.097	22603
880.224	22561
880.351	22519
880.478	22516
880.605	22504
880.732	22447
880.859	22698
880.986	22489
881.112	22557
881.239	22386
881.366	22291
881.493	22154
881.619	22226
881.746	22143
881.872	22158
881.999	22059
882.125	22097
882.252	22105
882.378	22032
882.505	22177
882.631	22086
882.757	21789
882.883	21983
883.01	21823
883.136	21956
883.262	21732
883.388	21591
883.514	21774
883.64	21835
883.766	21603
883.892	21591
884.018	21637
884.143	21595
884.269	21701
884.395	21530
884.52	21313
884.646	21526
884.772	21329
884.897	21306
885.023	21397
885.148	21439
885.274	21675
885.399	21526
885.524	21401
885.65	21606
885.775	21397
885.9	21317
886.025	21492
886.15	21511
886.275	21355
886.4	21359
886.525	21507
886.65	21344
886.775	21207
886.9	21515
887.025	21553
887.149	21420
887.274	21317
887.399	21222
887.523	21207
887.648	21100
887.773	21020
887.897	21332
888.021	21332
888.146	21138
888.27	21275
888.395	21211
888.519	21199
888.643	21188
888.767	21329
888.891	21108
889.015	21070
889.139	21089
889.263	21028
889.387	21039
889.511	21268
889.635	21184
889.759	21062
889.883	21028
890.006	21070
890.13	21192
890.254	20914
890.377	20925
890.501	20705
890.624	20743
890.748	20830
890.871	20613
890.995	20514
891.118	20438
891.241	20617
891.364	20507
891.488	20712
891.611	20522
891.734	20537
891.857	20682
891.98	20583
892.103	20552
892.226	20602
892.349	20598
892.471	20374
892.594	20537
892.717	20476
892.839	20351
892.962	20518
893.085	20492
893.207	20431
893.33	20381
893.452	20427
893.575	20492
893.697	20396
893.819	20644
893.941	20609
894.064	20613
894.186	20450
894.308	20396
894.43	20434
894.552	20530
894.674	20537
894.796	20377
894.918	20385
895.04	20370
895.161	20476
895.283	20404
895.405	20480
895.526	20400
895.648	20438
895.769	20446
895.891	20480
896.012	20370
896.134	20549
896.255	20457
896.376	20396
896.498	20374
896.619	20457
896.74	20518
896.861	20499
896.982	20701
897.103	20902
897.224	20693
897.345	20663
897.466	20636
897.587	20590
897.708	20823
897.828	20720
897.949	20503
898.07	20552
898.19	20556
898.311	20716
898.431	20549
898.552	20518
898.672	20609
898.792	20788
898.913	20568
899.033	20522
899.153	20511
899.273	20256
899.393	20419
899.513	20415
899.633	20393
899.753	20404
899.873	20328
899.993	20374
900.113	20347
900.232	20503
900.352	20355
900.472	20271
900.591	20130
900.711	20142
900.83	20172
900.95	20275
901.069	20187
901.189	20062
901.308	19852
901.427	19731
901.546	19814
901.665	19807
901.784	19727
901.904	19582
902.023	19350
902.141	19320
902.26	19259
902.379	19339
902.498	19209
902.617	19244
902.735	19316
902.854	19217
902.973	19175
903.091	18871
903.21	18932
903.328	18966
903.446	18757
903.565	18700
903.683	18711
903.801	18582
903.919	18700
904.038	18700
904.156	18521
904.274	18506
904.392	18441
904.51	18464
904.627	18460
904.745	18563
904.863	18399
904.981	18380
905.098	18114
905.216	18163
905.334	18194
905.451	18148
905.569	18110
905.686	18102
905.803	18098
905.921	17958
906.038	18053
906.155	17969
906.272	17843
906.389	17874
906.506	17676
906.623	17722
906.74	17775
906.857	17524
906.974	17623
907.091	17756
907.208	17828
907.324	17566
907.441	17646
907.557	17566
907.674	17349
907.79	17372
907.907	17421
908.023	17433
908.139	17353
908.256	17349
908.372	17311
908.488	17265
908.604	17193
908.72	17083
908.836	17166
908.952	17067
909.068	17079
909.184	17216
909.3	17075
909.415	17109
909.531	17200
909.647	16812
909.762	16835
909.878	16698
909.993	16942
910.108	16873
910.224	16801
910.339	16725
910.454	16679
910.57	16592
910.685	16538
910.8	16839
910.915	16759
911.03	16683
911.145	16470
911.259	16417
911.374	16516
911.489	16344
911.604	16246
911.718	16188
911.833	16173
911.947	15972
912.062	15994
912.176	16124
912.291	16116
912.405	16147
912.519	16280
912.633	16265
912.748	16139
912.862	16051
912.976	16063
913.09	15812
913.204	16013
913.318	16013
913.431	16044
913.545	16078
913.659	16048
913.772	16029
913.886	15732
914	15705
914.113	15907
914.226	15816
914.34	15930
914.453	15652
914.566	15797
914.68	15690
914.793	15610
914.906	15466
915.019	15351
915.132	15302
915.245	15329
915.358	15405
915.47	15336
915.583	15329
915.696	15412
915.809	15439
915.921	15378
916.034	15306
916.146	15291
916.259	15233
916.371	15252
916.483	15306
916.595	15142
916.708	15260
916.82	15222
916.932	15146
917.044	15161
917.156	15138
917.268	14944
917.38	15104
917.491	14952
917.603	14948
917.715	15108
917.826	15146
917.938	14990
918.049	14864
918.161	15036
918.272	15043
918.384	15089
918.495	14929
918.606	14868
918.717	14731
918.828	14746
918.939	14712
919.05	14735
919.161	14750
919.272	14564
919.383	14610
919.494	14781
919.604	14876
919.715	14758
919.826	14708
919.936	14583
920.047	14830
920.157	14682
920.267	14830
920.378	14750
920.488	14667
920.598	14819
920.708	14994
920.818	14769
920.928	14796
921.038	14914
921.148	14982
921.258	14590
921.368	14621
921.477	14438
921.587	14396
921.697	14286
921.806	14377
921.916	14294
922.025	14202
922.134	14119
922.244	14062
922.353	14142
922.462	13898
922.571	13951
922.68	13753
922.789	13753
922.898	13674
923.007	13708
923.116	13746
923.224	13788
923.333	13666
923.442	13510
923.55	13529
923.659	13578
923.767	13582
923.876	13578
923.984	13597
924.092	13362
924.201	13407
924.309	13476
924.417	13403
924.525	13373
924.633	13445
924.741	14183
924.849	13308
924.956	13384
925.064	13149
925.172	13012
925.279	13156
925.387	13095
925.494	13080
925.602	13327
925.709	13194
925.816	13034
925.924	12985
926.031	13110
926.138	13008
926.245	13133
926.352	12981
926.459	13122
926.566	13129
926.673	13004
926.779	12943
926.886	12909
926.993	12734
927.099	12707
927.206	12612
927.312	12642
927.419	12707
927.525	12715
927.631	12707
927.737	12684
927.843	12566
927.95	12342
928.056	12509
928.162	12433
928.267	12544
928.373	13141
928.479	12563
928.585	12300
928.69	12521
928.796	12494
928.901	12308
929.007	12205
929.112	12388
929.218	12342
929.323	12251
929.428	12285
929.533	12334
929.638	12133
929.743	12273
929.848	12224
929.953	12220
930.058	12003
930.163	11923
930.267	11965
930.372	12038
930.477	11775
930.581	12003
930.685	11923
930.79	11832
930.894	11771
930.998	11790
931.103	11878
931.207	11596
931.311	11448
931.415	11345
931.519	11140
931.623	11147
