Data from test_V78500241_3339.txt Node
Date: Fri Mar 25 15:33:06 CST 2022
User: usil
Spectrometer: V785-0024
Trigger mode: 0
Integration Time (sec): 4.000000E-1
Scans to average: 1
Nonlinearity correction enabled: false
Boxcar width: 0
Storing dark spectrum: false
XAxis mode: Wavelengths
Number of Pixels in Spectrum: 1024
>>>>>Begin Spectral Data<<<<<
801.071	27150
801.214	27214
801.356	26948
801.499	26864
801.641	26823
801.783	26785
801.926	26712
802.068	26800
802.211	26716
802.353	26663
802.496	26503
802.638	26434
802.78	26488
802.923	26393
803.065	26461
803.208	26324
803.35	26336
803.492	26545
803.635	26552
803.777	26476
803.919	26590
804.061	26895
804.204	26640
804.346	26583
804.488	26415
804.63	26568
804.773	26541
804.915	26674
805.057	26625
805.199	26526
805.341	26602
805.483	26606
805.626	26743
805.768	26507
805.91	26598
806.052	26632
806.194	26678
806.336	26739
806.478	26587
806.62	26590
806.762	26663
806.904	26842
807.046	27081
807.188	27055
807.33	27039
807.472	27028
807.614	26899
807.756	27077
807.898	26883
808.04	26933
808.182	26826
808.324	26948
808.465	26944
808.607	27123
808.749	27230
808.891	27363
809.033	27401
809.174	27386
809.316	27131
809.458	27272
809.6	27302
809.741	27424
809.883	27386
810.025	27549
810.166	27504
810.308	27542
810.45	27420
810.591	27416
810.733	27458
810.875	27332
811.016	27180
811.158	27180
811.299	27340
811.441	27351
811.582	27416
811.724	27313
811.865	27401
812.007	27241
812.148	27226
812.29	27427
812.431	27405
812.573	27530
812.714	27690
812.855	27732
812.997	27880
813.138	27960
813.279	27823
813.421	27873
813.562	27682
813.703	27549
813.845	27473
813.986	26990
814.127	27051
814.268	26872
814.41	26975
814.551	26845
814.692	26952
814.833	26906
814.974	26819
815.115	26963
815.256	26804
815.397	26830
815.539	26613
815.68	26629
815.821	26655
815.962	26724
816.103	26689
816.244	26564
816.385	26415
816.526	26453
816.666	26248
816.807	26084
816.948	26267
817.089	26214
817.23	26180
817.371	26336
817.512	26149
817.653	26210
817.793	26130
817.934	26149
818.075	26126
818.216	26263
818.356	26145
818.497	25966
818.638	25837
818.778	25986
818.919	25887
819.06	25966
819.2	25974
819.341	26145
819.481	26020
819.622	26199
819.762	26545
819.903	26465
820.043	26191
820.184	26370
820.324	26256
820.465	26450
820.605	26412
820.746	26225
820.886	26138
821.026	26267
821.167	26221
821.307	26301
821.447	26259
821.588	26043
821.728	25909
821.868	25849
822.008	25731
822.149	25601
822.289	25597
822.429	25457
822.569	25419
822.709	25449
822.849	25118
822.99	25179
823.13	25152
823.27	25171
823.41	25004
823.55	25008
823.69	24844
823.83	24977
823.97	24829
824.11	24886
824.25	24703
824.389	24856
824.529	24837
824.669	24783
824.809	24924
824.949	24806
825.089	24817
825.228	24696
825.368	24544
825.508	24566
825.648	24582
825.787	24585
825.927	24848
826.067	24604
826.206	24570
826.346	24536
826.485	24719
826.625	24574
826.765	24802
826.904	24711
827.044	24399
827.183	24547
827.323	24292
827.462	24422
827.601	24445
827.741	24422
827.88	24410
828.02	24281
828.159	24300
828.298	24277
828.437	24357
828.577	24247
828.716	24578
828.855	24155
828.994	24072
829.134	24034
829.273	24152
829.412	24117
829.551	24053
829.69	24083
829.829	24205
829.968	24178
830.107	24224
830.246	24106
830.385	23950
830.524	24102
830.663	24003
830.802	23824
830.941	23653
831.08	23592
831.219	23760
831.357	23737
831.496	23942
831.635	23718
831.774	23589
831.913	23589
832.051	23429
832.19	23516
832.329	23368
832.467	23391
832.606	23391
832.744	23322
832.883	23292
833.022	23277
833.16	23402
833.299	23353
833.437	23360
833.576	23482
833.714	23436
833.852	23341
833.991	23444
834.129	23471
834.267	23596
834.406	23444
834.544	23505
834.682	23417
834.821	23356
834.959	23604
835.097	23429
835.235	23474
835.373	23414
835.511	23436
835.65	23235
835.788	23277
835.926	23079
836.064	23162
836.202	23159
836.34	23330
836.478	23376
836.615	23288
836.753	23353
836.891	23242
837.029	23376
837.167	23254
837.305	23326
837.443	23147
837.58	23151
837.718	23212
837.856	23151
837.993	23056
838.131	23140
838.269	23037
838.406	23143
838.544	23006
838.681	22862
838.819	22683
838.956	22603
839.094	22649
839.231	22565
839.369	22782
839.506	22854
839.643	22991
839.781	22615
839.918	22428
840.055	22611
840.193	22573
840.33	22466
840.467	22546
840.604	22672
840.742	22839
840.879	22440
841.016	22508
841.153	22421
841.29	22713
841.427	22493
841.564	22679
841.701	22504
841.838	22462
841.975	22344
842.112	22538
842.249	22466
842.385	22367
842.522	22561
842.659	22398
842.796	22299
842.933	22348
843.069	22284
843.206	22318
843.343	22421
843.479	22413
843.616	22230
843.752	22109
843.889	22124
844.025	22276
844.162	22051
844.298	22192
844.435	22101
844.571	22109
844.708	22173
844.844	22226
844.98	22238
845.117	22185
845.253	22154
845.389	21930
845.525	21956
845.661	21937
845.798	21827
845.934	21888
846.07	21819
846.206	21732
846.342	21968
846.478	21793
846.614	21648
846.75	21663
846.886	21591
847.022	21701
847.158	21603
847.294	21583
847.429	21523
847.565	21477
847.701	21823
847.837	21264
847.972	21294
848.108	21344
848.244	21291
848.379	21310
848.515	21131
848.65	21199
848.786	21135
848.921	21169
849.057	21218
849.192	21195
849.328	21260
849.463	21058
849.598	21180
849.734	21032
849.869	21051
850.004	20891
850.14	20899
850.275	20948
850.41	20891
850.545	21017
850.68	20880
850.815	20937
850.95	20864
851.085	21032
851.22	20979
851.355	20891
851.49	20971
851.625	21043
851.76	20773
851.895	20845
852.03	20895
852.165	20982
852.299	20918
852.434	21066
852.569	21024
852.703	20902
852.838	21058
852.973	21081
853.107	20952
853.242	20880
853.376	20708
853.511	20693
853.645	20640
853.78	20895
853.914	20781
854.048	20758
854.183	20826
854.317	20765
854.451	20883
854.585	20826
854.72	20746
854.854	20967
854.988	20724
855.122	20689
855.256	20583
855.39	20663
855.524	20891
855.658	20724
855.792	20838
855.926	20727
856.06	20800
856.194	20925
856.327	20701
856.461	20545
856.595	20731
856.729	20686
856.862	20845
856.996	20804
857.13	20823
857.263	20872
857.397	20792
857.53	20804
857.664	20876
857.797	20857
857.931	20785
858.064	20598
858.197	20834
858.331	20731
858.464	20697
858.597	20590
858.731	20686
858.864	20701
858.997	20720
859.13	20826
859.263	20720
859.396	20830
859.529	20731
859.662	20826
859.795	20735
859.928	20716
860.061	20876
860.194	20861
860.327	20853
860.46	20792
860.592	20925
860.725	20902
860.858	20773
860.99	20720
861.123	20648
861.256	20640
861.388	20830
861.521	21439
861.653	20613
861.786	20499
861.918	20575
862.05	20617
862.183	20708
862.315	20693
862.447	20765
862.58	20545
862.712	20606
862.844	20473
862.976	20613
863.108	20587
863.24	20990
863.372	20412
863.504	20377
863.636	20511
863.768	20552
863.9	20434
864.032	20465
864.164	20450
864.296	20606
864.428	20549
864.559	20530
864.691	20564
864.823	20511
864.954	20351
865.086	20457
865.217	20358
865.349	20252
865.48	20332
865.612	20427
865.743	20457
865.875	20339
866.006	20225
866.137	20347
866.269	20423
866.4	20248
866.531	20282
866.662	20233
866.793	20313
866.924	20233
867.055	20427
867.186	20355
867.317	20225
867.448	20301
867.579	20221
867.71	20172
867.841	20225
867.972	20347
868.103	20221
868.233	20320
868.364	20298
868.495	20389
868.625	20530
868.756	20682
868.886	20530
869.017	20575
869.147	20594
869.278	20568
869.408	20522
869.539	20556
869.669	20590
869.799	20621
869.929	20716
870.06	20705
870.19	20845
870.32	20849
870.45	20834
870.58	20944
870.71	20963
870.84	21058
870.97	20967
871.1	20933
871.23	21024
871.36	21150
871.489	21028
871.619	21093
871.749	21260
871.879	21161
872.008	21180
872.138	21199
872.267	21230
872.397	21070
872.526	20838
872.656	20937
872.785	21017
872.915	21211
873.044	21161
873.173	21176
873.303	21146
873.432	21272
873.561	21230
873.69	21291
873.819	21184
873.948	21294
874.077	21161
874.206	21127
874.335	21230
874.464	21207
874.593	21340
874.722	21359
874.851	21458
874.979	21477
875.108	21374
875.237	21416
875.365	21275
875.494	21378
875.623	21439
875.751	21306
875.88	21378
876.008	21542
876.136	21595
876.265	21838
876.393	22051
876.521	21880
876.65	21907
876.778	21835
876.906	21854
877.034	21682
877.162	21774
877.29	21778
877.418	21778
877.546	21861
877.674	21781
877.802	21785
877.93	21804
878.058	21652
878.185	21633
878.313	21641
878.441	21701
878.568	21534
878.696	21599
878.824	21816
878.951	21865
879.079	21934
879.206	22097
879.333	21949
879.461	21648
879.588	21926
879.715	21926
879.842	22006
879.97	21739
880.097	21511
880.224	21549
880.351	21698
880.478	21644
880.605	21485
880.732	21595
880.859	21934
880.986	21629
881.112	21523
881.239	21367
881.366	21397
881.493	21165
881.619	21173
881.746	21169
881.872	21249
881.999	21112
882.125	21001
882.252	21230
882.378	21074
882.505	21275
882.631	21252
882.757	20830
882.883	20979
883.01	20944
883.136	20762
883.262	20746
883.388	20758
883.514	20876
883.64	20921
883.766	20899
883.892	20552
884.018	20716
884.143	20853
884.269	20883
884.395	20560
884.52	20484
884.646	20667
884.772	20427
884.897	20415
885.023	20541
885.148	20655
885.274	20743
885.399	20708
885.524	20530
885.65	20492
885.775	20541
885.9	20541
886.025	20617
886.15	20659
886.275	20488
886.4	20393
886.525	20522
886.65	20488
886.775	20423
886.9	20716
887.025	20754
887.149	20518
887.274	20385
887.399	20328
887.523	20370
887.648	20339
887.773	20294
887.897	20233
888.021	20362
888.146	20195
888.27	20320
888.395	20324
888.519	20286
888.643	20366
888.767	20385
888.891	20233
889.015	20115
889.139	20214
889.263	20024
889.387	20229
889.511	20374
889.635	20214
889.759	20119
889.883	20069
890.006	20168
890.13	20107
890.254	20081
890.377	19970
890.501	19807
890.624	19871
890.748	19925
890.871	19727
890.995	19746
891.118	19696
891.241	19719
891.364	19655
891.488	19913
891.611	19708
891.734	19712
891.857	19849
891.98	19712
892.103	19765
892.226	19647
892.349	19609
892.471	19578
892.594	19594
892.717	19597
892.839	19605
892.962	19666
893.085	19597
893.207	19643
893.33	19400
893.452	19487
893.575	19578
893.697	19578
893.819	19742
893.941	19883
894.064	19772
894.186	19575
894.308	19605
894.43	19632
894.552	19776
894.674	19719
894.796	19438
894.918	19548
895.04	19521
895.161	19594
895.283	19658
895.405	19582
895.526	19601
895.648	19632
895.769	19643
895.891	19655
896.012	19605
896.134	19563
896.255	19609
896.376	19681
896.498	19715
896.619	19666
896.74	19529
896.861	19635
896.982	19917
897.103	19997
897.224	19769
897.345	19799
897.466	19830
897.587	19830
897.708	19890
897.828	19883
897.949	19769
898.07	19795
898.19	19761
898.311	19799
898.431	19822
898.552	19830
898.672	19887
898.792	19978
898.913	19875
899.033	19746
899.153	19681
899.273	19559
899.393	19624
899.513	19529
899.633	19567
899.753	19750
899.873	19506
899.993	19620
900.113	19563
900.232	19411
900.352	19578
900.472	19384
900.591	19312
900.711	19403
900.83	19297
900.95	19434
901.069	19369
901.189	19183
901.308	19050
901.427	18863
901.546	18958
901.665	18924
901.784	18951
901.904	18791
902.023	18795
902.141	18506
902.26	18578
902.379	18559
902.498	18467
902.617	18460
902.735	18490
902.854	18525
902.973	18380
903.091	18243
903.21	18125
903.328	18224
903.446	18053
903.565	18053
903.683	17999
903.801	17874
903.919	17904
904.038	17980
904.156	17710
904.274	17882
904.392	17638
904.51	17790
904.627	17600
904.745	17863
904.863	17783
904.981	17421
905.098	17387
905.216	17383
905.334	17406
905.451	17471
905.569	17493
905.686	17387
905.803	17322
905.921	17151
906.038	17254
906.155	17311
906.272	17185
906.389	17048
906.506	16946
906.623	16927
906.74	16995
906.857	16816
906.974	16900
907.091	17041
907.208	16995
907.324	16911
907.441	16828
907.557	16630
907.674	16733
907.79	16649
907.907	16725
908.023	16637
908.139	16702
908.256	16675
908.372	16603
908.488	16497
908.604	16535
908.72	16352
908.836	16413
908.952	16337
909.068	16424
909.184	16500
909.3	16363
909.415	16409
909.531	16371
909.647	16177
909.762	16101
909.878	15994
909.993	16150
910.108	16059
910.224	16135
910.339	16063
910.454	16036
910.57	16082
910.685	15846
910.8	16200
910.915	16029
911.03	15930
911.145	15800
911.259	15698
911.374	15785
911.489	15663
911.604	15679
911.718	15462
911.833	15511
911.947	15416
912.062	15370
912.176	15488
912.291	15545
912.405	15389
912.519	15637
912.633	15652
912.748	15473
912.862	15408
912.976	15329
913.09	15154
913.204	15211
913.318	15252
913.431	15367
913.545	15313
913.659	15374
913.772	15222
913.886	15245
914	15100
914.113	15249
914.226	15237
914.34	15165
914.453	14910
914.566	15180
914.68	15039
914.793	14956
914.906	14811
915.019	14697
915.132	14663
915.245	14727
915.358	14720
915.47	14594
915.583	14651
915.696	14769
915.809	14811
915.921	14941
916.034	14518
916.146	14602
916.259	14537
916.371	14712
916.483	14743
916.595	14579
916.708	14552
916.82	14541
916.932	14579
917.044	14438
917.156	14480
917.268	14339
917.38	14370
917.491	14324
917.603	14427
917.715	14476
917.826	14499
917.938	14301
918.049	14214
918.161	14370
918.272	14400
918.384	14438
918.495	14229
918.606	14206
918.717	14016
918.828	14187
918.939	14164
919.05	14111
919.161	14195
919.272	13887
919.383	13963
919.494	14126
919.604	14298
919.715	14073
919.826	14050
919.936	14119
920.047	14172
920.157	14126
920.267	14385
920.378	14180
920.488	14096
920.598	14218
920.708	14438
920.818	14320
920.928	14229
921.038	14446
921.148	14328
921.258	14084
921.368	14043
921.477	13917
921.587	13837
921.697	13761
921.806	13841
921.916	13784
922.025	13537
922.134	13506
922.244	13453
922.353	13601
922.462	13331
922.571	13304
922.68	13240
922.789	13244
922.898	13228
923.007	13152
923.116	13228
923.224	13156
923.333	13114
923.442	12966
923.55	12996
923.659	13072
923.767	13088
923.876	12966
923.984	13050
924.092	12867
924.201	12973
924.309	12871
924.417	12878
924.525	12837
924.633	12783
924.741	13864
924.849	12658
924.956	12760
925.064	12608
925.172	12585
925.279	12574
925.387	12654
925.494	12544
925.602	12696
925.709	12692
925.816	12467
925.924	12532
926.031	12696
926.138	12551
926.245	12517
926.352	12498
926.459	12585
926.566	12707
926.673	12528
926.779	12380
926.886	12319
926.993	12175
927.099	12243
927.206	12167
927.312	12186
927.419	12239
927.525	12209
927.631	12171
927.737	12049
927.843	12053
927.95	11916
928.056	12015
928.162	12003
928.267	12106
928.373	12574
928.479	12045
928.585	11923
928.69	11923
928.796	12011
928.901	11866
929.007	11668
929.112	11748
929.218	11779
929.323	11817
929.428	11863
929.533	11935
929.638	11707
929.743	11714
929.848	11710
929.953	11684
930.058	11585
930.163	11433
930.267	11436
930.372	11562
930.477	11436
930.581	11558
930.685	11482
930.79	11273
930.894	11448
930.998	11353
931.103	11433
931.207	11117
931.311	10930
931.415	10904
931.519	10733
931.623	10668
