Data from test_V78500241_2183.txt Node
Date: Fri Mar 25 15:25:03 CST 2022
User: usil
Spectrometer: V785-0024
Trigger mode: 0
Integration Time (sec): 4.000000E-1
Scans to average: 1
Nonlinearity correction enabled: false
Boxcar width: 0
Storing dark spectrum: false
XAxis mode: Wavelengths
Number of Pixels in Spectrum: 1024
>>>>>Begin Spectral Data<<<<<
801.071	27759
801.214	27762
801.356	27454
801.499	27481
801.641	27226
801.783	27294
801.926	27416
802.068	27207
802.211	27264
802.353	27184
802.496	26883
802.638	26994
802.78	26815
802.923	26750
803.065	26800
803.208	26883
803.35	26918
803.492	27005
803.635	27047
803.777	26944
803.919	27138
804.061	27317
804.204	27074
804.346	27116
804.488	27100
804.63	27066
804.773	26929
804.915	27146
805.057	27249
805.199	27077
805.341	27077
805.483	27199
805.626	27142
805.768	27157
805.91	27306
806.052	27203
806.194	27218
806.336	27477
806.478	27214
806.62	27104
806.762	27488
806.904	27439
807.046	27603
807.188	27690
807.33	27606
807.472	27709
807.614	27412
807.756	27599
807.898	27424
808.04	27462
808.182	27454
808.324	27431
808.465	27675
808.607	27755
808.749	27880
808.891	28070
809.033	27956
809.174	27903
809.316	27865
809.458	27812
809.6	27793
809.741	27861
809.883	28032
810.025	28158
810.166	28177
810.308	28059
810.45	27972
810.591	27983
810.733	27819
810.875	27778
811.016	27682
811.158	27682
811.299	27975
811.441	28032
811.582	28112
811.724	27728
811.865	27816
812.007	27823
812.148	27831
812.29	27873
812.431	28036
812.573	28223
812.714	28234
812.855	28470
812.997	28417
813.138	28527
813.279	28557
813.421	28413
813.562	28344
813.703	28090
813.845	28051
813.986	27842
814.127	27591
814.268	27564
814.41	27553
814.551	27458
814.692	27660
814.833	27397
814.974	27378
815.115	27538
815.256	27367
815.397	27321
815.539	27386
815.68	27329
815.821	27188
815.962	27264
816.103	27188
816.244	27146
816.385	27077
816.526	26944
816.666	26918
816.807	26739
816.948	26804
817.089	26952
817.23	26663
817.371	26674
817.512	26708
817.653	26651
817.793	26708
817.934	26815
818.075	26796
818.216	26826
818.356	26598
818.497	26682
818.638	26594
818.778	26438
818.919	26568
819.06	26590
819.2	26849
819.341	26819
819.481	26739
819.622	26948
819.762	27096
819.903	26982
820.043	26986
820.184	26937
820.324	26853
820.465	26849
820.605	26876
820.746	26845
820.886	26765
821.026	26758
821.167	26811
821.307	26929
821.447	26716
821.588	26644
821.728	26541
821.868	26526
822.008	26309
822.149	26161
822.289	26077
822.429	25986
822.569	25993
822.709	25856
822.849	25769
822.99	25742
823.13	25753
823.27	25582
823.41	25632
823.55	25358
823.69	25582
823.83	25670
823.97	25468
824.11	25331
824.25	25468
824.389	25384
824.529	25426
824.669	25400
824.809	25499
824.949	25571
825.089	25540
825.228	25244
825.368	25156
825.508	25255
825.648	25232
825.787	25266
825.927	25240
826.067	25148
826.206	25156
826.346	25411
826.485	25194
826.625	25251
826.765	25228
826.904	25320
827.044	24989
827.183	25088
827.323	24871
827.462	25110
827.601	24939
827.741	24928
827.88	24954
828.02	24894
828.159	24935
828.298	24920
828.437	24996
828.577	24871
828.716	24947
828.855	24863
828.994	24707
829.134	24612
829.273	24677
829.412	24635
829.551	24570
829.69	24635
829.829	24669
829.968	24658
830.107	24779
830.246	24650
830.385	24585
830.524	24528
830.663	24464
830.802	24369
830.941	24350
831.08	24296
831.219	24319
831.357	24350
831.496	24532
831.635	24277
831.774	24258
831.913	24178
832.051	24152
832.19	23980
832.329	24091
832.467	23889
832.606	23893
832.744	23824
832.883	24022
833.022	23847
833.16	23950
833.299	23893
833.437	23916
833.576	24060
833.714	24015
833.852	24049
833.991	24007
834.129	24068
834.267	24045
834.406	24007
834.544	24041
834.682	23958
834.821	23942
834.959	24163
835.097	23885
835.235	23965
835.373	24034
835.511	24007
835.65	23824
835.788	23813
835.926	23703
836.064	23535
836.202	23646
836.34	23954
836.478	23729
836.615	23745
836.753	23863
836.891	23935
837.029	23805
837.167	23646
837.305	23539
837.443	23646
837.58	23611
837.718	23733
837.856	23707
837.993	23573
838.131	23551
838.269	23558
838.406	23676
838.544	23425
838.681	23288
838.819	23223
838.956	23132
839.094	23109
839.231	23109
839.369	23239
839.506	23425
839.643	23398
839.781	23208
839.918	23018
840.055	23151
840.193	23056
840.33	23056
840.467	22957
840.604	23117
840.742	23174
840.879	22946
841.016	22946
841.153	22915
841.29	23231
841.427	23025
841.564	22942
841.701	22984
841.838	22919
841.975	23006
842.112	22854
842.249	22839
842.385	22683
842.522	23075
842.659	22816
842.796	22664
842.933	22778
843.069	22615
843.206	22698
843.343	22771
843.479	22828
843.616	22740
843.752	22573
843.889	22550
844.025	22771
844.162	22599
844.298	22596
844.435	22702
844.571	22538
844.708	22462
844.844	22618
844.98	22710
845.117	22675
845.253	22428
845.389	22493
845.525	22561
845.661	22432
845.798	22253
845.934	22337
846.07	22272
846.206	22257
846.342	22428
846.478	22356
846.614	22093
846.75	22074
846.886	21937
847.022	22185
847.158	21994
847.294	21915
847.429	22135
847.565	22090
847.701	22204
847.837	21698
847.972	21713
848.108	21850
848.244	21861
848.379	21610
848.515	21671
848.65	21549
848.786	21686
848.921	21504
849.057	21675
849.192	21660
849.328	21633
849.463	21599
849.598	21454
849.734	21545
849.869	21488
850.004	21344
850.14	21492
850.275	21256
850.41	21283
850.545	21420
850.68	21332
850.815	21351
850.95	21416
851.085	21370
851.22	21553
851.355	21382
851.49	21310
851.625	21401
851.76	21374
851.895	21264
852.03	21302
852.165	21264
852.299	21428
852.434	21496
852.569	21561
852.703	21412
852.838	21477
852.973	21534
853.107	21580
853.242	21325
853.376	21154
853.511	21074
853.645	21211
853.78	21279
853.914	21192
854.048	21214
854.183	21066
854.317	21161
854.451	21431
854.585	21119
854.72	21249
854.854	21321
854.988	21112
855.122	21146
855.256	21024
855.39	21306
855.524	21298
855.658	21344
855.792	21169
855.926	21135
856.06	21237
856.194	21321
856.327	21192
856.461	21176
856.595	21154
856.729	21146
856.862	21340
856.996	21321
857.13	21302
857.263	21321
857.397	21329
857.53	21321
857.664	21119
857.797	21203
857.931	21325
858.064	21226
858.197	21431
858.331	21256
858.464	21051
858.597	21142
858.731	21230
858.864	21184
858.997	21146
859.13	21226
859.263	21165
859.396	21332
859.529	21108
859.662	21218
859.795	21252
859.928	21233
860.061	21252
860.194	21405
860.327	21310
860.46	21184
860.592	21412
860.725	21386
860.858	21310
860.99	21317
861.123	21100
861.256	21070
861.388	21237
861.521	21835
861.653	21043
861.786	20971
861.918	20982
862.05	21070
862.183	21138
862.315	21154
862.447	21264
862.58	21237
862.712	21005
862.844	20941
862.976	21020
863.108	20971
863.24	21252
863.372	20910
863.504	20887
863.636	20826
863.768	20971
863.9	21017
864.032	20906
864.164	20807
864.296	20937
864.428	21058
864.559	20994
864.691	20902
864.823	20811
864.954	20979
865.086	20845
865.217	20788
865.349	20731
865.48	20811
865.612	20891
865.743	20910
865.875	20937
866.006	20769
866.137	20849
866.269	20800
866.4	20788
866.531	20746
866.662	20731
866.793	20826
866.924	20792
867.055	20826
867.186	20720
867.317	20689
867.448	20682
867.579	20708
867.71	20663
867.841	20716
867.972	20823
868.103	20693
868.233	20792
868.364	20781
868.495	20796
868.625	20956
868.756	21096
868.886	21001
869.017	20941
869.147	21207
869.278	21131
869.408	20998
869.539	20956
869.669	21116
869.799	21009
869.929	21214
870.06	21142
870.19	21214
870.32	21264
870.45	21302
870.58	21370
870.71	21435
870.84	21424
870.97	21359
871.1	21439
871.23	21500
871.36	21660
871.489	21469
871.619	21549
871.749	21534
871.879	21519
872.008	21728
872.138	21553
872.267	21568
872.397	21500
872.526	21473
872.656	21408
872.785	21420
872.915	21500
873.044	21739
873.173	21606
873.303	21724
873.432	21736
873.561	21720
873.69	21705
873.819	21564
873.948	21751
874.077	21629
874.206	21583
874.335	21641
874.464	21717
874.593	21945
874.722	21759
874.851	21819
874.979	21827
875.108	21816
875.237	21880
875.365	21808
875.494	21812
875.623	21808
875.751	21850
875.88	21861
876.008	21968
876.136	21983
876.265	22219
876.393	22318
876.521	22291
876.65	22333
876.778	22234
876.906	22249
877.034	22093
877.162	22230
877.29	22181
877.418	22067
877.546	22238
877.674	22215
877.802	22196
877.93	22253
878.058	22169
878.185	22070
878.313	22185
878.441	22109
878.568	21937
878.696	22120
878.824	22204
878.951	22131
879.079	22371
879.206	22462
879.333	22306
879.461	22169
879.588	22287
879.715	22272
879.842	22367
879.97	22215
880.097	22040
880.224	21941
880.351	22044
880.478	22044
880.605	22002
880.732	21991
880.859	22272
880.986	22006
881.112	22093
881.239	21797
881.366	21846
881.493	21671
881.619	21603
881.746	21641
881.872	21447
881.999	21530
882.125	21580
882.252	21530
882.378	21599
882.505	21698
882.631	21443
882.757	21294
882.883	21287
883.01	21176
883.136	21348
883.262	21142
883.388	21157
883.514	21260
883.64	21370
883.766	21249
883.892	21036
884.018	21104
884.143	21268
884.269	21374
884.395	20921
884.52	20979
884.646	21070
884.772	20853
884.897	20876
885.023	20933
885.148	20990
885.274	21119
885.399	21108
885.524	20941
885.65	20834
885.775	20929
885.9	20902
886.025	20975
886.15	20982
886.275	20796
886.4	20899
886.525	20823
886.65	20971
886.775	20758
886.9	20998
887.025	21070
887.149	20872
887.274	20674
887.399	20682
887.523	20693
887.648	20693
887.773	20594
887.897	20720
888.021	20727
888.146	20667
888.27	20735
888.395	20754
888.519	20750
888.643	20762
888.767	20834
888.891	20552
889.015	20488
889.139	20602
889.263	20461
889.387	20594
889.511	20651
889.635	20663
889.759	20484
889.883	20454
890.006	20480
890.13	20499
890.254	20545
890.377	20347
890.501	20256
890.624	20248
890.748	20214
890.871	20214
890.995	20039
891.118	19986
891.241	20157
891.364	20039
891.488	20221
891.611	20122
891.734	20069
891.857	20142
891.98	20008
892.103	20088
892.226	20069
892.349	20020
892.471	19925
892.594	20069
892.717	19947
892.839	19970
892.962	19978
893.085	20008
893.207	20031
893.33	19887
893.452	19936
893.575	20016
893.697	19932
893.819	20062
893.941	20221
894.064	20111
894.186	19852
894.308	19849
894.43	19993
894.552	20107
894.674	20138
894.796	19879
894.918	20103
895.04	19906
895.161	20119
895.283	20058
895.405	19986
895.526	19955
895.648	19967
895.769	20077
895.891	19993
896.012	20024
896.134	20065
896.255	20039
896.376	20065
896.498	20005
896.619	19898
896.74	19982
896.861	20119
896.982	20221
897.103	20503
897.224	20263
897.345	20176
897.466	20084
897.587	20161
897.708	20408
897.828	20278
897.949	20142
898.07	19925
898.19	20153
898.311	20362
898.431	20290
898.552	20324
898.672	20271
898.792	20191
898.913	20221
899.033	20031
899.153	20062
899.273	19837
899.393	19959
899.513	19982
899.633	19947
899.753	19967
899.873	19890
899.993	19928
900.113	19944
900.232	20077
900.352	19967
900.472	19830
900.591	19719
900.711	19761
900.83	19655
900.95	19784
901.069	19693
901.189	19624
901.308	19411
901.427	19350
901.546	19316
901.665	19324
901.784	19221
901.904	19168
902.023	19129
902.141	18970
902.26	18764
902.379	18913
902.498	18882
902.617	18882
902.735	18901
902.854	18825
902.973	18768
903.091	18498
903.21	18483
903.328	18589
903.446	18414
903.565	18445
903.683	18311
903.801	18163
903.919	18190
904.038	18262
904.156	18174
904.274	18228
904.392	18114
904.51	17961
904.627	18091
904.745	18068
904.863	18110
904.981	17901
905.098	17699
905.216	17805
905.334	17783
905.451	17729
905.569	17649
905.686	17733
905.803	17615
905.921	17547
906.038	17615
906.155	17532
906.272	17406
906.389	17452
906.506	17277
906.623	17269
906.74	17265
906.857	17151
906.974	17197
907.091	17360
907.208	17425
907.324	17349
907.441	17231
907.557	17048
907.674	16968
907.79	17056
907.907	17037
908.023	16957
908.139	17010
908.256	16858
908.372	16896
908.488	16767
908.604	16786
908.72	16694
908.836	16653
908.952	16634
909.068	16763
909.184	16752
909.3	16706
909.415	16778
909.531	16679
909.647	16436
909.762	16466
909.878	16436
909.993	16451
910.108	16367
910.224	16398
910.339	16382
910.454	16242
910.57	16268
910.685	16143
910.8	16363
910.915	16329
911.03	16135
911.145	16086
911.259	15987
911.374	16010
911.489	15991
911.604	15884
911.718	15812
911.833	15854
911.947	15682
912.062	15504
912.176	15736
912.291	15724
912.405	15679
912.519	15884
912.633	15960
912.748	15759
912.862	15698
912.976	15519
913.09	15542
913.204	15587
913.318	15599
913.431	15675
913.545	15599
913.659	15644
913.772	15584
913.886	15496
914	15348
914.113	15485
914.226	15511
914.34	15496
914.453	15291
914.566	15336
914.68	15279
914.793	15123
914.906	15062
915.019	14975
915.132	14944
915.245	14914
915.358	14967
915.47	14944
915.583	15036
915.696	14979
915.809	14963
915.921	15077
916.034	14990
916.146	14918
916.259	14800
916.371	14998
916.483	14933
916.595	14853
916.708	14807
916.82	14811
916.932	14800
917.044	14804
917.156	14743
917.268	14731
917.38	14670
917.491	14686
917.603	14610
917.715	14697
917.826	14724
917.938	14541
918.049	14374
918.161	14587
918.272	14735
918.384	14636
918.495	14598
918.606	14488
918.717	14370
918.828	14438
918.939	14434
919.05	14351
919.161	14377
919.272	14256
919.383	14119
919.494	14530
919.604	14632
919.715	14358
919.826	14309
919.936	14408
920.047	14469
920.157	14370
920.267	14621
920.378	14317
920.488	14244
920.598	14522
920.708	14708
920.818	14545
920.928	14507
921.038	14659
921.148	14598
921.258	14275
921.368	14237
921.477	14111
921.587	14043
921.697	13944
921.806	14039
921.916	13921
922.025	13784
922.134	13666
922.244	13685
922.353	13860
922.462	13651
922.571	13597
922.68	13518
922.789	13304
922.898	13392
923.007	13396
923.116	13381
923.224	13381
923.333	13331
923.442	13301
923.55	13110
923.659	13331
923.767	13350
923.876	13187
923.984	13194
924.092	13133
924.201	13152
924.309	13141
924.417	13099
924.525	13069
924.633	13110
924.741	13833
924.849	12890
924.956	13080
925.064	12867
925.172	12810
925.279	12795
925.387	12821
925.494	12821
925.602	12932
925.709	12939
925.816	12692
925.924	12753
926.031	12897
926.138	12711
926.245	12681
926.352	12677
926.459	12821
926.566	12814
926.673	12741
926.779	12597
926.886	12597
926.993	12483
927.099	12372
927.206	12361
927.312	12410
927.419	12433
927.525	12376
927.631	12372
927.737	12262
927.843	12247
927.95	12110
928.056	12235
928.162	12254
928.267	12220
928.373	12852
928.479	12304
928.585	12057
928.69	12163
928.796	12186
928.901	12098
929.007	11984
929.112	12140
929.218	12057
929.323	12038
929.428	12007
929.533	12106
929.638	11859
929.743	11954
929.848	11901
929.953	11908
930.058	11737
930.163	11581
930.267	11604
930.372	11817
930.477	11577
930.581	11821
930.685	11668
930.79	11493
930.894	11573
930.998	11512
931.103	11581
931.207	11261
931.311	11235
931.415	11113
931.519	10885
931.623	10885
