Data from test_V78500241_2611.txt Node
Date: Fri Mar 25 15:28:02 CST 2022
User: usil
Spectrometer: V785-0024
Trigger mode: 0
Integration Time (sec): 4.000000E-1
Scans to average: 1
Nonlinearity correction enabled: false
Boxcar width: 0
Storing dark spectrum: false
XAxis mode: Wavelengths
Number of Pixels in Spectrum: 1024
>>>>>Begin Spectral Data<<<<<
801.071	27195
801.214	27051
801.356	26895
801.499	26929
801.641	26781
801.783	26530
801.926	26712
802.068	26842
802.211	26568
802.353	26587
802.496	26488
802.638	26427
802.78	26233
802.923	26362
803.065	26096
803.208	26229
803.35	26362
803.492	26393
803.635	26552
803.777	26442
803.919	26522
804.061	26758
804.204	26511
804.346	26450
804.488	26393
804.63	26545
804.773	26457
804.915	26419
805.057	26541
805.199	26427
805.341	26537
805.483	26640
805.626	26511
805.768	26632
805.91	26526
806.052	26609
806.194	26587
806.336	26621
806.478	26644
806.62	26556
806.762	26701
806.904	26876
807.046	27142
807.188	27036
807.33	26948
807.472	27047
807.614	26929
807.756	26929
807.898	26727
808.04	26811
808.182	26823
808.324	26925
808.465	26724
808.607	27093
808.749	27074
808.891	27321
809.033	27287
809.174	27214
809.316	27074
809.458	27268
809.6	27211
809.741	27393
809.883	27344
810.025	27488
810.166	27526
810.308	27564
810.45	27188
810.591	27298
810.733	27112
810.875	27169
811.016	27039
811.158	27154
811.299	27264
811.441	27367
811.582	27515
811.724	27218
811.865	27127
812.007	27074
812.148	27108
812.29	27108
812.431	27386
812.573	27336
812.714	27603
812.855	27530
812.997	27728
813.138	27914
813.279	27622
813.421	27644
813.562	27637
813.703	27416
813.845	27370
813.986	27051
814.127	26902
814.268	26800
814.41	26796
814.551	26823
814.692	26895
814.833	26785
814.974	26712
815.115	26864
815.256	26758
815.397	26781
815.539	26648
815.68	26545
815.821	26693
815.962	26583
816.103	26587
816.244	26396
816.385	26492
816.526	26434
816.666	26115
816.807	26020
816.948	26096
817.089	26122
817.23	26202
817.371	26050
817.512	26111
817.653	26031
817.793	25997
817.934	26012
818.075	25974
818.216	26077
818.356	26111
818.497	26046
818.638	25814
818.778	25826
818.919	25887
819.06	25765
819.2	25944
819.341	26008
819.481	26062
819.622	26210
819.762	26366
819.903	26362
820.043	26206
820.184	26267
820.324	26088
820.465	26237
820.605	26259
820.746	26122
820.886	26054
821.026	26069
821.167	26164
821.307	26221
821.447	26096
821.588	25921
821.728	25875
821.868	25704
822.008	25655
822.149	25567
822.289	25571
822.429	25232
822.569	25304
822.709	25209
822.849	25088
822.99	25148
823.13	24958
823.27	24958
823.41	24909
823.55	24806
823.69	24935
823.83	24875
823.97	24700
824.11	24696
824.25	24601
824.389	24696
824.529	24890
824.669	24665
824.809	24825
824.949	24787
825.089	24658
825.228	24703
825.368	24521
825.508	24513
825.648	24426
825.787	24620
825.927	24589
826.067	24505
826.206	24532
826.346	24555
826.485	24623
826.625	24566
826.765	24612
826.904	24681
827.044	24323
827.183	24296
827.323	24270
827.462	24334
827.601	24254
827.741	24319
827.88	24243
828.02	24194
828.159	24220
828.298	24258
828.437	24357
828.577	24136
828.716	24418
828.855	24110
828.994	23946
829.134	24072
829.273	24057
829.412	24007
829.551	23912
829.69	23965
829.829	23984
829.968	24076
830.107	24087
830.246	23996
830.385	23939
830.524	23813
830.663	23661
830.802	23726
830.941	23535
831.08	23604
831.219	23646
831.357	23710
831.496	23775
831.635	23558
831.774	23414
831.913	23482
832.051	23395
832.19	23387
832.329	23356
832.467	23261
832.606	23326
832.744	23261
832.883	23284
833.022	23197
833.16	23204
833.299	23292
833.437	23429
833.576	23303
833.714	23280
833.852	23303
833.991	23372
834.129	23406
834.267	23421
834.406	23330
834.544	23395
834.682	23353
834.821	23414
834.959	23467
835.097	23277
835.235	23318
835.373	23368
835.511	23364
835.65	23216
835.788	23223
835.926	23227
836.064	23010
836.202	23102
836.34	23315
836.478	23296
836.615	23102
836.753	23220
836.891	23261
837.029	23250
837.167	23185
837.305	23098
837.443	23086
837.58	23006
837.718	23041
837.856	22942
837.993	23025
838.131	23052
838.269	22965
838.406	22957
838.544	22850
838.681	22675
838.819	22778
838.956	22375
839.094	22573
839.231	22634
839.369	22733
839.506	22953
839.643	22786
839.781	22500
839.918	22527
840.055	22470
840.193	22577
840.33	22440
840.467	22497
840.604	22508
840.742	22820
840.879	22455
841.016	22459
841.153	22272
841.29	22542
841.427	22226
841.564	22462
841.701	22409
841.838	22348
841.975	22344
842.112	22485
842.249	22489
842.385	22356
842.522	22546
842.659	22386
842.796	22215
842.933	22158
843.069	22135
843.206	22124
843.343	22322
843.479	22063
843.616	22207
843.752	22055
843.889	22013
844.025	22116
844.162	22040
844.298	22078
844.435	22048
844.571	21937
844.708	22051
844.844	22207
844.98	22017
845.117	22017
845.253	21827
845.389	21907
845.525	21854
845.661	21873
845.798	21842
845.934	21812
846.07	21686
846.206	21816
846.342	21835
846.478	21629
846.614	21504
846.75	21378
846.886	21370
847.022	21526
847.158	21553
847.294	21370
847.429	21431
847.565	21504
847.701	21751
847.837	21150
847.972	21169
848.108	21291
848.244	21241
848.379	21051
848.515	21039
848.65	20967
848.786	20998
848.921	21180
849.057	21131
849.192	21161
849.328	21013
849.463	21096
849.598	21058
849.734	20975
849.869	20819
850.004	20826
850.14	20819
850.275	20823
850.41	20727
850.545	20785
850.68	20758
850.815	20807
850.95	20720
851.085	21036
851.22	20902
851.355	20804
851.49	20746
851.625	20864
851.76	20788
851.895	20674
852.03	20777
852.165	20937
852.299	20937
852.434	20842
852.569	20788
852.703	20750
852.838	20887
852.973	20967
853.107	20948
853.242	20895
853.376	20621
853.511	20602
853.645	20606
853.78	20792
853.914	20632
854.048	20560
854.183	20697
854.317	20746
854.451	20914
854.585	20716
854.72	20674
854.854	20743
854.988	20514
855.122	20674
855.256	20541
855.39	20648
855.524	20746
855.658	20682
855.792	20632
855.926	20701
856.06	20678
856.194	20754
856.327	20568
856.461	20560
856.595	20651
856.729	20575
856.862	20682
856.996	20659
857.13	20659
857.263	20804
857.397	20617
857.53	20655
857.664	20590
857.797	20682
857.931	20724
858.064	20701
858.197	20762
858.331	20655
858.464	20594
858.597	20594
858.731	20670
858.864	20609
858.997	20682
859.13	20552
859.263	20670
859.396	20663
859.529	20758
859.662	20598
859.795	20602
859.928	20689
860.061	20667
860.194	20727
860.327	20655
860.46	20693
860.592	20853
860.725	20800
860.858	20746
860.99	20590
861.123	20575
861.256	20499
861.388	20549
861.521	21260
861.653	20549
861.786	20499
861.918	20541
862.05	20473
862.183	20575
862.315	20598
862.447	20575
862.58	20583
862.712	20309
862.844	20286
862.976	20442
863.108	20381
863.24	20845
863.372	20347
863.504	20294
863.636	20351
863.768	20431
863.9	20381
864.032	20343
864.164	20454
864.296	20450
864.428	20552
864.559	20454
864.691	20415
864.823	20362
864.954	20362
865.086	20370
865.217	20336
865.349	20130
865.48	20130
865.612	20240
865.743	20381
865.875	20259
866.006	20252
866.137	20343
866.269	20195
866.4	20225
866.531	20233
866.662	20103
866.793	20301
866.924	20081
867.055	20267
867.186	20233
867.317	20195
867.448	20161
867.579	20206
867.71	20081
867.841	20172
867.972	20130
868.103	20294
868.233	20218
868.364	20073
868.495	20320
868.625	20419
868.756	20514
868.886	20450
869.017	20381
869.147	20655
869.278	20651
869.408	20434
869.539	20415
869.669	20537
869.799	20575
869.929	20537
870.06	20594
870.19	20708
870.32	20746
870.45	20777
870.58	20887
870.71	20960
870.84	21001
870.97	20842
871.1	20872
871.23	20948
871.36	21055
871.489	20872
871.619	20906
871.749	21036
871.879	21093
872.008	21256
872.138	21047
872.267	20948
872.397	20952
872.526	20895
872.656	20895
872.785	20788
872.915	21138
873.044	21154
873.173	21108
873.303	21157
873.432	21081
873.561	21180
873.69	21150
873.819	21024
873.948	21161
874.077	21005
874.206	21077
874.335	21036
874.464	21192
874.593	21230
874.722	21188
874.851	21233
874.979	21336
875.108	21412
875.237	21359
875.365	21313
875.494	21313
875.623	21382
875.751	21249
875.88	21382
876.008	21458
876.136	21625
876.265	21827
876.393	21876
876.521	21755
876.65	21831
876.778	21671
876.906	21667
877.034	21656
877.162	21774
877.29	21644
877.418	21690
877.546	21781
877.674	21728
877.802	21694
877.93	21732
878.058	21591
878.185	21511
878.313	21667
878.441	21724
878.568	21488
878.696	21610
878.824	21660
878.951	21679
879.079	21850
879.206	21975
879.333	21800
879.461	21800
879.588	21816
879.715	21762
879.842	22013
879.97	21774
880.097	21542
880.224	21458
880.351	21530
880.478	21610
880.605	21428
880.732	21477
880.859	21804
880.986	21439
881.112	21557
881.239	21382
881.366	21332
881.493	21176
881.619	21062
881.746	20994
881.872	21070
881.999	21112
882.125	20979
882.252	21058
882.378	21104
882.505	21108
882.631	20933
882.757	20842
882.883	20975
883.01	20785
883.136	20724
883.262	20636
883.388	20632
883.514	20883
883.64	20712
883.766	20792
883.892	20518
884.018	20625
884.143	20648
884.269	20842
884.395	20511
884.52	20446
884.646	20473
884.772	20412
884.897	20400
885.023	20465
885.148	20480
885.274	20530
885.399	20632
885.524	20385
885.65	20415
885.775	20507
885.9	20328
886.025	20590
886.15	20507
886.275	20404
886.4	20469
886.525	20495
886.65	20286
886.775	20218
886.9	20686
887.025	20670
887.149	20389
887.274	20305
887.399	20275
887.523	20244
887.648	20347
887.773	20233
887.897	20233
888.021	20218
888.146	20161
888.27	20305
888.395	20370
888.519	20248
888.643	20347
888.767	20278
888.891	20168
889.015	20107
889.139	20024
889.263	20046
889.387	20149
889.511	20282
889.635	20096
889.759	20024
889.883	20077
890.006	19997
890.13	20096
890.254	20046
890.377	19906
890.501	19822
890.624	19784
890.748	19826
890.871	19750
890.995	19613
891.118	19704
891.241	19685
891.364	19658
891.488	19765
891.611	19563
891.734	19681
891.857	19845
891.98	19613
892.103	19639
892.226	19647
892.349	19689
892.471	19476
892.594	19620
892.717	19586
892.839	19537
892.962	19616
893.085	19605
893.207	19502
893.33	19590
893.452	19419
893.575	19556
893.697	19567
893.819	19708
893.941	19696
894.064	19685
894.186	19540
894.308	19499
894.43	19666
894.552	19689
894.674	19696
894.796	19453
894.918	19578
895.04	19559
895.161	19487
895.283	19521
895.405	19529
895.526	19613
895.648	19578
895.769	19552
895.891	19563
896.012	19575
896.134	19537
896.255	19632
896.376	19651
896.498	19533
896.619	19628
896.74	19616
896.861	19647
896.982	19894
897.103	20027
897.224	19776
897.345	19746
897.466	19696
897.587	19875
897.708	19940
897.828	19734
897.949	19723
898.07	19609
898.19	19765
898.311	19734
898.431	19727
898.552	19784
898.672	19864
898.792	19830
898.913	19814
899.033	19700
899.153	19586
899.273	19552
899.393	19559
899.513	19571
899.633	19601
899.753	19635
899.873	19415
899.993	19601
900.113	19464
900.232	19529
900.352	19460
900.472	19365
900.591	19270
900.711	19407
900.83	19228
900.95	19495
901.069	19343
901.189	19232
901.308	19012
901.427	18966
901.546	18989
901.665	18924
901.784	18897
901.904	18722
902.023	18703
902.141	18369
902.26	18418
902.379	18528
902.498	18376
902.617	18460
902.735	18483
902.854	18570
902.973	18418
903.091	18140
903.21	18121
903.328	18125
903.446	18072
903.565	18011
903.683	17878
903.801	17733
903.919	17931
904.038	17843
904.156	17665
904.274	17714
904.392	17668
904.51	17661
904.627	17684
904.745	17786
904.863	17722
904.981	17463
905.098	17296
905.216	17376
905.334	17512
905.451	17318
905.569	17296
905.686	17398
905.803	17353
905.921	17124
906.038	17292
906.155	17105
906.272	16923
906.389	17105
906.506	16900
906.623	16995
906.74	16862
906.857	16786
906.974	16881
907.091	16911
907.208	16991
907.324	16919
907.441	16812
907.557	16637
907.674	16713
907.79	16580
907.907	16637
908.023	16729
908.139	16611
908.256	16634
908.372	16481
908.488	16421
908.604	16413
908.72	16447
908.836	16344
908.952	16299
909.068	16318
909.184	16523
909.3	16333
909.415	16360
909.531	16333
909.647	16093
909.762	16029
909.878	16124
909.993	16071
910.108	15987
910.224	15994
910.339	15960
910.454	15972
910.57	15743
910.685	15755
910.8	16128
910.915	16010
911.03	15873
911.145	15690
911.259	15599
911.374	15644
911.489	15644
911.604	15572
911.718	15450
911.833	15466
911.947	15317
912.062	15313
912.176	15405
912.291	15443
912.405	15431
912.519	15694
912.633	15652
912.748	15431
912.862	15401
912.976	15310
913.09	15142
913.204	15218
913.318	15192
913.431	15370
913.545	15340
913.659	15313
913.772	15245
913.886	15116
914	15001
914.113	15291
914.226	15142
914.34	15097
914.453	14880
914.566	15085
914.68	14944
914.793	14883
914.906	14727
915.019	14731
915.132	14682
915.245	14667
915.358	14712
915.47	14644
915.583	14655
915.696	14693
915.809	14667
915.921	14826
916.034	14636
916.146	14587
916.259	14617
916.371	14651
916.483	14587
916.595	14499
916.708	14511
916.82	14522
916.932	14412
917.044	14358
917.156	14469
917.268	14282
917.38	14393
917.491	14313
917.603	14309
917.715	14423
917.826	14507
917.938	14218
918.049	14225
918.161	14305
918.272	14385
918.384	14415
918.495	14206
918.606	14244
918.717	13970
918.828	14225
918.939	14153
919.05	14096
919.161	14058
919.272	13837
919.383	14001
919.494	14084
919.604	14244
919.715	14050
919.826	13925
919.936	14016
920.047	14237
920.157	14103
920.267	14218
920.378	14100
920.488	14031
920.598	14191
920.708	14480
920.818	14240
920.928	14202
921.038	14362
921.148	14313
921.258	14035
921.368	13871
921.477	13909
921.587	13753
921.697	13693
921.806	13856
921.916	13704
922.025	13548
922.134	13514
922.244	13407
922.353	13559
922.462	13369
922.571	13289
922.68	13194
922.789	13133
922.898	13129
923.007	13038
923.116	13065
923.224	13141
923.333	13015
923.442	12951
923.55	12970
923.659	12958
923.767	13019
923.876	12913
923.984	12985
924.092	12894
924.201	12924
924.309	12916
924.417	12897
924.525	12749
924.633	12814
924.741	13715
924.849	12616
924.956	12772
925.064	12574
925.172	12566
925.279	12578
925.387	12631
925.494	12540
925.602	12745
925.709	12722
925.816	12517
925.924	12490
926.031	12589
926.138	12490
926.245	12555
926.352	12380
926.459	12585
926.566	12700
926.673	12395
926.779	12395
926.886	12319
926.993	12216
927.099	12095
927.206	12102
927.312	12106
927.419	12213
927.525	12057
927.631	12273
927.737	12015
927.843	11977
927.95	11859
928.056	11882
928.162	11939
928.267	11999
928.373	12483
928.479	12083
928.585	11745
928.69	11996
928.796	11931
928.901	11851
929.007	11718
929.112	11828
929.218	11828
929.323	11699
929.428	11680
929.533	11786
929.638	11577
929.743	11592
929.848	11798
929.953	11634
930.058	11535
930.163	11398
930.267	11395
930.372	11501
930.477	11322
930.581	11539
930.685	11478
930.79	11250
930.894	11288
930.998	11273
931.103	11387
931.207	11041
931.311	10900
931.415	10858
931.519	10725
931.623	10679
