Data from test_V78500241_960.txt Node
Date: Fri Mar 25 15:16:32 CST 2022
User: usil
Spectrometer: V785-0024
Trigger mode: 0
Integration Time (sec): 4.000000E-1
Scans to average: 1
Nonlinearity correction enabled: false
Boxcar width: 0
Storing dark spectrum: false
XAxis mode: Wavelengths
Number of Pixels in Spectrum: 1024
>>>>>Begin Spectral Data<<<<<
801.071	27968
801.214	27854
801.356	27671
801.499	27568
801.641	27500
801.783	27466
801.926	27618
802.068	27530
802.211	27439
802.353	27351
802.496	27241
802.638	27146
802.78	27081
802.923	27020
803.065	27096
803.208	26998
803.35	27123
803.492	27157
803.635	27306
803.777	27256
803.919	27374
804.061	27656
804.204	27412
804.346	27268
804.488	27325
804.63	27340
804.773	27272
804.915	27454
805.057	27462
805.199	27332
805.341	27386
805.483	27427
805.626	27507
805.768	27481
805.91	27370
806.052	27492
806.194	27389
806.336	27648
806.478	27561
806.62	27549
806.762	27690
806.904	27804
807.046	28074
807.188	27892
807.33	27892
807.472	27911
807.614	27778
807.756	27911
807.898	27816
808.04	27781
808.182	27762
808.324	27838
808.465	27800
808.607	27941
808.749	28109
808.891	28265
809.033	28280
809.174	28204
809.316	28196
809.458	28150
809.6	28044
809.741	28280
809.883	28280
810.025	28493
810.166	28394
810.308	28223
810.45	28371
810.591	28493
810.733	28291
810.875	28166
811.016	28063
811.158	28097
811.299	28306
811.441	28303
811.582	28196
811.724	28162
811.865	28124
812.007	28196
812.148	28002
812.29	28048
812.431	28196
812.573	28622
812.714	28592
812.855	28892
812.997	28725
813.138	28919
813.279	28790
813.421	28653
813.562	28645
813.703	28447
813.845	28497
813.986	27983
814.127	27903
814.268	27873
814.41	27880
814.551	27778
814.692	27873
814.833	27762
814.974	27949
815.115	27785
815.256	27637
815.397	27656
815.539	27675
815.68	27690
815.821	27629
815.962	27633
816.103	27660
816.244	27439
816.385	27386
816.526	27477
816.666	27287
816.807	27268
816.948	27074
817.089	27291
817.23	27161
817.371	27089
817.512	27161
817.653	27100
817.793	27154
817.934	27070
818.075	27142
818.216	27047
818.356	27176
818.497	27001
818.638	26830
818.778	26891
818.919	26914
819.06	26906
819.2	27146
819.341	27150
819.481	27173
819.622	27329
819.762	27511
819.903	27336
820.043	27298
820.184	27283
820.324	27230
820.465	27401
820.605	27195
820.746	27256
820.886	26994
821.026	27165
821.167	27108
821.307	27393
821.447	27195
821.588	27119
821.728	26994
821.868	26697
822.008	26499
822.149	26495
822.289	26530
822.429	26301
822.569	26221
822.709	26229
822.849	26107
822.99	26035
823.13	26157
823.27	25970
823.41	26046
823.55	25925
823.69	25917
823.83	26107
823.97	25955
824.11	25696
824.25	25799
824.389	25883
824.529	25890
824.669	25826
824.809	25913
824.949	25856
825.089	25887
825.228	25856
825.368	25738
825.508	25689
825.648	25708
825.787	25727
825.927	25681
826.067	25578
826.206	25632
826.346	25624
826.485	25784
826.625	25578
826.765	25693
826.904	25575
827.044	25304
827.183	25381
827.323	25324
827.462	25460
827.601	25411
827.741	25365
827.88	25426
828.02	25327
828.159	25358
828.298	25339
828.437	25396
828.577	25187
828.716	25304
828.855	25411
828.994	25053
829.134	25042
829.273	25168
829.412	24970
829.551	25084
829.69	25034
829.829	25141
829.968	25263
830.107	25156
830.246	25236
830.385	24932
830.524	25095
830.663	24848
830.802	24909
830.941	24593
831.08	24631
831.219	24563
831.357	24806
831.496	24996
831.635	24753
831.774	24593
831.913	24570
832.051	24460
832.19	24365
832.329	24384
832.467	24338
832.606	24346
832.744	24346
832.883	24323
833.022	24273
833.16	24342
833.299	24555
833.437	24532
833.576	24464
833.714	24441
833.852	24418
833.991	24448
834.129	24627
834.267	24498
834.406	24475
834.544	24494
834.682	24490
834.821	24353
834.959	24631
835.097	24410
835.235	24410
835.373	24323
835.511	24452
835.65	24277
835.788	24258
835.926	24216
836.064	24003
836.202	24190
836.34	24102
836.478	24330
836.615	24174
836.753	24330
836.891	24296
837.029	24304
837.167	24178
837.305	24289
837.443	24190
837.58	24060
837.718	24159
837.856	24148
837.993	23980
838.131	24057
838.269	23984
838.406	23992
838.544	23821
838.681	23600
838.819	23760
838.956	23520
839.094	23657
839.231	23649
839.369	23859
839.506	23817
839.643	23760
839.781	23608
839.918	23573
840.055	23493
840.193	23528
840.33	23417
840.467	23596
840.604	23444
840.742	23824
840.879	23455
841.016	23490
841.153	23459
841.29	23512
841.427	23497
841.564	23478
841.701	23490
841.838	23467
841.975	23311
842.112	23284
842.249	23193
842.385	23254
842.522	23551
842.659	23288
842.796	23197
842.933	23360
843.069	23356
843.206	23246
843.343	23349
843.479	23227
843.616	23254
843.752	23010
843.889	23060
844.025	23117
844.162	22896
844.298	23075
844.435	23113
844.571	23105
844.708	23132
844.844	23178
844.98	23208
845.117	23162
845.253	23025
845.389	22873
845.525	23064
845.661	22900
845.798	22812
845.934	22725
846.07	22778
846.206	22801
846.342	22885
846.478	22801
846.614	22519
846.75	22474
846.886	22421
847.022	22557
847.158	22542
847.294	22554
847.429	22428
847.565	22436
847.701	22828
847.837	22246
847.972	22249
848.108	22417
848.244	22379
848.379	22188
848.515	22070
848.65	22158
848.786	22173
848.921	22070
849.057	22219
849.192	22120
849.328	22154
849.463	22143
849.598	22086
849.734	21899
849.869	21911
850.004	21903
850.14	21899
850.275	21972
850.41	21926
850.545	21876
850.68	21861
850.815	21991
850.95	21842
851.085	22086
851.22	22002
851.355	21823
851.49	21816
851.625	21766
851.76	21755
851.895	21686
852.03	21732
852.165	21838
852.299	21854
852.434	21949
852.569	21876
852.703	21857
852.838	21778
852.973	22067
853.107	21873
853.242	21622
853.376	21797
853.511	21557
853.645	21663
853.78	21873
853.914	21660
854.048	21679
854.183	21660
854.317	21709
854.451	21835
854.585	21637
854.72	21694
854.854	21831
854.988	21667
855.122	21637
855.256	21496
855.39	21698
855.524	21774
855.658	21625
855.792	21644
855.926	21747
856.06	21717
856.194	21759
856.327	21519
856.461	21496
856.595	21523
856.729	21652
856.862	21770
856.996	21743
857.13	21591
857.263	21770
857.397	21724
857.53	21679
857.664	21652
857.797	21553
857.931	21865
858.064	21751
858.197	21819
858.331	21705
858.464	21690
858.597	21671
858.731	21583
858.864	21500
858.997	21694
859.13	21610
859.263	21720
859.396	21656
859.529	21610
859.662	21545
859.795	21641
859.928	21637
860.061	21766
860.194	21895
860.327	21766
860.46	21713
860.592	21854
860.725	21713
860.858	21793
860.99	21717
861.123	21648
861.256	21583
861.388	21819
861.521	22409
861.653	21439
861.786	21515
861.918	21542
862.05	21633
862.183	21568
862.315	21610
862.447	21519
862.58	21553
862.712	21504
862.844	21370
862.976	21389
863.108	21355
863.24	21800
863.372	21302
863.504	21188
863.636	21424
863.768	21447
863.9	21412
864.032	21344
864.164	21374
864.296	21439
864.428	21572
864.559	21416
864.691	21443
864.823	21272
864.954	21321
865.086	21287
865.217	21241
865.349	21260
865.48	21207
865.612	21245
865.743	21416
865.875	21291
866.006	21252
866.137	21329
866.269	21249
866.4	21272
866.531	21169
866.662	21131
866.793	21207
866.924	21310
867.055	21256
867.186	21173
867.317	21176
867.448	21089
867.579	21169
867.71	21100
867.841	21062
867.972	21291
868.103	21199
868.233	21192
868.364	21074
868.495	21382
868.625	21443
868.756	21572
868.886	21428
869.017	21401
869.147	21538
869.278	21614
869.408	21424
869.539	21511
869.669	21603
869.799	21542
869.929	21492
870.06	21553
870.19	21720
870.32	21720
870.45	21660
870.58	21766
870.71	21823
870.84	21956
870.97	21774
871.1	21827
871.23	21945
871.36	22074
871.489	21911
871.619	21960
871.749	22002
871.879	22013
872.008	22143
872.138	21945
872.267	21934
872.397	21937
872.526	21793
872.656	21884
872.785	21880
872.915	22067
873.044	22044
873.173	22139
873.303	22177
873.432	22147
873.561	22105
873.69	22067
873.819	22112
873.948	22101
874.077	21903
874.206	22029
874.335	22116
874.464	22147
874.593	22344
874.722	22162
874.851	22249
874.979	22276
875.108	22295
875.237	22265
875.365	22185
875.494	22303
875.623	22306
875.751	22276
875.88	22291
876.008	22405
876.136	22417
876.265	22622
876.393	22809
876.521	22634
876.65	22603
876.778	22634
876.906	22698
877.034	22603
877.162	22588
877.29	22630
877.418	22611
877.546	22561
877.674	22481
877.802	22618
877.93	22447
878.058	22557
878.185	22466
878.313	22668
878.441	22588
878.568	22493
878.696	22436
878.824	22588
878.951	22679
879.079	22820
879.206	22839
879.333	22809
879.461	22645
879.588	22801
879.715	22736
879.842	22980
879.97	22656
880.097	22535
880.224	22398
880.351	22436
880.478	22424
880.605	22352
880.732	22451
880.859	22687
880.986	22447
881.112	22538
881.239	22192
881.366	22188
881.493	22124
881.619	22036
881.746	22044
881.872	21960
881.999	22032
882.125	21850
882.252	21979
882.378	22055
882.505	22059
882.631	21903
882.757	21770
882.883	21835
883.01	21766
883.136	21667
883.262	21580
883.388	21534
883.514	21591
883.64	21739
883.766	21660
883.892	21591
884.018	21500
884.143	21671
884.269	21747
884.395	21313
884.52	21408
884.646	21408
884.772	21298
884.897	21249
885.023	21329
885.148	21526
885.274	21477
885.399	21405
885.524	21313
885.65	21405
885.775	21313
885.9	21355
886.025	21329
886.15	21351
886.275	21370
886.4	21241
886.525	21214
886.65	21264
886.775	21287
886.9	21519
887.025	21519
887.149	21317
887.274	21173
887.399	21199
887.523	21100
887.648	21173
887.773	20998
887.897	21211
888.021	21116
888.146	21138
888.27	21264
888.395	21180
888.519	21176
888.643	21176
888.767	21055
888.891	20910
889.015	20819
889.139	20918
889.263	20720
889.387	21039
889.511	21119
889.635	21001
889.759	20891
889.883	20861
890.006	20891
890.13	20963
890.254	20777
890.377	20838
890.501	20686
890.624	20716
890.748	20564
890.871	20556
890.995	20404
891.118	20343
891.241	20404
891.364	20507
891.488	20511
891.611	20545
891.734	20533
891.857	20473
891.98	20442
892.103	20560
892.226	20423
892.349	20366
892.471	20256
892.594	20499
892.717	20465
892.839	20256
892.962	20290
893.085	20507
893.207	20400
893.33	20271
893.452	20320
893.575	20438
893.697	20282
893.819	20431
893.941	20583
894.064	20492
894.186	20244
894.308	20282
894.43	20396
894.552	20587
894.674	20507
894.796	20233
894.918	20305
895.04	20396
895.161	20480
895.283	20332
895.405	20168
895.526	20286
895.648	20336
895.769	20294
895.891	20480
896.012	20415
896.134	20381
896.255	20412
896.376	20347
896.498	20309
896.619	20286
896.74	20343
896.861	20374
896.982	20590
897.103	20807
897.224	20606
897.345	20564
897.466	20606
897.587	20583
897.708	20667
897.828	20495
897.949	20492
898.07	20370
898.19	20454
898.311	20712
898.431	20355
898.552	20545
898.672	20674
898.792	20560
898.913	20434
899.033	20404
899.153	20427
899.273	20202
899.393	20256
899.513	20252
899.633	20381
899.753	20290
899.873	20290
899.993	20301
900.113	20229
900.232	20259
900.352	20298
900.472	20043
900.591	20077
900.711	20107
900.83	20073
900.95	20157
901.069	20062
901.189	20027
901.308	19841
901.427	19635
901.546	19655
901.665	19807
901.784	19666
901.904	19518
902.023	19441
902.141	19209
902.26	19293
902.379	19221
902.498	19187
902.617	19168
902.735	19217
902.854	19038
902.973	19183
903.091	18916
903.21	18856
903.328	18749
903.446	18688
903.565	18730
903.683	18646
903.801	18490
903.919	18688
904.038	18528
904.156	18403
904.274	18525
904.392	18464
904.51	18323
904.627	18300
904.745	18410
904.863	18532
904.981	18213
905.098	18091
905.216	18209
905.334	18144
905.451	18220
905.569	18091
905.686	18026
905.803	18121
905.921	17939
906.038	17942
906.155	17908
906.272	17710
906.389	17904
906.506	17687
906.623	17657
906.74	17604
906.857	17516
906.974	17539
907.091	17589
907.208	17756
907.324	17642
907.441	17558
907.557	17326
907.674	17406
907.79	17337
907.907	17337
908.023	17353
908.139	17322
908.256	17391
908.372	17299
908.488	17155
908.604	17147
908.72	16976
908.836	17041
908.952	17041
909.068	17067
909.184	17189
909.3	17045
909.415	17086
909.531	16965
909.647	16668
909.762	16835
909.878	16771
909.993	16793
910.108	16645
910.224	16774
910.339	16653
910.454	16660
910.57	16565
910.685	16485
910.8	16759
910.915	16763
911.03	16592
911.145	16470
911.259	16253
911.374	16398
911.489	16352
911.604	16226
911.718	16135
911.833	16025
911.947	15998
912.062	15975
912.176	16055
912.291	16044
912.405	16086
912.519	16257
912.633	16200
912.748	16128
912.862	16006
912.976	15819
913.09	15816
913.204	15846
913.318	15899
913.431	15964
913.545	15979
913.659	15975
913.772	15850
913.886	15804
914	15557
914.113	15762
914.226	15800
914.34	15686
914.453	15580
914.566	15686
914.68	15625
914.793	15511
914.906	15443
915.019	15279
915.132	15199
915.245	15382
915.358	15340
915.47	15321
915.583	15252
915.696	15241
915.809	15500
915.921	15435
916.034	15287
916.146	15203
916.259	15241
916.371	15294
916.483	15180
916.595	15173
916.708	15116
916.82	15142
916.932	15039
917.044	15032
917.156	14998
917.268	14895
917.38	14952
917.491	14842
917.603	14944
917.715	14956
917.826	14948
917.938	14960
918.049	14762
918.161	14941
918.272	14921
918.384	15085
918.495	14864
918.606	14697
918.717	14617
918.828	14644
918.939	14796
919.05	14537
919.161	14663
919.272	14526
919.383	14587
919.494	14785
919.604	14883
919.715	14613
919.826	14598
919.936	14610
920.047	14651
920.157	14621
920.267	14743
920.378	14667
920.488	14682
920.598	14788
920.708	14902
920.818	14750
920.928	14720
921.038	14864
921.148	14960
921.258	14560
921.368	14549
921.477	14469
921.587	14377
921.697	14351
921.806	14381
921.916	14290
922.025	14062
922.134	14092
922.244	13959
922.353	14138
922.462	14008
922.571	13849
922.68	13769
922.789	13677
922.898	13689
923.007	13639
923.116	13715
923.224	13731
923.333	13605
923.442	13514
923.55	13460
923.659	13483
923.767	13556
923.876	13445
923.984	13449
924.092	13369
924.201	13453
924.309	13415
924.417	13403
924.525	13350
924.633	13331
924.741	14298
924.849	13107
924.956	13255
925.064	13187
925.172	13099
925.279	12993
925.387	13065
925.494	13110
925.602	13221
925.709	13107
925.816	12954
925.924	12962
926.031	13034
926.138	12985
926.245	13027
926.352	12909
926.459	13057
926.566	13156
926.673	12901
926.779	12848
926.886	12795
926.993	12707
927.099	12612
927.206	12582
927.312	12608
927.419	12673
927.525	12642
927.631	12563
927.737	12494
927.843	12460
927.95	12467
928.056	12502
928.162	12426
928.267	12517
928.373	13084
928.479	12536
928.585	12281
928.69	12418
928.796	12399
928.901	12380
929.007	12167
929.112	12285
929.218	12258
929.323	12216
929.428	12175
929.533	12315
929.638	12220
929.743	12072
929.848	12243
929.953	12148
930.058	12034
930.163	11828
930.267	11855
930.372	11984
930.477	11767
930.581	12038
930.685	11809
930.79	11680
930.894	11813
930.998	11634
931.103	11882
931.207	11539
931.311	11353
931.415	11311
931.519	11147
931.623	11208
