Data from test_V78500241_250.txt Node
Date: Fri Mar 25 15:11:36 CST 2022
User: usil
Spectrometer: V785-0024
Trigger mode: 0
Integration Time (sec): 4.000000E-1
Scans to average: 1
Nonlinearity correction enabled: false
Boxcar width: 0
Storing dark spectrum: false
XAxis mode: Wavelengths
Number of Pixels in Spectrum: 1024
>>>>>Begin Spectral Data<<<<<
801.071	28310
801.214	28325
801.356	28044
801.499	28010
801.641	27812
801.783	27846
801.926	27766
802.068	27884
802.211	27842
802.353	27595
802.496	27580
802.638	27561
802.78	27534
802.923	27431
803.065	27310
803.208	27481
803.35	27477
803.492	27713
803.635	27625
803.777	27538
803.919	27618
804.061	27816
804.204	27667
804.346	27568
804.488	27466
804.63	27523
804.773	27519
804.915	27625
805.057	27751
805.199	27542
805.341	27637
805.483	27622
805.626	27686
805.768	27599
805.91	27705
806.052	27690
806.194	27724
806.336	27808
806.478	27679
806.62	27583
806.762	27895
806.904	27880
807.046	28207
807.188	28112
807.33	28051
807.472	28215
807.614	28074
807.756	28048
807.898	27876
808.04	27793
808.182	27895
808.324	27964
808.465	27914
808.607	28040
808.749	28284
808.891	28504
809.033	28440
809.174	28485
809.316	28310
809.458	28299
809.6	28268
809.741	28367
809.883	28306
810.025	28516
810.166	28527
810.308	28546
810.45	28432
810.591	28500
810.733	28318
810.875	28223
811.016	28143
811.158	28173
811.299	28166
811.441	28360
811.582	28299
811.724	28181
811.865	28223
812.007	28246
812.148	28211
812.29	28276
812.431	28398
812.573	28462
812.714	28649
812.855	28748
812.997	28869
813.138	28957
813.279	28740
813.421	28725
813.562	28812
813.703	28573
813.845	28546
813.986	28204
814.127	28036
814.268	28002
814.41	28025
814.551	27880
814.692	28074
814.833	27781
814.974	27838
815.115	27907
815.256	27770
815.397	27629
815.539	27759
815.68	27682
815.821	27690
815.962	27606
816.103	27614
816.244	27477
816.385	27378
816.526	27332
816.666	27230
816.807	27032
816.948	27222
817.089	27119
817.23	27154
817.371	27135
817.512	27032
817.653	26956
817.793	27085
817.934	27146
818.075	27085
818.216	27058
818.356	26998
818.497	26960
818.638	26853
818.778	26785
818.919	26868
819.06	26940
819.2	26906
819.341	26902
819.481	27089
819.622	27169
819.762	27363
819.903	27359
820.043	27226
820.184	27127
820.324	27184
820.465	27306
820.605	27222
820.746	27043
820.886	27112
821.026	27169
821.167	27104
821.307	27218
821.447	27138
821.588	26967
821.728	26891
821.868	26781
822.008	26568
822.149	26526
822.289	26446
822.429	26305
822.569	26164
822.709	26100
822.849	25944
822.99	25978
823.13	25982
823.27	25959
823.41	25753
823.55	25590
823.69	25784
823.83	25681
823.97	25738
824.11	25613
824.25	25601
824.389	25662
824.529	25620
824.669	25677
824.809	25799
824.949	25632
825.089	25708
825.228	25807
825.368	25575
825.508	25468
825.648	25419
825.787	25434
825.927	25422
826.067	25304
826.206	25426
826.346	25533
826.485	25529
826.625	25407
826.765	25628
826.904	25479
827.044	25118
827.183	25141
827.323	25091
827.462	25198
827.601	25152
827.741	24985
827.88	25293
828.02	24871
828.159	25050
828.298	25129
828.437	25240
828.577	24973
828.716	25244
828.855	25190
828.994	24875
829.134	24859
829.273	24920
829.412	24776
829.551	24825
829.69	24848
829.829	24890
829.968	25019
830.107	24833
830.246	24802
830.385	24700
830.524	24700
830.663	24681
830.802	24608
830.941	24369
831.08	24410
831.219	24582
831.357	24509
831.496	24620
831.635	24395
831.774	24270
831.913	24334
832.051	24277
832.19	24270
832.329	24277
832.467	23961
832.606	24079
832.744	24003
832.883	24038
833.022	24053
833.16	24106
833.299	24148
833.437	24079
833.576	24045
833.714	24034
833.852	24026
833.991	24003
834.129	24064
834.267	24117
834.406	24213
834.544	24171
834.682	24064
834.821	24045
834.959	24114
835.097	24133
835.235	24194
835.373	24102
835.511	24125
835.65	23988
835.788	23973
835.926	23824
836.064	23589
836.202	23786
836.34	24003
836.478	24114
836.615	23836
836.753	23885
836.891	24083
837.029	23893
837.167	23828
837.305	23931
837.443	23836
837.58	23657
837.718	23874
837.856	23836
837.993	23680
838.131	23737
838.269	23592
838.406	23604
838.544	23752
838.681	23554
838.819	23368
838.956	23181
839.094	23185
839.231	23288
839.369	23398
839.506	23547
839.643	23611
839.781	23254
839.918	23067
840.055	23307
840.193	23216
840.33	23216
840.467	23014
840.604	23212
840.742	23353
840.879	23018
841.016	23094
841.153	23083
841.29	23178
841.427	23151
841.564	23258
841.701	23132
841.838	23052
841.975	23048
842.112	23086
842.249	22953
842.385	22755
842.522	23052
842.659	22873
842.796	22820
842.933	22858
843.069	22759
843.206	22869
843.343	22786
843.479	23022
843.616	22919
843.752	22557
843.889	22531
844.025	22687
844.162	22588
844.298	22809
844.435	22554
844.571	22771
844.708	22774
844.844	22645
844.98	22698
845.117	22729
845.253	22577
845.389	22523
845.525	22538
845.661	22398
845.798	22371
845.934	22417
846.07	22261
846.206	22352
846.342	22447
846.478	22287
846.614	22169
846.75	22112
846.886	21987
847.022	22150
847.158	21994
847.294	22101
847.429	22131
847.565	22048
847.701	22276
847.837	21880
847.972	21835
848.108	21831
848.244	21918
848.379	21694
848.515	21587
848.65	21606
848.786	21610
848.921	21606
849.057	21663
849.192	21797
849.328	21667
849.463	21622
849.598	21610
849.734	21568
849.869	21450
850.004	21340
850.14	21374
850.275	21389
850.41	21355
850.545	21336
850.68	21359
850.815	21488
850.95	21393
851.085	21648
851.22	21450
851.355	21389
851.49	21329
851.625	21344
851.76	21374
851.895	21302
852.03	21298
852.165	21351
852.299	21393
852.434	21507
852.569	21321
852.703	21321
852.838	21549
852.973	21424
853.107	21496
853.242	21412
853.376	21230
853.511	21104
853.645	21226
853.78	21317
853.914	21298
854.048	21226
854.183	21226
854.317	21116
854.451	21386
854.585	21222
854.72	21146
854.854	21332
854.988	21176
855.122	21146
855.256	21028
855.39	21169
855.524	21264
855.658	21150
855.792	21142
855.926	21237
856.06	21268
856.194	21279
856.327	21283
856.461	21176
856.595	21039
856.729	21135
856.862	21298
856.996	21332
857.13	21237
857.263	21287
857.397	21340
857.53	21188
857.664	21184
857.797	21298
857.931	21306
858.064	21157
858.197	21291
858.331	21176
858.464	21123
858.597	20967
858.731	21131
858.864	21070
858.997	21104
859.13	21112
859.263	21222
859.396	21195
859.529	21173
859.662	21081
859.795	21074
859.928	21184
860.061	21420
860.194	21454
860.327	21252
860.46	21165
860.592	21131
860.725	21313
860.858	21348
860.99	21096
861.123	21043
861.256	21188
861.388	21184
861.521	21857
861.653	21081
861.786	20849
861.918	20933
862.05	21112
862.183	21127
862.315	21165
862.447	21150
862.58	21081
862.712	20861
862.844	20883
862.976	20887
863.108	20941
863.24	21420
863.372	20838
863.504	20876
863.636	20914
863.768	21036
863.9	20910
864.032	20785
864.164	20906
864.296	20937
864.428	20956
864.559	20872
864.691	20952
864.823	20819
864.954	20788
865.086	20777
865.217	20743
865.349	20785
865.48	20746
865.612	20720
865.743	20967
865.875	20682
866.006	20769
866.137	20777
866.269	20773
866.4	20705
866.531	20724
866.662	20621
866.793	20651
866.924	20629
867.055	20731
867.186	20727
867.317	20606
867.448	20552
867.579	20655
867.71	20526
867.841	20587
867.972	20648
868.103	20545
868.233	20682
868.364	20746
868.495	20765
868.625	20861
868.756	20880
868.886	20857
869.017	20857
869.147	21051
869.278	20998
869.408	21005
869.539	20914
869.669	20876
869.799	20929
869.929	21077
870.06	20956
870.19	21268
870.32	21192
870.45	21184
870.58	21176
870.71	21397
870.84	21477
870.97	21268
871.1	21393
871.23	21450
871.36	21507
871.489	21496
871.619	21450
871.749	21416
871.879	21519
872.008	21633
872.138	21435
872.267	21481
872.397	21355
872.526	21192
872.656	21332
872.785	21298
872.915	21526
873.044	21637
873.173	21469
873.303	21622
873.432	21561
873.561	21595
873.69	21561
873.819	21610
873.948	21614
874.077	21511
874.206	21545
874.335	21469
874.464	21823
874.593	21793
874.722	21671
874.851	21778
874.979	21720
875.108	21682
875.237	21720
875.365	21679
875.494	21728
875.623	21793
875.751	21675
875.88	21671
876.008	21831
876.136	21911
876.265	22162
876.393	22253
876.521	22219
876.65	22265
876.778	22143
876.906	22093
877.034	22124
877.162	22169
877.29	22093
877.418	22051
877.546	22051
877.674	22025
877.802	21930
877.93	22086
878.058	22021
878.185	21934
878.313	22036
878.441	22097
878.568	22078
878.696	22097
878.824	22010
878.951	22211
879.079	22344
879.206	22436
879.333	22207
879.461	22177
879.588	22093
879.715	22169
879.842	22246
879.97	22196
880.097	21934
880.224	21956
880.351	21960
880.478	22059
880.605	21823
880.732	21831
880.859	22112
880.986	21915
881.112	22032
881.239	21846
881.366	21705
881.493	21701
881.619	21564
881.746	21583
881.872	21622
881.999	21473
882.125	21469
882.252	21610
882.378	21553
882.505	21679
882.631	21393
882.757	21310
882.883	21268
883.01	21268
883.136	21173
883.262	21161
883.388	21051
883.514	21283
883.64	21256
883.766	21150
883.892	21032
884.018	21024
884.143	21161
884.269	21154
884.395	21100
884.52	20826
884.646	20929
884.772	20834
884.897	20811
885.023	20872
885.148	20925
885.274	21119
885.399	21028
885.524	20861
885.65	20891
885.775	20880
885.9	20853
886.025	20994
886.15	20800
886.275	20773
886.4	20804
886.525	20807
886.65	20720
886.775	20777
886.9	20948
887.025	21001
887.149	20857
887.274	20556
887.399	20708
887.523	20651
887.648	20629
887.773	20454
887.897	20621
888.021	20651
888.146	20689
888.27	20701
888.395	20701
888.519	20571
888.643	20682
888.767	20609
888.891	20575
889.015	20415
889.139	20408
889.263	20450
889.387	20598
889.511	20609
889.635	20579
889.759	20336
889.883	20476
890.006	20450
890.13	20541
890.254	20355
890.377	20404
890.501	20233
890.624	20248
890.748	20065
890.871	20088
890.995	19841
891.118	19898
891.241	19951
891.364	19921
891.488	20138
891.611	19978
891.734	19963
891.857	19993
891.98	20046
892.103	19944
892.226	19845
892.349	19875
892.471	19772
892.594	19959
892.717	19993
892.839	19887
892.962	19811
893.085	19936
893.207	19936
893.33	19811
893.452	19799
893.575	19883
893.697	19906
893.819	20084
893.941	20145
894.064	19967
894.186	19776
894.308	19807
894.43	20043
894.552	19993
894.674	19978
894.796	19712
894.918	19837
895.04	19799
895.161	19947
895.283	19845
895.405	19852
895.526	19928
895.648	19925
895.769	19860
895.891	19936
896.012	19982
896.134	19974
896.255	19921
896.376	19860
896.498	19902
896.619	19959
896.74	19841
896.861	20043
896.982	20351
897.103	20507
897.224	20358
897.345	20202
897.466	20039
897.587	20202
897.708	20199
897.828	20183
897.949	20168
898.07	19932
898.19	19993
898.311	20119
898.431	20031
898.552	20046
898.672	20119
898.792	20267
898.913	20195
899.033	19974
899.153	19868
899.273	19765
899.393	19868
899.513	19951
899.633	19906
899.753	19921
899.873	19791
899.993	19963
900.113	19674
900.232	19818
900.352	19814
900.472	19734
900.591	19719
900.711	19632
900.83	19480
900.95	19723
901.069	19849
901.189	19556
901.308	19240
901.427	19202
901.546	19217
901.665	19259
901.784	19266
901.904	19099
902.023	19031
902.141	18772
902.26	18658
902.379	18749
902.498	18719
902.617	18707
902.735	18753
902.854	18722
902.973	18563
903.091	18376
903.21	18445
903.328	18369
903.446	18289
903.565	18239
903.683	18216
903.801	18194
903.919	18155
904.038	18102
904.156	18003
904.274	18007
904.392	18015
904.51	18072
904.627	17916
904.745	18022
904.863	17965
904.981	17798
905.098	17764
905.216	17596
905.334	17649
905.451	17733
905.569	17448
905.686	17589
905.803	17600
905.921	17410
906.038	17573
906.155	17467
906.272	17307
906.389	17322
906.506	17307
906.623	17223
906.74	17181
906.857	17064
906.974	17067
907.091	17242
907.208	17258
907.324	17181
907.441	17037
907.557	16976
907.674	17014
907.79	16763
907.907	16755
908.023	16862
908.139	16771
908.256	16843
908.372	16710
908.488	16691
908.604	16596
908.72	16656
908.836	16675
908.952	16447
909.068	16584
909.184	16645
909.3	16592
909.415	16668
909.531	16504
909.647	16348
909.762	16299
909.878	16249
909.993	16238
910.108	16306
910.224	16169
910.339	16261
910.454	16181
910.57	16105
910.685	16128
910.8	16341
910.915	16219
911.03	16029
911.145	15865
911.259	15922
911.374	15991
911.489	15800
911.604	15816
911.718	15603
911.833	15675
911.947	15568
912.062	15401
912.176	15557
912.291	15606
912.405	15564
912.519	15766
912.633	15835
912.748	15751
912.862	15576
912.976	15492
913.09	15245
913.204	15416
913.318	15466
913.431	15526
913.545	15633
913.659	15469
913.772	15336
913.886	15249
914	15241
914.113	15336
914.226	15405
914.34	15348
914.453	15207
914.566	15298
914.68	15146
914.793	15093
914.906	14990
915.019	14857
915.132	14883
915.245	14853
915.358	14861
915.47	14872
915.583	14792
915.696	14769
915.809	15017
915.921	15055
916.034	14845
916.146	14705
916.259	14716
916.371	14762
916.483	14826
916.595	14659
916.708	14686
916.82	14621
916.932	14735
917.044	14731
917.156	14594
917.268	14571
917.38	14560
917.491	14537
917.603	14526
917.715	14568
917.826	14659
917.938	14396
918.049	14225
918.161	14457
918.272	14571
918.384	14518
918.495	14381
918.606	14305
918.717	14229
918.828	14248
918.939	14313
919.05	14180
919.161	14313
919.272	14058
919.383	14065
919.494	14305
919.604	14438
919.715	14336
919.826	14252
919.936	14161
920.047	14267
920.157	14275
920.267	14473
920.378	14259
920.488	14172
920.598	14362
920.708	14537
920.818	14438
920.928	14366
921.038	14499
921.148	14465
921.258	14218
921.368	14119
921.477	13989
921.587	13955
921.697	13788
921.806	14008
921.916	13772
922.025	13689
922.134	13700
922.244	13559
922.353	13632
922.462	13525
922.571	13392
922.68	13304
922.789	13221
922.898	13282
923.007	13168
923.116	13198
923.224	13228
923.333	13183
923.442	13076
923.55	13084
923.659	13110
923.767	13171
923.876	13034
923.984	13114
924.092	13012
924.201	13057
924.309	12993
924.417	13015
924.525	12863
924.633	13015
924.741	13685
924.849	12810
924.956	12863
925.064	12707
925.172	12627
925.279	12677
925.387	12536
925.494	12730
925.602	12779
925.709	12734
925.816	12601
925.924	12578
926.031	12734
926.138	12627
926.245	12589
926.352	12544
926.459	12662
926.566	12642
926.673	12597
926.779	12433
926.886	12388
926.993	12296
927.099	12277
927.206	12205
927.312	12209
927.419	12365
927.525	12235
927.631	12251
927.737	12110
927.843	12072
927.95	12041
928.056	12019
928.162	12038
928.267	12038
928.373	12646
928.479	12060
928.585	11958
928.69	12083
928.796	12030
928.901	11866
929.007	11767
929.112	11935
929.218	11946
929.323	11851
929.428	11821
929.533	11923
929.638	11809
929.743	11817
929.848	11767
929.953	11764
930.058	11630
930.163	11463
930.267	11543
930.372	11657
930.477	11490
930.581	11611
930.685	11516
930.79	11414
930.894	11372
930.998	11326
931.103	11459
931.207	11204
931.311	11041
931.415	11052
931.519	10691
931.623	10752
