Data from test_V78500241_2378.txt Node
Date: Fri Mar 25 15:26:25 CST 2022
User: usil
Spectrometer: V785-0024
Trigger mode: 0
Integration Time (sec): 4.000000E-1
Scans to average: 1
Nonlinearity correction enabled: false
Boxcar width: 0
Storing dark spectrum: false
XAxis mode: Wavelengths
Number of Pixels in Spectrum: 1024
>>>>>Begin Spectral Data<<<<<
801.071	27424
801.214	27386
801.356	26975
801.499	27039
801.641	27077
801.783	26925
801.926	26769
802.068	26891
802.211	26781
802.353	26689
802.496	26476
802.638	26568
802.78	26655
802.923	26438
803.065	26530
803.208	26393
803.35	26518
803.492	26720
803.635	26769
803.777	26602
803.919	26750
804.061	27055
804.204	26918
804.346	26769
804.488	26705
804.63	26724
804.773	26594
804.915	26682
805.057	26815
805.199	26625
805.341	26845
805.483	26910
805.626	26883
805.768	26670
805.91	26872
806.052	26834
806.194	26804
806.336	26918
806.478	26925
806.62	26804
806.762	26861
806.904	27058
807.046	27542
807.188	27268
807.33	27306
807.472	27230
807.614	27062
807.756	27340
807.898	27188
808.04	27161
808.182	27150
808.324	27150
808.465	27230
808.607	27275
808.749	27401
808.891	27633
809.033	27587
809.174	27507
809.316	27507
809.458	27412
809.6	27477
809.741	27466
809.883	27519
810.025	27743
810.166	27701
810.308	27789
810.45	27663
810.591	27625
810.733	27348
810.875	27477
811.016	27340
811.158	27321
811.299	27412
811.441	27504
811.582	27485
811.724	27401
811.865	27313
812.007	27473
812.148	27435
812.29	27469
812.431	27530
812.573	27846
812.714	27800
812.855	27888
812.997	28013
813.138	28082
813.279	27819
813.421	27922
813.562	27781
813.703	27762
813.845	27580
813.986	27393
814.127	27264
814.268	27119
814.41	26971
814.551	27180
814.692	27199
814.833	27142
814.974	27028
815.115	27093
815.256	26952
815.397	26944
815.539	26986
815.68	26754
815.821	26849
815.962	26842
816.103	26975
816.244	26838
816.385	26674
816.526	26621
816.666	26381
816.807	26301
816.948	26442
817.089	26492
817.23	26446
817.371	26305
817.512	26358
817.653	26412
817.793	26202
817.934	26358
818.075	26374
818.216	26419
818.356	26347
818.497	26176
818.638	26005
818.778	25932
818.919	26069
819.06	26149
819.2	26278
819.341	26301
819.481	26389
819.622	26423
819.762	26735
819.903	26602
820.043	26476
820.184	26518
820.324	26400
820.465	26560
820.605	26427
820.746	26511
820.886	26362
821.026	26366
821.167	26377
821.307	26457
821.447	26282
821.588	26252
821.728	26092
821.868	25989
822.008	25849
822.149	25807
822.289	25811
822.429	25453
822.569	25586
822.709	25552
822.849	25343
822.99	25232
823.13	25217
823.27	25213
823.41	25194
823.55	25065
823.69	25301
823.83	25168
823.97	25008
824.11	24772
824.25	25057
824.389	25019
824.529	25031
824.669	25008
824.809	25156
824.949	25129
825.089	25038
825.228	24962
825.368	24798
825.508	24878
825.648	24920
825.787	24878
825.927	24802
826.067	24867
826.206	24684
826.346	24913
826.485	24867
826.625	24802
826.765	24935
826.904	24798
827.044	24604
827.183	24608
827.323	24570
827.462	24604
827.601	24532
827.741	24410
827.88	24566
828.02	24494
828.159	24536
828.298	24544
828.437	24681
828.577	24445
828.716	24555
828.855	24323
828.994	24361
829.134	24251
829.273	24357
829.412	24167
829.551	24369
829.69	24220
829.829	24201
829.968	24357
830.107	24213
830.246	24213
830.385	24296
830.524	24152
830.663	24110
830.802	24110
830.941	23802
831.08	23840
831.219	23889
831.357	24045
831.496	24201
831.635	23855
831.774	23805
831.913	23737
832.051	23604
832.19	23756
832.329	23661
832.467	23554
832.606	23589
832.744	23501
832.883	23554
833.022	23482
833.16	23497
833.299	23577
833.437	23570
833.576	23630
833.714	23695
833.852	23642
833.991	23699
834.129	23703
834.267	23676
834.406	23512
834.544	23703
834.682	23619
834.821	23695
834.959	23832
835.097	23425
835.235	23707
835.373	23589
835.511	23665
835.65	23467
835.788	23440
835.926	23193
836.064	23379
836.202	23356
836.34	23623
836.478	23531
836.615	23376
836.753	23398
836.891	23444
837.029	23463
837.167	23337
837.305	23387
837.443	23383
837.58	23231
837.718	23318
837.856	23349
837.993	23261
838.131	23242
838.269	23044
838.406	23269
838.544	23151
838.681	22915
838.819	22892
838.956	22721
839.094	22805
839.231	22896
839.369	23064
839.506	23246
839.643	23052
839.781	22839
839.918	22744
840.055	22717
840.193	22713
840.33	22694
840.467	22622
840.604	22698
840.742	22869
840.879	22653
841.016	22645
841.153	22516
841.29	22850
841.427	22664
841.564	22748
841.701	22710
841.838	22675
841.975	22527
842.112	22462
842.249	22443
842.385	22481
842.522	22683
842.659	22637
842.796	22478
842.933	22535
843.069	22325
843.206	22325
843.343	22443
843.479	22470
843.616	22428
843.752	22287
843.889	22173
844.025	22337
844.162	22200
844.298	22363
844.435	22204
844.571	22154
844.708	22188
844.844	22322
844.98	22333
845.117	22318
845.253	22223
845.389	22017
845.525	22112
845.661	22063
845.798	21808
845.934	21983
846.07	21915
846.206	22070
846.342	22059
846.478	21857
846.614	21835
846.75	21675
846.886	21587
847.022	21774
847.158	21778
847.294	21679
847.429	21637
847.565	21724
847.701	21934
847.837	21557
847.972	21393
848.108	21511
848.244	21473
848.379	21321
848.515	21386
848.65	21321
848.786	21203
848.921	21351
849.057	21329
849.192	21530
849.328	21291
849.463	21367
849.598	21218
849.734	21214
849.869	21085
850.004	21024
850.14	21089
850.275	21104
850.41	20899
850.545	21024
850.68	21013
850.815	21081
850.95	20929
851.085	21264
851.22	21096
851.355	21131
851.49	20975
851.625	21001
851.76	20979
851.895	21032
852.03	20868
852.165	20998
852.299	21127
852.434	21135
852.569	21070
852.703	21032
852.838	21074
852.973	21192
853.107	21195
853.242	20948
853.376	20899
853.511	20853
853.645	20823
853.78	21028
853.914	21001
854.048	20815
854.183	20925
854.317	20944
854.451	21157
854.585	20979
854.72	20899
854.854	20986
854.988	20906
855.122	20857
855.256	20743
855.39	20834
855.524	20944
855.658	20902
855.792	20929
855.926	20823
856.06	20971
856.194	20982
856.327	20921
856.461	20845
856.595	20842
856.729	20925
856.862	20986
856.996	20857
857.13	21001
857.263	21051
857.397	20963
857.53	20845
857.664	20925
857.797	21051
857.931	20967
858.064	20823
858.197	20956
858.331	20849
858.464	20823
858.597	20765
858.731	20853
858.864	20716
858.997	20758
859.13	20739
859.263	20857
859.396	20971
859.529	20826
859.662	20842
859.795	21005
859.928	20830
860.061	21100
860.194	21009
860.327	20937
860.46	20811
860.592	21074
860.725	20952
860.858	21036
860.99	20929
861.123	20746
861.256	20990
861.388	20876
861.521	21374
861.653	20750
861.786	20705
861.918	20765
862.05	20743
862.183	20800
862.315	20857
862.447	20845
862.58	20735
862.712	20670
862.844	20438
862.976	20644
863.108	20705
863.24	21112
863.372	20629
863.504	20769
863.636	20571
863.768	20632
863.9	20644
864.032	20598
864.164	20514
864.296	20545
864.428	20769
864.559	20697
864.691	20644
864.823	20587
864.954	20537
865.086	20480
865.217	20598
865.349	20450
865.48	20511
865.612	20476
865.743	20750
865.875	20492
866.006	20461
866.137	20518
866.269	20488
866.4	20537
866.531	20431
866.662	20431
866.793	20511
866.924	20419
867.055	20454
867.186	20317
867.317	20320
867.448	20343
867.579	20385
867.71	20408
867.841	20351
867.972	20298
868.103	20355
868.233	20431
868.364	20393
868.495	20503
868.625	20678
868.756	20876
868.886	20579
869.017	20590
869.147	20750
869.278	20754
869.408	20762
869.539	20613
869.669	20781
869.799	20773
869.929	20792
870.06	20864
870.19	20925
870.32	21020
870.45	20998
870.58	21017
870.71	21207
870.84	21230
870.97	21131
871.1	21085
871.23	21260
871.36	21249
871.489	21226
871.619	21226
871.749	21321
871.879	21367
872.008	21306
872.138	21218
872.267	21203
872.397	21173
872.526	21112
872.656	21096
872.785	21077
872.915	21359
873.044	21325
873.173	21287
873.303	21298
873.432	21321
873.561	21348
873.69	21355
873.819	21264
873.948	21393
874.077	21386
874.206	21211
874.335	21317
874.464	21355
874.593	21576
874.722	21519
874.851	21641
874.979	21420
875.108	21561
875.237	21530
875.365	21462
875.494	21428
875.623	21538
875.751	21454
875.88	21644
876.008	21705
876.136	21675
876.265	21949
876.393	22044
876.521	21911
876.65	21926
876.778	21907
876.906	22093
877.034	21903
877.162	21846
877.29	21759
877.418	21930
877.546	22051
877.674	21846
877.802	22010
877.93	21869
878.058	21755
878.185	21690
878.313	21789
878.441	21835
878.568	21732
878.696	21751
878.824	21975
878.951	21975
879.079	22040
879.206	22192
879.333	22124
879.461	21838
879.588	21880
879.715	22101
879.842	22051
879.97	21857
880.097	21823
880.224	21743
880.351	21778
880.478	21709
880.605	21682
880.732	21690
880.859	22029
880.986	21698
881.112	21751
881.239	21595
881.366	21355
881.493	21351
881.619	21344
881.746	21291
881.872	21363
881.999	21393
882.125	21211
882.252	21264
882.378	21348
882.505	21454
882.631	21081
882.757	21039
882.883	21081
883.01	21013
883.136	20956
883.262	21017
883.388	20811
883.514	20910
883.64	21024
883.766	21001
883.892	20678
884.018	20781
884.143	20986
884.269	21020
884.395	20705
884.52	20640
884.646	20640
884.772	20541
884.897	20522
885.023	20735
885.148	20705
885.274	20773
885.399	20781
885.524	20609
885.65	20689
885.775	20549
885.9	20522
886.025	20663
886.15	20708
886.275	20609
886.4	20606
886.525	20651
886.65	20533
886.775	20640
886.9	20712
887.025	20895
887.149	20598
887.274	20442
887.399	20431
887.523	20450
887.648	20313
887.773	20339
887.897	20419
888.021	20476
888.146	20237
888.27	20427
888.395	20442
888.519	20446
888.643	20484
888.767	20450
888.891	20419
889.015	20218
889.139	20263
889.263	20210
889.387	20438
889.511	20461
889.635	20191
889.759	20199
889.883	20172
890.006	20275
890.13	20240
890.254	20176
890.377	20206
890.501	19906
890.624	19970
890.748	20005
890.871	19925
890.995	19769
891.118	19727
891.241	19700
891.364	19803
891.488	19894
891.611	19772
891.734	19712
891.857	19814
891.98	19769
892.103	19871
892.226	19849
892.349	19780
892.471	19708
892.594	19731
892.717	19738
892.839	19772
892.962	19666
893.085	19833
893.207	19635
893.33	19689
893.452	19594
893.575	19658
893.697	19658
893.819	19822
893.941	19963
894.064	19795
894.186	19674
894.308	19666
894.43	19708
894.552	19734
894.674	19799
894.796	19559
894.918	19746
895.04	19616
895.161	19841
895.283	19704
895.405	19632
895.526	19685
895.648	19750
895.769	19746
895.891	19791
896.012	19788
896.134	19681
896.255	19677
896.376	19708
896.498	19677
896.619	19693
896.74	19753
896.861	19841
896.982	19978
897.103	20202
897.224	19883
897.345	19921
897.466	19833
897.587	19928
897.708	20111
897.828	19921
897.949	19906
898.07	19765
898.19	19978
898.311	20024
898.431	19887
898.552	19997
898.672	20062
898.792	19898
898.913	19932
899.033	19921
899.153	19727
899.273	19658
899.393	19594
899.513	19750
899.633	19696
899.753	19765
899.873	19674
899.993	19651
900.113	19601
900.232	19613
900.352	19457
900.472	19449
900.591	19525
900.711	19491
900.83	19430
900.95	19514
901.069	19499
901.189	19422
901.308	19164
901.427	19137
901.546	18973
901.665	19084
901.784	18996
901.904	18958
902.023	18810
902.141	18639
902.26	18612
902.379	18734
902.498	18707
902.617	18448
902.735	18547
902.854	18498
902.973	18509
903.091	18201
903.21	18205
903.328	18186
903.446	18114
903.565	18129
903.683	18022
903.801	18015
903.919	17916
904.038	18106
904.156	17939
904.274	17885
904.392	17767
904.51	17745
904.627	17737
904.745	17790
904.863	17798
904.981	17676
905.098	17429
905.216	17512
905.334	17535
905.451	17509
905.569	17532
905.686	17505
905.803	17379
905.921	17345
906.038	17341
906.155	17356
906.272	17121
906.389	17174
906.506	17090
906.623	17098
906.74	17060
906.857	16908
906.974	16919
907.091	17098
907.208	17102
907.324	17117
907.441	16866
907.557	16816
907.674	16786
907.79	16698
907.907	16653
908.023	16725
908.139	16797
908.256	16687
908.372	16679
908.488	16618
908.604	16565
908.72	16417
908.836	16516
908.952	16440
909.068	16481
909.184	16577
909.3	16447
909.415	16523
909.531	16459
909.647	16261
909.762	16124
909.878	16116
909.993	16257
910.108	16158
910.224	16109
910.339	16143
910.454	16006
910.57	15987
910.685	15831
910.8	16215
910.915	16150
911.03	15991
911.145	15888
911.259	15724
911.374	15698
911.489	15698
911.604	15625
911.718	15568
911.833	15576
911.947	15454
912.062	15401
912.176	15485
912.291	15561
912.405	15492
912.519	15720
912.633	15755
912.748	15633
912.862	15584
912.976	15344
913.09	15302
913.204	15275
913.318	15294
913.431	15511
913.545	15454
913.659	15473
913.772	15245
913.886	15233
914	15135
914.113	15173
914.226	15344
914.34	15108
914.453	15085
914.566	15058
914.68	15066
914.793	14971
914.906	14830
915.019	14830
915.132	14724
915.245	14815
915.358	14735
915.47	14693
915.583	14800
915.696	14857
915.809	14887
915.921	14998
916.034	14693
916.146	14659
916.259	14716
916.371	14842
916.483	14785
916.595	14549
916.708	14590
916.82	14621
916.932	14587
917.044	14560
917.156	14488
917.268	14419
917.38	14377
917.491	14339
917.603	14549
917.715	14568
917.826	14526
917.938	14271
918.049	14210
918.161	14465
918.272	14579
918.384	14556
918.495	14423
918.606	14313
918.717	14107
918.828	14202
918.939	14214
919.05	14073
919.161	14145
919.272	13890
919.383	14176
919.494	14195
919.604	14362
919.715	14187
919.826	14084
919.936	14119
920.047	14176
920.157	14180
920.267	14282
920.378	14252
920.488	14134
920.598	14332
920.708	14476
920.818	14282
920.928	14347
921.038	14549
921.148	14313
921.258	14172
921.368	14001
921.477	13963
921.587	13913
921.697	13765
921.806	14027
921.916	13765
922.025	13590
922.134	13605
922.244	13632
922.353	13540
922.462	13491
922.571	13377
922.68	13320
922.789	13247
922.898	13198
923.007	13099
923.116	13221
923.224	13259
923.333	13228
923.442	13050
923.55	13065
923.659	13050
923.767	13168
923.876	12996
923.984	13004
924.092	12939
924.201	12973
924.309	12973
924.417	12951
924.525	12913
924.633	12886
924.741	13757
924.849	12612
924.956	12798
925.064	12684
925.172	12574
925.279	12604
925.387	12696
925.494	12604
925.602	12802
925.709	12764
925.816	12540
925.924	12593
926.031	12639
926.138	12646
926.245	12551
926.352	12502
926.459	12483
926.566	12711
926.673	12574
926.779	12410
926.886	12426
926.993	12235
927.099	12270
927.206	12167
927.312	12243
927.419	12205
927.525	12205
927.631	12175
927.737	12117
927.843	12110
927.95	11897
928.056	12011
928.162	12049
928.267	12117
928.373	12726
928.479	12159
928.585	11927
928.69	12041
928.796	12087
928.901	11920
929.007	11764
929.112	11927
929.218	11859
929.323	11767
929.428	11897
929.533	11821
929.638	11707
929.743	11737
929.848	11783
929.953	11665
930.058	11672
930.163	11505
930.267	11474
930.372	11608
930.477	11448
930.581	11684
930.685	11509
930.79	11486
930.894	11322
930.998	11410
931.103	11551
931.207	11132
931.311	11060
931.415	10995
931.519	10793
931.623	10687
