Data from test_V78500241_401.txt Node
Date: Fri Mar 25 15:12:39 CST 2022
User: usil
Spectrometer: V785-0024
Trigger mode: 0
Integration Time (sec): 4.000000E-1
Scans to average: 1
Nonlinearity correction enabled: false
Boxcar width: 0
Storing dark spectrum: false
XAxis mode: Wavelengths
Number of Pixels in Spectrum: 1024
>>>>>Begin Spectral Data<<<<<
801.071	26811
801.214	26899
801.356	26716
801.499	26648
801.641	26377
801.783	26404
801.926	26602
802.068	26393
802.211	26336
802.353	26263
802.496	26081
802.638	26001
802.78	26122
802.923	26081
803.065	25871
803.208	25978
803.35	26050
803.492	26225
803.635	26183
803.777	26161
803.919	26210
804.061	26533
804.204	26115
804.346	26221
804.488	26214
804.63	26259
804.773	26126
804.915	26134
805.057	26294
805.199	26065
805.341	26248
805.483	26278
805.626	26301
805.768	26119
805.91	26278
806.052	26206
806.194	26286
806.336	26480
806.478	26419
806.62	26396
806.762	26438
806.904	26705
807.046	26899
807.188	26674
807.33	26609
807.472	26731
807.614	26651
807.756	26640
807.898	26522
808.04	26434
808.182	26636
808.324	26476
808.465	26507
808.607	26842
808.749	26883
808.891	26857
809.033	27017
809.174	26918
809.316	26918
809.458	26849
809.6	26883
809.741	26910
809.883	27024
810.025	27062
810.166	27108
810.308	27150
810.45	27070
810.591	27089
810.733	26944
810.875	26712
811.016	26830
811.158	26834
811.299	26849
811.441	27005
811.582	27047
811.724	26960
811.865	26895
812.007	26861
812.148	26864
812.29	26872
812.431	27119
812.573	27089
812.714	27237
812.855	27355
812.997	27473
813.138	27583
813.279	27427
813.421	27408
813.562	27424
813.703	27207
813.845	26998
813.986	26754
814.127	26533
814.268	26453
814.41	26507
814.551	26343
814.692	26640
814.833	26362
814.974	26415
815.115	26518
815.256	26404
815.397	26431
815.539	26332
815.68	26328
815.821	26355
815.962	26237
816.103	26275
816.244	26183
816.385	26149
816.526	26012
816.666	25818
816.807	25852
816.948	25693
817.089	25833
817.23	25841
817.371	25807
817.512	25830
817.653	25689
817.793	25746
817.934	25830
818.075	25883
818.216	25765
818.356	25868
818.497	25757
818.638	25468
818.778	25578
818.919	25586
819.06	25544
819.2	25658
819.341	25761
819.481	25624
819.622	25871
819.762	26130
819.903	26142
820.043	25818
820.184	26027
820.324	25887
820.465	26069
820.605	25887
820.746	25925
820.886	25845
821.026	25776
821.167	25936
821.307	25936
821.447	25807
821.588	25552
821.728	25643
821.868	25362
822.008	25278
822.149	25274
822.289	25301
822.429	25057
822.569	24886
822.709	24951
822.849	24616
822.99	24821
823.13	24738
823.27	24608
823.41	24479
823.55	24589
823.69	24464
823.83	24631
823.97	24445
824.11	24372
824.25	24289
824.389	24414
824.529	24540
824.669	24361
824.809	24414
824.949	24399
825.089	24509
825.228	24479
825.368	24308
825.508	24114
825.648	24228
825.787	24194
825.927	24315
826.067	24171
826.206	24251
826.346	24190
826.485	24319
826.625	24334
826.765	24334
826.904	24174
827.044	23904
827.183	24140
827.323	23939
827.462	24026
827.601	24007
827.741	23965
827.88	23977
828.02	23840
828.159	24015
828.298	23908
828.437	23920
828.577	23920
828.716	24129
828.855	23889
828.994	23710
829.134	23657
829.273	23916
829.412	23790
829.551	23657
829.69	23710
829.829	23790
829.968	23752
830.107	23794
830.246	23691
830.385	23585
830.524	23505
830.663	23463
830.802	23345
830.941	23269
831.08	23330
831.219	23296
831.357	23349
831.496	23429
831.635	23223
831.774	23147
831.913	23277
832.051	23064
832.19	23166
832.329	23086
832.467	23033
832.606	22919
832.744	22908
832.883	23079
833.022	23117
833.16	23041
833.299	23067
833.437	22995
833.576	23128
833.714	23041
833.852	23113
833.991	23067
834.129	23159
834.267	23159
834.406	22961
834.544	23086
834.682	22976
834.821	23037
834.959	23223
835.097	22843
835.235	23098
835.373	23121
835.511	23003
835.65	22942
835.788	22976
835.926	22752
836.064	22649
836.202	22706
836.34	22927
836.478	22911
836.615	22915
836.753	22938
836.891	23029
837.029	22984
837.167	22946
837.305	22816
837.443	22725
837.58	22736
837.718	22850
837.856	22805
837.993	22786
838.131	22839
838.269	22691
838.406	22607
838.544	22599
838.681	22333
838.819	22421
838.956	22272
839.094	22272
839.231	22333
839.369	22280
839.506	22569
839.643	22443
839.781	22147
839.918	22169
840.055	22261
840.193	22196
840.33	22192
840.467	22196
840.604	22215
840.742	22447
840.879	21998
841.016	22116
841.153	22211
841.29	22249
841.427	22067
841.564	22139
841.701	22169
841.838	22120
841.975	22135
842.112	22044
842.249	21934
842.385	21865
842.522	22131
842.659	21892
842.796	21934
842.933	21991
843.069	21968
843.206	21774
843.343	21983
843.479	21907
843.616	22017
843.752	21618
843.889	21713
844.025	21941
844.162	21637
844.298	21690
844.435	21778
844.571	21576
844.708	21698
844.844	21873
844.98	21808
845.117	21857
845.253	21728
845.389	21690
845.525	21614
845.661	21572
845.798	21439
845.934	21469
846.07	21374
846.206	21473
846.342	21538
846.478	21420
846.614	21370
846.75	21157
846.886	21154
847.022	21241
847.158	21199
847.294	21207
847.429	21237
847.565	21192
847.701	21545
847.837	20975
847.972	20891
848.108	21039
848.244	21001
848.379	20788
848.515	20754
848.65	20754
848.786	20902
848.921	20872
849.057	20971
849.192	20937
849.328	20788
849.463	20864
849.598	20689
849.734	20735
849.869	20667
850.004	20499
850.14	20552
850.275	20602
850.41	20518
850.545	20454
850.68	20438
850.815	20701
850.95	20636
851.085	20651
851.22	20735
851.355	20659
851.49	20454
851.625	20480
851.76	20313
851.895	20450
852.03	20442
852.165	20484
852.299	20518
852.434	20556
852.569	20530
852.703	20530
852.838	20735
852.973	20769
853.107	20594
853.242	20552
853.376	20423
853.511	20259
853.645	20259
853.78	20492
853.914	20313
854.048	20450
854.183	20278
854.317	20393
854.451	20651
854.585	20339
854.72	20301
854.854	20461
854.988	20343
855.122	20423
855.256	20126
855.39	20385
855.524	20434
855.658	20434
855.792	20374
855.926	20358
856.06	20526
856.194	20454
856.327	20320
856.461	20423
856.595	20298
856.729	20427
856.862	20526
856.996	20377
857.13	20655
857.263	20484
857.397	20461
857.53	20385
857.664	20389
857.797	20473
857.931	20412
858.064	20324
858.197	20495
858.331	20526
858.464	20244
858.597	20218
858.731	20294
858.864	20305
858.997	20355
859.13	20377
859.263	20396
859.396	20412
859.529	20317
859.662	20347
859.795	20168
859.928	20408
860.061	20374
860.194	20617
860.327	20549
860.46	20301
860.592	20434
860.725	20495
860.858	20385
860.99	20469
861.123	20343
861.256	20286
861.388	20465
861.521	21093
861.653	20393
861.786	20126
861.918	20183
862.05	20221
862.183	20278
862.315	20374
862.447	20358
862.58	20240
862.712	20142
862.844	20157
862.976	20111
863.108	20244
863.24	20625
863.372	20012
863.504	20081
863.636	20027
863.768	20103
863.9	20058
864.032	20005
864.164	20126
864.296	20088
864.428	20168
864.559	20168
864.691	20138
864.823	20115
864.954	20134
865.086	19970
865.217	20039
865.349	20024
865.48	20008
865.612	19997
865.743	20157
865.875	20096
866.006	19944
866.137	19898
866.269	19940
866.4	20035
866.531	20062
866.662	19986
866.793	19974
866.924	19879
867.055	20024
867.186	19947
867.317	19963
867.448	19803
867.579	19902
867.71	19837
867.841	19868
867.972	20062
868.103	19970
868.233	19963
868.364	19978
868.495	20142
868.625	20218
868.756	20218
868.886	20176
869.017	20088
869.147	20320
869.278	20305
869.408	20259
869.539	20221
869.669	20332
869.799	20210
869.929	20294
870.06	20233
870.19	20663
870.32	20499
870.45	20552
870.58	20636
870.71	20651
870.84	20670
870.97	20667
871.1	20488
871.23	20819
871.36	20720
871.489	20644
871.619	20785
871.749	20819
871.879	20857
872.008	20998
872.138	20739
872.267	20857
872.397	20648
872.526	20636
872.656	20769
872.785	20594
872.915	20785
873.044	21009
873.173	20838
873.303	20815
873.432	20876
873.561	20838
873.69	20864
873.819	20838
873.948	20724
874.077	20769
874.206	20750
874.335	20712
874.464	20845
874.593	21028
874.722	21074
874.851	21066
874.979	21070
875.108	21070
875.237	20975
875.365	20880
875.494	20994
875.623	21108
875.751	20975
875.88	21062
876.008	21173
876.136	21275
876.265	21496
876.393	21599
876.521	21587
876.65	21633
876.778	21507
876.906	21526
877.034	21389
877.162	21435
877.29	21355
877.418	21557
877.546	21268
877.674	21485
877.802	21504
877.93	21374
878.058	21454
878.185	21386
878.313	21393
878.441	21435
878.568	21268
878.696	21275
878.824	21363
878.951	21420
879.079	21606
879.206	21667
879.333	21542
879.461	21511
879.588	21504
879.715	21591
879.842	21774
879.97	21462
880.097	21226
880.224	21150
880.351	21214
880.478	21256
880.605	21230
880.732	21241
880.859	21386
880.986	21313
881.112	21405
881.239	21176
881.366	20941
881.493	20853
881.619	20826
881.746	20941
881.872	20750
881.999	20750
882.125	20667
882.252	20826
882.378	20754
882.505	20952
882.631	20731
882.757	20598
882.883	20689
883.01	20495
883.136	20476
883.262	20396
883.388	20465
883.514	20484
883.64	20556
883.766	20552
883.892	20317
884.018	20309
884.143	20613
884.269	20594
884.395	20324
884.52	20130
884.646	20161
884.772	20153
884.897	20088
885.023	20214
885.148	20271
885.274	20343
885.399	20431
885.524	20183
885.65	20172
885.775	20100
885.9	20202
886.025	20233
886.15	20233
886.275	20161
886.4	19974
886.525	20107
886.65	20027
886.775	20153
886.9	20351
887.025	20351
887.149	20138
887.274	20016
887.399	20005
887.523	19970
887.648	19868
887.773	19856
887.897	20126
888.021	20001
888.146	19826
888.27	20077
888.395	19967
888.519	20065
888.643	20069
888.767	20005
888.891	19852
889.015	19826
889.139	19856
889.263	19765
889.387	19841
889.511	19936
889.635	19928
889.759	19814
889.883	19746
890.006	19822
890.13	19898
890.254	19715
890.377	19719
890.501	19525
890.624	19476
890.748	19620
890.871	19400
890.995	19274
891.118	19381
891.241	19400
891.364	19381
891.488	19445
891.611	19343
891.734	19301
891.857	19384
891.98	19240
892.103	19285
892.226	19312
892.349	19362
892.471	19175
892.594	19316
892.717	19278
892.839	19240
892.962	19289
893.085	19236
893.207	19358
893.33	19236
893.452	19297
893.575	19327
893.697	19327
893.819	19464
893.941	19381
894.064	19396
894.186	19194
894.308	19213
894.43	19301
894.552	19506
894.674	19316
894.796	19194
894.918	19251
895.04	19274
895.161	19343
895.283	19324
895.405	19331
895.526	19301
895.648	19240
895.769	19324
895.891	19278
896.012	19266
896.134	19301
896.255	19137
896.376	19297
896.498	19213
896.619	19438
896.74	19278
896.861	19251
896.982	19563
897.103	19681
897.224	19533
897.345	19571
897.466	19434
897.587	19556
897.708	19658
897.828	19514
897.949	19480
898.07	19411
898.19	19476
898.311	19616
898.431	19491
898.552	19502
898.672	19658
898.792	19635
898.913	19628
899.033	19358
899.153	19415
899.273	19346
899.393	19225
899.513	19331
899.633	19270
899.753	19331
899.873	19198
899.993	19304
900.113	19236
900.232	19175
900.352	19259
900.472	19133
900.591	19061
900.711	19084
900.83	19103
900.95	19107
901.069	19175
901.189	18932
901.308	18821
901.427	18616
901.546	18654
901.665	18711
901.784	18707
901.904	18563
902.023	18403
902.141	18194
902.26	18270
902.379	18224
902.498	18178
902.617	18197
902.735	18064
902.854	18178
902.973	18030
903.091	17935
903.21	17813
903.328	17783
903.446	17729
903.565	17653
903.683	17600
903.801	17581
903.919	17653
904.038	17714
904.156	17421
904.274	17596
904.392	17417
904.51	17478
904.627	17421
904.745	17497
904.863	17471
904.981	17337
905.098	17197
905.216	17109
905.334	17185
905.451	17113
905.569	17109
905.686	17086
905.803	17105
905.921	16957
906.038	17143
906.155	16919
906.272	16809
906.389	16953
906.506	16672
906.623	16649
906.74	16592
906.857	16535
906.974	16630
907.091	16759
907.208	16793
907.324	16729
907.441	16512
907.557	16322
907.674	16394
907.79	16284
907.907	16314
908.023	16363
908.139	16356
908.256	16386
908.372	16344
908.488	16287
908.604	16139
908.72	16017
908.836	16120
908.952	16044
909.068	16082
909.184	16135
909.3	16097
909.415	16120
909.531	16154
909.647	15778
909.762	15884
909.878	15781
909.993	15869
910.108	15808
910.224	15812
910.339	15793
910.454	15781
910.57	15641
910.685	15622
910.8	15854
910.915	15755
911.03	15595
911.145	15504
911.259	15420
911.374	15473
911.489	15507
911.604	15256
911.718	15123
911.833	15108
911.947	15123
912.062	15070
912.176	15142
912.291	15184
912.405	15161
912.519	15264
912.633	15351
912.748	15245
912.862	15119
912.976	15024
913.09	14925
913.204	14975
913.318	15013
913.431	15100
913.545	15135
913.659	15039
913.772	14963
913.886	14754
914	14796
914.113	14990
914.226	15028
914.34	14944
914.453	14720
914.566	14883
914.68	14716
914.793	14629
914.906	14530
915.019	14473
915.132	14408
915.245	14450
915.358	14522
915.47	14465
915.583	14454
915.696	14419
915.809	14549
915.921	14606
916.034	14374
916.146	14282
916.259	14366
916.371	14370
916.483	14408
916.595	14290
916.708	14298
916.82	14286
916.932	14339
917.044	14294
917.156	14256
917.268	14149
917.38	14195
917.491	14043
917.603	14111
917.715	14214
917.826	14142
917.938	14092
918.049	13986
918.161	14073
918.272	14339
918.384	14229
918.495	14081
918.606	13989
918.717	13883
918.828	14027
918.939	13993
919.05	13875
919.161	13894
919.272	13772
919.383	13761
919.494	13947
919.604	14218
919.715	13940
919.826	13826
919.936	13860
920.047	13955
920.157	13868
920.267	13997
920.378	13967
920.488	13795
920.598	14031
920.708	14172
920.818	14039
920.928	14020
921.038	14202
921.148	14126
921.258	13780
921.368	13799
921.477	13605
921.587	13616
921.697	13476
921.806	13533
921.916	13521
922.025	13339
922.134	13247
922.244	13251
922.353	13381
922.462	13217
922.571	13038
922.68	13027
922.789	12913
922.898	13000
923.007	12958
923.116	12996
923.224	12894
923.333	12867
923.442	12806
923.55	12734
923.659	12821
923.767	12863
923.876	12719
923.984	12719
924.092	12681
924.201	12623
924.309	12745
924.417	12776
924.525	12525
924.633	12608
924.741	13613
924.849	12452
924.956	12517
925.064	12407
925.172	12296
925.279	12395
925.387	12433
925.494	12460
925.602	12422
925.709	12410
925.816	12319
925.924	12346
926.031	12464
926.138	12338
926.245	12372
926.352	12262
926.459	12384
926.566	12456
926.673	12251
926.779	12228
926.886	12197
926.993	12083
927.099	11965
927.206	11958
927.312	11950
927.419	11992
927.525	11904
927.631	12076
927.737	11882
927.843	11764
927.95	11680
928.056	11798
928.162	11824
928.267	11878
928.373	12448
928.479	11935
928.585	11623
928.69	11745
928.796	11783
928.901	11657
929.007	11551
929.112	11672
929.218	11608
929.323	11558
929.428	11589
929.533	11726
929.638	11486
929.743	11471
929.848	11627
929.953	11501
930.058	11395
930.163	11223
930.267	11296
930.372	11425
930.477	11201
930.581	11478
930.685	11356
930.79	11201
930.894	11193
930.998	11098
931.103	11235
931.207	10923
931.311	10828
931.415	10679
931.519	10531
931.623	10577
