Data from test_V78500241_345.txt Node
Date: Fri Mar 25 15:12:15 CST 2022
User: usil
Spectrometer: V785-0024
Trigger mode: 0
Integration Time (sec): 4.000000E-1
Scans to average: 1
Nonlinearity correction enabled: false
Boxcar width: 0
Storing dark spectrum: false
XAxis mode: Wavelengths
Number of Pixels in Spectrum: 1024
>>>>>Begin Spectral Data<<<<<
801.071	27077
801.214	27123
801.356	26914
801.499	26750
801.641	26621
801.783	26579
801.926	26629
802.068	26644
802.211	26705
802.353	26621
802.496	26415
802.638	26366
802.78	26336
802.923	26183
803.065	26187
803.208	26005
803.35	26263
803.492	26282
803.635	26518
803.777	26499
803.919	26355
804.061	26670
804.204	26450
804.346	26317
804.488	26263
804.63	26320
804.773	26183
804.915	26423
805.057	26400
805.199	26415
805.341	26473
805.483	26457
805.626	26419
805.768	26358
805.91	26495
806.052	26492
806.194	26434
806.336	26663
806.478	26446
806.62	26355
806.762	26625
806.904	26750
807.046	26918
807.188	26823
807.33	26838
807.472	27070
807.614	26845
807.756	26750
807.898	26727
808.04	26689
808.182	26537
808.324	26727
808.465	26720
808.607	26918
808.749	26940
808.891	27138
809.033	27218
809.174	27222
809.316	27119
809.458	27028
809.6	26792
809.741	27116
809.883	27074
810.025	27237
810.166	27340
810.308	27275
810.45	27192
810.591	27245
810.733	27062
810.875	27138
811.016	26929
811.158	26986
811.299	26971
811.441	27157
811.582	27142
811.724	27020
811.865	27055
812.007	27032
812.148	27043
812.29	27070
812.431	27173
812.573	27370
812.714	27523
812.855	27504
812.997	27625
813.138	27918
813.279	27686
813.421	27595
813.562	27545
813.703	27416
813.845	27272
813.986	27070
814.127	26823
814.268	26632
814.41	26640
814.551	26663
814.692	26807
814.833	26655
814.974	26655
815.115	26720
815.256	26651
815.397	26678
815.539	26476
815.68	26583
815.821	26488
815.962	26457
816.103	26556
816.244	26514
816.385	26290
816.526	26244
816.666	25959
816.807	25989
816.948	26016
817.089	26122
817.23	25986
817.371	25989
817.512	25887
817.653	25944
817.793	25936
817.934	25906
818.075	25997
818.216	26031
818.356	25837
818.497	25822
818.638	25685
818.778	25662
818.919	25799
819.06	25769
819.2	25727
819.341	25822
819.481	25875
819.622	25978
819.762	26244
819.903	26218
820.043	26115
820.184	25974
820.324	26050
820.465	26027
820.605	26180
820.746	26100
820.886	25986
821.026	25989
821.167	26084
821.307	26153
821.447	25887
821.588	25974
821.728	25628
821.868	25750
822.008	25616
822.149	25392
822.289	25449
822.429	25171
822.569	25031
822.709	25099
822.849	25012
822.99	25004
823.13	24844
823.27	24817
823.41	24684
823.55	24555
823.69	24772
823.83	24753
823.97	24719
824.11	24391
824.25	24399
824.389	24441
824.529	24646
824.669	24639
824.809	24764
824.949	24616
825.089	24631
825.228	24696
825.368	24395
825.508	24361
825.648	24483
825.787	24369
825.927	24616
826.067	24547
826.206	24357
826.346	24551
826.485	24395
826.625	24311
826.765	24452
826.904	24448
827.044	24213
827.183	24190
827.323	24091
827.462	24228
827.601	24079
827.741	24178
827.88	24232
828.02	24003
828.159	24270
828.298	24186
828.437	24110
828.577	24045
828.716	24251
828.855	24076
828.994	23950
829.134	23737
829.273	23980
829.412	23783
829.551	23783
829.69	23984
829.829	23874
829.968	24045
830.107	23882
830.246	23904
830.385	23707
830.524	23691
830.663	23600
830.802	23623
830.941	23410
831.08	23531
831.219	23463
831.357	23638
831.496	23676
831.635	23471
831.774	23376
831.913	23360
832.051	23345
832.19	23250
832.329	23360
832.467	23220
832.606	23242
832.744	23231
832.883	23075
833.022	23090
833.16	23086
833.299	23239
833.437	23288
833.576	23136
833.714	23235
833.852	23197
833.991	23250
834.129	23265
834.267	23429
834.406	23124
834.544	23235
834.682	23303
834.821	23212
834.959	23254
835.097	23212
835.235	23334
835.373	23174
835.511	23242
835.65	23124
835.788	23067
835.926	22930
836.064	22900
836.202	22949
836.34	23166
836.478	23223
836.615	23052
836.753	22965
836.891	23159
837.029	23102
837.167	22904
837.305	23041
837.443	22869
837.58	22869
837.718	23098
837.856	22984
837.993	22873
838.131	22934
838.269	22812
838.406	22923
838.544	22691
838.681	22596
838.819	22653
838.956	22329
839.094	22409
839.231	22394
839.369	22535
839.506	22729
839.643	22626
839.781	22470
839.918	22379
840.055	22421
840.193	22356
840.33	22413
840.467	22390
840.604	22344
840.742	22531
840.879	22268
841.016	22325
841.153	22284
841.29	22379
841.427	22356
841.564	22329
841.701	22299
841.838	22280
841.975	22276
842.112	22318
842.249	22120
842.385	22131
842.522	22280
842.659	22211
842.796	22204
842.933	22162
843.069	21968
843.206	21991
843.343	22105
843.479	22082
843.616	22059
843.752	21895
843.889	21918
844.025	22143
844.162	21899
844.298	21994
844.435	21880
844.571	21899
844.708	21869
844.844	21934
844.98	22006
845.117	21937
845.253	21793
845.389	21747
845.525	21793
845.661	21812
845.798	21675
845.934	21705
846.07	21625
846.206	21610
846.342	21690
846.478	21515
846.614	21439
846.75	21325
846.886	21355
847.022	21416
847.158	21500
847.294	21477
847.429	21291
847.565	21264
847.701	21561
847.837	20967
847.972	21081
848.108	20986
848.244	21154
848.379	20921
848.515	21062
848.65	20998
848.786	21047
848.921	20929
849.057	21093
849.192	20982
849.328	20914
849.463	20933
849.598	20952
849.734	20902
849.869	20838
850.004	20708
850.14	20750
850.275	20651
850.41	20575
850.545	20602
850.68	20678
850.815	20667
850.95	20670
851.085	20769
851.22	20792
851.355	20659
851.49	20674
851.625	20682
851.76	20632
851.895	20587
852.03	20651
852.165	20625
852.299	20800
852.434	20956
852.569	20914
852.703	20667
852.838	20731
852.973	20861
853.107	20830
853.242	20674
853.376	20594
853.511	20366
853.645	20484
853.78	20693
853.914	20522
854.048	20659
854.183	20545
854.317	20606
854.451	20720
854.585	20526
854.72	20537
854.854	20720
854.988	20465
855.122	20549
855.256	20549
855.39	20526
855.524	20682
855.658	20625
855.792	20545
855.926	20549
856.06	20606
856.194	20670
856.327	20545
856.461	20526
856.595	20419
856.729	20514
856.862	20636
856.996	20621
857.13	20644
857.263	20716
857.397	20663
857.53	20533
857.664	20598
857.797	20602
857.931	20602
858.064	20465
858.197	20724
858.331	20564
858.464	20571
858.597	20473
858.731	20552
858.864	20454
858.997	20495
859.13	20499
859.263	20522
859.396	20549
859.529	20457
859.662	20514
859.795	20560
859.928	20724
860.061	20705
860.194	20819
860.327	20689
860.46	20617
860.592	20754
860.725	20667
860.858	20537
860.99	20427
861.123	20446
861.256	20590
861.388	20522
861.521	21157
861.653	20488
861.786	20324
861.918	20366
862.05	20419
862.183	20488
862.315	20469
862.447	20575
862.58	20495
862.712	20343
862.844	20313
862.976	20351
863.108	20343
863.24	20819
863.372	20248
863.504	20263
863.636	20259
863.768	20355
863.9	20313
864.032	20259
864.164	20267
864.296	20324
864.428	20492
864.559	20320
864.691	20309
864.823	20275
864.954	20256
865.086	20210
865.217	20259
865.349	20187
865.48	20180
865.612	20172
865.743	20355
865.875	20187
866.006	20126
866.137	20134
866.269	20233
866.4	20096
866.531	20115
866.662	20145
866.793	20096
866.924	20225
867.055	20172
867.186	20092
867.317	19947
867.448	20096
867.579	20130
867.71	20001
867.841	20027
867.972	20172
868.103	20035
868.233	20180
868.364	20092
868.495	20134
868.625	20210
868.756	20495
868.886	20206
869.017	20301
869.147	20351
869.278	20450
869.408	20339
869.539	20324
869.669	20362
869.799	20355
869.929	20526
870.06	20537
870.19	20708
870.32	20632
870.45	20587
870.58	20754
870.71	20716
870.84	20758
870.97	20712
871.1	20716
871.23	20986
871.36	21009
871.489	20769
871.619	20868
871.749	20963
871.879	21020
872.008	21051
872.138	20910
872.267	20982
872.397	20807
872.526	20788
872.656	20686
872.785	20891
872.915	20941
873.044	21043
873.173	20990
873.303	21005
873.432	21066
873.561	21013
873.69	21036
873.819	20979
873.948	21085
874.077	20990
874.206	20891
874.335	20979
874.464	21017
874.593	21279
874.722	21184
874.851	21199
874.979	21195
875.108	21272
875.237	21089
875.365	21028
875.494	21184
875.623	21313
875.751	21245
875.88	21241
876.008	21412
876.136	21481
876.265	21500
876.393	21755
876.521	21663
876.65	21743
876.778	21709
876.906	21549
877.034	21523
877.162	21580
877.29	21561
877.418	21599
877.546	21564
877.674	21466
877.802	21523
877.93	21530
878.058	21641
878.185	21424
878.313	21603
878.441	21595
878.568	21435
878.696	21450
878.824	21557
878.951	21564
879.079	21739
879.206	21831
879.333	21781
879.461	21648
879.588	21637
879.715	21762
879.842	21911
879.97	21652
880.097	21458
880.224	21389
880.351	21420
880.478	21363
880.605	21298
880.732	21401
880.859	21614
880.986	21382
881.112	21473
881.239	21275
881.366	21116
881.493	21165
881.619	21055
881.746	21058
881.872	20982
881.999	20910
882.125	20864
882.252	20899
882.378	21036
882.505	21009
882.631	20868
882.757	20682
882.883	20781
883.01	20678
883.136	20655
883.262	20499
883.388	20587
883.514	20739
883.64	20720
883.766	20686
883.892	20347
884.018	20434
884.143	20606
884.269	20785
884.395	20427
884.52	20393
884.646	20343
884.772	20343
884.897	20339
885.023	20366
885.148	20476
885.274	20511
885.399	20480
885.524	20343
885.65	20408
885.775	20419
885.9	20366
886.025	20396
886.15	20427
886.275	20313
886.4	20301
886.525	20164
886.65	20271
886.775	20328
886.9	20385
887.025	20564
887.149	20324
887.274	20187
887.399	20115
887.523	20153
887.648	20005
887.773	20062
887.897	20183
888.021	20183
888.146	20115
888.27	20111
888.395	20233
888.519	20195
888.643	20020
888.767	20062
888.891	20027
889.015	19849
889.139	19928
889.263	19860
889.387	20100
889.511	20126
889.635	20077
889.759	19932
889.883	19879
890.006	19947
890.13	20050
890.254	19750
890.377	19811
890.501	19681
890.624	19590
890.748	19719
890.871	19586
890.995	19590
891.118	19381
891.241	19563
891.364	19529
891.488	19578
891.611	19601
891.734	19518
891.857	19457
891.98	19464
892.103	19521
892.226	19445
892.349	19540
892.471	19236
892.594	19316
892.717	19529
892.839	19514
892.962	19396
893.085	19476
893.207	19392
893.33	19282
893.452	19236
893.575	19396
893.697	19339
893.819	19533
893.941	19674
894.064	19521
894.186	19365
894.308	19381
894.43	19445
894.552	19533
894.674	19521
894.796	19297
894.918	19365
895.04	19381
895.161	19499
895.283	19544
895.405	19331
895.526	19582
895.648	19377
895.769	19411
895.891	19499
896.012	19518
896.134	19392
896.255	19460
896.376	19403
896.498	19426
896.619	19472
896.74	19453
896.861	19567
896.982	19647
897.103	19757
897.224	19765
897.345	19689
897.466	19563
897.587	19685
897.708	19753
897.828	19761
897.949	19578
898.07	19453
898.19	19628
898.311	19632
898.431	19605
898.552	19628
898.672	19742
898.792	19784
898.913	19655
899.033	19460
899.153	19422
899.273	19312
899.393	19518
899.513	19518
899.633	19430
899.753	19476
899.873	19293
899.993	19403
900.113	19343
900.232	19343
900.352	19308
900.472	19327
900.591	19198
900.711	19236
900.83	19114
900.95	19350
901.069	19213
901.189	19187
901.308	18875
901.427	18901
901.546	18859
901.665	18833
901.784	18745
901.904	18741
902.023	18578
902.141	18422
902.26	18384
902.379	18334
902.498	18357
902.617	18216
902.735	18361
902.854	18365
902.973	18216
903.091	18076
903.21	18011
903.328	18022
903.446	17912
903.565	17790
903.683	17821
903.801	17668
903.919	17722
904.038	17748
904.156	17581
904.274	17611
904.392	17577
904.51	17505
904.627	17459
904.745	17608
904.863	17570
904.981	17356
905.098	17318
905.216	17273
905.334	17273
905.451	17258
905.569	17235
905.686	17208
905.803	17258
905.921	16999
906.038	17071
906.155	17094
906.272	17003
906.389	17037
906.506	16843
906.623	16820
906.74	16831
906.857	16763
906.974	16626
907.091	16828
907.208	16900
907.324	16858
907.441	16740
907.557	16516
907.674	16546
907.79	16470
907.907	16455
908.023	16508
908.139	16558
908.256	16421
908.372	16459
908.488	16417
908.604	16253
908.72	16181
908.836	16295
908.952	16128
909.068	16139
909.184	16329
909.3	16291
909.415	16246
909.531	16242
909.647	15953
909.762	15873
909.878	15915
909.993	16013
910.108	15911
910.224	15797
910.339	15888
910.454	15876
910.57	15823
910.685	15637
910.8	16036
910.915	15876
911.03	15724
911.145	15618
911.259	15542
911.374	15644
911.489	15496
911.604	15530
911.718	15317
911.833	15306
911.947	15306
912.062	15161
912.176	15218
912.291	15268
912.405	15302
912.519	15469
912.633	15511
912.748	15287
912.862	15317
912.976	15123
913.09	15036
913.204	15112
913.318	15097
913.431	15329
913.545	15207
913.659	15165
913.772	15100
913.886	14994
914	15005
914.113	15039
914.226	15081
914.34	14967
914.453	14811
914.566	14960
914.68	14872
914.793	14743
914.906	14594
915.019	14552
915.132	14495
915.245	14541
915.358	14587
915.47	14648
915.583	14511
915.696	14716
915.809	14705
915.921	14724
916.034	14476
916.146	14446
916.259	14518
916.371	14632
916.483	14492
916.595	14423
916.708	14404
916.82	14484
916.932	14374
917.044	14434
917.156	14336
917.268	14157
917.38	14233
917.491	14225
917.603	14164
917.715	14275
917.826	14317
917.938	14195
918.049	14077
918.161	14248
918.272	14419
918.384	14282
918.495	14149
918.606	14065
918.717	13925
918.828	14077
918.939	13963
919.05	13978
919.161	14050
919.272	13807
919.383	13795
919.494	14058
919.604	14172
919.715	14035
919.826	13921
919.936	13959
920.047	13997
920.157	14062
920.267	14259
920.378	13997
920.488	14001
920.598	14111
920.708	14164
920.818	14096
920.928	14130
921.038	14317
921.148	14244
921.258	14001
921.368	13791
921.477	13822
921.587	13765
921.697	13643
921.806	13791
921.916	13556
922.025	13460
922.134	13411
922.244	13358
922.353	13419
922.462	13339
922.571	13183
922.68	13145
922.789	13046
922.898	13042
923.007	12894
923.116	13103
923.224	13061
923.333	13000
923.442	12859
923.55	12757
923.659	12909
923.767	12966
923.876	12821
923.984	12871
924.092	12840
924.201	12791
924.309	12772
924.417	12795
924.525	12684
924.633	12700
924.741	13540
924.849	12460
924.956	12673
925.064	12509
925.172	12422
925.279	12433
925.387	12467
925.494	12467
925.602	12646
925.709	12467
925.816	12388
925.924	12361
926.031	12490
926.138	12414
926.245	12563
926.352	12350
926.459	12395
926.566	12380
926.673	12388
926.779	12258
926.886	12201
926.993	12152
927.099	12053
927.206	12095
927.312	12076
927.419	12102
927.525	12019
927.631	12110
927.737	11939
927.843	11977
927.95	11798
928.056	11859
928.162	11927
928.267	11863
928.373	12490
928.479	11908
928.585	11714
928.69	11802
928.796	11798
928.901	11764
929.007	11528
929.112	11703
929.218	11707
929.323	11729
929.428	11558
929.533	11729
929.638	11528
929.743	11528
929.848	11657
929.953	11638
930.058	11452
930.163	11322
930.267	11311
930.372	11452
930.477	11326
930.581	11463
930.685	11356
930.79	11204
930.894	11239
930.998	11162
931.103	11379
931.207	10942
931.311	10881
931.415	10763
931.519	10664
931.623	10599
