Data from test_V78500241_2325.txt Node
Date: Fri Mar 25 15:26:02 CST 2022
User: usil
Spectrometer: V785-0024
Trigger mode: 0
Integration Time (sec): 4.000000E-1
Scans to average: 1
Nonlinearity correction enabled: false
Boxcar width: 0
Storing dark spectrum: false
XAxis mode: Wavelengths
Number of Pixels in Spectrum: 1024
>>>>>Begin Spectral Data<<<<<
801.071	27466
801.214	27447
801.356	27424
801.499	27233
801.641	27142
801.783	27203
801.926	27138
802.068	27036
802.211	27089
802.353	26982
802.496	26746
802.638	26781
802.78	26697
802.923	26689
803.065	26590
803.208	26667
803.35	26674
803.492	26804
803.635	26914
803.777	26743
803.919	26967
804.061	27310
804.204	26990
804.346	26815
804.488	26887
804.63	26948
804.773	26887
804.915	26883
805.057	26963
805.199	26823
805.341	27043
805.483	27009
805.626	27043
805.768	26872
805.91	27116
806.052	27119
806.194	26960
806.336	27173
806.478	26994
806.62	26902
806.762	27169
806.904	27283
807.046	27515
807.188	27477
807.33	27492
807.472	27485
807.614	27416
807.756	27447
807.898	27252
808.04	27218
808.182	27340
808.324	27264
808.465	27386
808.607	27591
808.749	27637
808.891	27747
809.033	27751
809.174	27606
809.316	27701
809.458	27667
809.6	27542
809.741	27637
809.883	27656
810.025	27831
810.166	27873
810.308	27953
810.45	27808
810.591	27644
810.733	27580
810.875	27511
811.016	27485
811.158	27507
811.299	27641
811.441	27618
811.582	27850
811.724	27599
811.865	27591
812.007	27568
812.148	27564
812.29	27549
812.431	27717
812.573	27869
812.714	28040
812.855	28207
812.997	28204
813.138	28322
813.279	28166
813.421	28082
813.562	28112
813.703	28078
813.845	27869
813.986	27583
814.127	27340
814.268	27218
814.41	27336
814.551	27211
814.692	27256
814.833	27283
814.974	27275
815.115	27184
815.256	27268
815.397	27188
815.539	27260
815.68	27043
815.821	26883
815.962	27127
816.103	27066
816.244	26933
816.385	26925
816.526	26864
816.666	26609
816.807	26575
816.948	26693
817.089	26746
817.23	26655
817.371	26697
817.512	26476
817.653	26594
817.793	26514
817.934	26511
818.075	26549
818.216	26568
818.356	26655
818.497	26358
818.638	26339
818.778	26385
818.919	26267
819.06	26282
819.2	26541
819.341	26514
819.481	26385
819.622	26670
819.762	26705
819.903	26826
820.043	26788
820.184	26686
820.324	26583
820.465	26640
820.605	26663
820.746	26746
820.886	26465
821.026	26659
821.167	26587
821.307	26670
821.447	26556
821.588	26450
821.728	26309
821.868	26180
822.008	26058
822.149	26077
822.289	26081
822.429	25658
822.569	25674
822.709	25658
822.849	25544
822.99	25479
823.13	25400
823.27	25468
823.41	25434
823.55	25316
823.69	25381
823.83	25400
823.97	25266
824.11	25057
824.25	25152
824.389	25034
824.529	25187
824.669	25194
824.809	25168
824.949	25301
825.089	25190
825.228	25076
825.368	25042
825.508	24928
825.648	25084
825.787	25031
825.927	25095
826.067	25034
826.206	25164
826.346	24890
826.485	24981
826.625	25057
826.765	25091
826.904	25057
827.044	24856
827.183	24859
827.323	24745
827.462	24829
827.601	24791
827.741	24623
827.88	24829
828.02	24673
828.159	24810
828.298	24749
828.437	24886
828.577	24730
828.716	24798
828.855	24623
828.994	24426
829.134	24471
829.273	24650
829.412	24467
829.551	24407
829.69	24433
829.829	24593
829.968	24589
830.107	24555
830.246	24429
830.385	24441
830.524	24475
830.663	24311
830.802	24140
830.941	24083
831.08	24049
831.219	24117
831.357	24194
831.496	24258
831.635	23999
831.774	23969
831.913	23988
832.051	23920
832.19	23874
832.329	23817
832.467	23866
832.606	23665
832.744	23680
832.883	23809
833.022	23722
833.16	23840
833.299	23897
833.437	23828
833.576	23843
833.714	23889
833.852	23961
833.991	23893
834.129	23927
834.267	23882
834.406	23775
834.544	23851
834.682	23847
834.821	23771
834.959	24060
835.097	23764
835.235	23942
835.373	23756
835.511	23684
835.65	23634
835.788	23623
835.926	23539
836.064	23551
836.202	23558
836.34	23802
836.478	23699
836.615	23714
836.753	23531
836.891	23680
837.029	23665
837.167	23512
837.305	23551
837.443	23486
837.58	23395
837.718	23554
837.856	23471
837.993	23486
838.131	23493
838.269	23425
838.406	23383
838.544	23372
838.681	23170
838.819	23128
838.956	22881
839.094	22991
839.231	23037
839.369	23174
839.506	23379
839.643	23140
839.781	23006
839.918	22942
840.055	23010
840.193	22999
840.33	22869
840.467	22877
840.604	22858
840.742	23098
840.879	22774
841.016	22873
841.153	22862
841.29	23048
841.427	22801
841.564	22839
841.701	22866
841.838	22843
841.975	22885
842.112	22843
842.249	22675
842.385	22607
842.522	22915
842.659	22710
842.796	22561
842.933	22634
843.069	22580
843.206	22538
843.343	22668
843.479	22725
843.616	22618
843.752	22451
843.889	22413
844.025	22596
844.162	22382
844.298	22557
844.435	22402
844.571	22493
844.708	22512
844.844	22603
844.98	22436
845.117	22485
845.253	22386
845.389	22284
845.525	22314
845.661	22314
845.798	22082
845.934	22284
846.07	22082
846.206	22200
846.342	22200
846.478	22131
846.614	21930
846.75	21873
846.886	21922
847.022	21975
847.158	22002
847.294	21895
847.429	21911
847.565	21835
847.701	22032
847.837	21644
847.972	21553
848.108	21873
848.244	21732
848.379	21530
848.515	21443
848.65	21393
848.786	21492
848.921	21534
849.057	21542
849.192	21511
849.328	21431
849.463	21572
849.598	21374
849.734	21336
849.869	21313
850.004	21237
850.14	21112
850.275	21302
850.41	21119
850.545	21127
850.68	21195
850.815	21291
850.95	21249
851.085	21401
851.22	21367
851.355	21302
851.49	21165
851.625	21294
851.76	21176
851.895	21146
852.03	21062
852.165	21146
852.299	21127
852.434	21355
852.569	21211
852.703	21272
852.838	21245
852.973	21363
853.107	21241
853.242	21195
853.376	21017
853.511	20906
853.645	21009
853.78	21070
853.914	21051
854.048	20925
854.183	21218
854.317	21119
854.451	21237
854.585	21165
854.72	21013
854.854	21100
854.988	20982
855.122	21157
855.256	20975
855.39	21024
855.524	21226
855.658	21268
855.792	21066
855.926	21142
856.06	21116
856.194	21169
856.327	21020
856.461	21005
856.595	21036
856.729	21116
856.862	21207
856.996	21017
857.13	21260
857.263	21154
857.397	21123
857.53	21138
857.664	21058
857.797	21066
857.931	21195
858.064	21093
858.197	21089
858.331	21013
858.464	21051
858.597	20975
858.731	21074
858.864	21127
858.997	21020
859.13	21036
859.263	21047
859.396	21176
859.529	20990
859.662	21017
859.795	20971
859.928	21108
860.061	21245
860.194	21275
860.327	21116
860.46	21028
860.592	21184
860.725	21123
860.858	21256
860.99	21070
861.123	20872
861.256	21089
861.388	21081
861.521	21614
861.653	21013
861.786	20838
861.918	20861
862.05	20956
862.183	20902
862.315	20998
862.447	20963
862.58	21013
862.712	20716
862.844	20804
862.976	20849
863.108	20842
863.24	21230
863.372	20644
863.504	20758
863.636	20842
863.768	20815
863.9	20868
864.032	20701
864.164	20769
864.296	20876
864.428	20861
864.559	20754
864.691	20792
864.823	20758
864.954	20811
865.086	20807
865.217	20606
865.349	20594
865.48	20697
865.612	20693
865.743	20754
865.875	20758
866.006	20708
866.137	20708
866.269	20583
866.4	20693
866.531	20587
866.662	20575
866.793	20530
866.924	20663
867.055	20602
867.186	20613
867.317	20533
867.448	20503
867.579	20579
867.71	20400
867.841	20480
867.972	20590
868.103	20526
868.233	20606
868.364	20689
868.495	20731
868.625	20800
868.756	20891
868.886	20853
869.017	20868
869.147	20918
869.278	20982
869.408	20872
869.539	20807
869.669	21028
869.799	20918
869.929	20967
870.06	21009
870.19	21104
870.32	21199
870.45	21207
870.58	21348
870.71	21329
870.84	21283
870.97	21180
871.1	21211
871.23	21405
871.36	21405
871.489	21431
871.619	21431
871.749	21439
871.879	21466
872.008	21492
872.138	21469
872.267	21428
872.397	21310
872.526	21382
872.656	21420
872.785	21329
872.915	21481
873.044	21606
873.173	21439
873.303	21462
873.432	21507
873.561	21682
873.69	21428
873.819	21469
873.948	21458
874.077	21473
874.206	21538
874.335	21439
874.464	21507
874.593	21759
874.722	21564
874.851	21694
874.979	21751
875.108	21770
875.237	21739
875.365	21553
875.494	21747
875.623	21694
875.751	21701
875.88	21736
876.008	21751
876.136	21846
876.265	22112
876.393	22223
876.521	22200
876.65	22230
876.778	22192
876.906	21994
877.034	22158
877.162	22032
877.29	22226
877.418	22048
877.546	22063
877.674	22017
877.802	22063
877.93	22067
878.058	22082
878.185	21876
878.313	21994
878.441	22029
878.568	21857
878.696	22013
878.824	21930
878.951	22036
879.079	22284
879.206	22413
879.333	22166
879.461	22196
879.588	22169
879.715	22204
879.842	22306
879.97	22078
880.097	21937
880.224	21907
880.351	21846
880.478	21854
880.605	21816
880.732	21911
880.859	22135
880.986	21975
881.112	21831
881.239	21785
881.366	21675
881.493	21496
881.619	21370
881.746	21458
881.872	21500
881.999	21397
882.125	21485
882.252	21431
882.378	21485
882.505	21583
882.631	21287
882.757	21207
882.883	21268
883.01	21138
883.136	21104
883.262	20990
883.388	20956
883.514	21093
883.64	21131
883.766	21020
883.892	20986
884.018	21009
884.143	21074
884.269	21169
884.395	20857
884.52	20720
884.646	20823
884.772	20731
884.897	20689
885.023	20727
885.148	20914
885.274	20883
885.399	20868
885.524	20811
885.65	20834
885.775	20788
885.9	20686
886.025	20994
886.15	20727
886.275	20800
886.4	20777
886.525	20701
886.65	20716
886.775	20663
886.9	20956
887.025	21077
887.149	20636
887.274	20541
887.399	20492
887.523	20549
887.648	20621
887.773	20446
887.897	20514
888.021	20632
888.146	20454
888.27	20682
888.395	20708
888.519	20625
888.643	20579
888.767	20549
888.891	20396
889.015	20484
889.139	20343
889.263	20366
889.387	20434
889.511	20541
889.635	20450
889.759	20381
889.883	20252
890.006	20347
890.13	20480
890.254	20294
890.377	20237
890.501	20050
890.624	20088
890.748	20130
890.871	19940
890.995	19944
891.118	19837
891.241	19860
891.364	19986
891.488	20081
891.611	19814
891.734	19932
891.857	19978
891.98	19894
892.103	19852
892.226	19917
892.349	19833
892.471	19727
892.594	19795
892.717	19841
892.839	19765
892.962	19879
893.085	19963
893.207	20012
893.33	19772
893.452	19776
893.575	19852
893.697	19776
893.819	19955
893.941	19997
894.064	19936
894.186	19830
894.308	19734
894.43	19875
894.552	20092
894.674	19845
894.796	19700
894.918	19772
895.04	19776
895.161	19993
895.283	19978
895.405	19909
895.526	19890
895.648	19765
895.769	19803
895.891	19769
896.012	19917
896.134	19852
896.255	19917
896.376	19864
896.498	19837
896.619	19932
896.74	19841
896.861	19928
896.982	20145
897.103	20180
897.224	19967
897.345	20024
897.466	20115
897.587	20100
897.708	20119
897.828	20107
897.949	19963
898.07	19849
898.19	20024
898.311	20065
898.431	19936
898.552	20122
898.672	20187
898.792	19982
898.913	20043
899.033	19982
899.153	19982
899.273	19776
899.393	19898
899.513	19875
899.633	19803
899.753	19864
899.873	19887
899.993	19814
900.113	19841
900.232	19704
900.352	19700
900.472	19662
900.591	19544
900.711	19533
900.83	19559
900.95	19814
901.069	19670
901.189	19529
901.308	19164
901.427	19175
901.546	19209
901.665	19156
901.784	19225
901.904	19076
902.023	18954
902.141	18772
902.26	18757
902.379	18814
902.498	18734
902.617	18726
902.735	18642
902.854	18623
902.973	18616
903.091	18365
903.21	18308
903.328	18456
903.446	18216
903.565	18190
903.683	18209
903.801	18095
903.919	18178
904.038	18110
904.156	17931
904.274	18091
904.392	18015
904.51	17931
904.627	17969
904.745	18064
904.863	18041
904.981	17729
905.098	17627
905.216	17691
905.334	17733
905.451	17672
905.569	17512
905.686	17653
905.803	17687
905.921	17467
906.038	17467
906.155	17467
906.272	17493
906.389	17406
906.506	17216
906.623	17189
906.74	17162
906.857	17128
906.974	17105
907.091	17269
907.208	17174
907.324	17159
907.441	17128
907.557	16934
907.674	16961
907.79	16858
907.907	16793
908.023	16976
908.139	16904
908.256	16771
908.372	16736
908.488	16698
908.604	16641
908.72	16592
908.836	16504
908.952	16546
909.068	16630
909.184	16653
909.3	16535
909.415	16660
909.531	16565
909.647	16318
909.762	16424
909.878	16280
909.993	16192
910.108	16284
910.224	16291
910.339	16318
910.454	16109
910.57	16131
910.685	16082
910.8	16421
910.915	16200
911.03	16253
911.145	15926
911.259	15873
911.374	15842
911.489	15861
911.604	15857
911.718	15641
911.833	15736
911.947	15492
912.062	15492
912.176	15538
912.291	15614
912.405	15637
912.519	15823
912.633	15720
912.748	15587
912.862	15614
912.976	15435
913.09	15424
913.204	15374
913.318	15428
913.431	15542
913.545	15606
913.659	15580
913.772	15462
913.886	15351
914	15249
914.113	15310
914.226	15412
914.34	15370
914.453	15233
914.566	15386
914.68	15256
914.793	15131
914.906	14883
915.019	14834
915.132	14853
915.245	14811
915.358	14933
915.47	14971
915.583	14796
915.696	14948
915.809	14971
915.921	14975
916.034	14811
916.146	14788
916.259	14773
916.371	14861
916.483	14823
916.595	14712
916.708	14746
916.82	14739
916.932	14670
917.044	14659
917.156	14705
917.268	14560
917.38	14594
917.491	14484
917.603	14575
917.715	14644
917.826	14655
917.938	14507
918.049	14415
918.161	14503
918.272	14708
918.384	14640
918.495	14495
918.606	14275
918.717	14317
918.828	14320
918.939	14442
919.05	14240
919.161	14252
919.272	14168
919.383	14168
919.494	14313
919.604	14549
919.715	14237
919.826	14286
919.936	14252
920.047	14476
920.157	14328
920.267	14492
920.378	14267
920.488	14199
920.598	14457
920.708	14511
920.818	14355
920.928	14305
921.038	14545
921.148	14575
921.258	14202
921.368	14111
921.477	13986
921.587	13978
921.697	13940
921.806	14088
921.916	13921
922.025	13651
922.134	13670
922.244	13548
922.353	13696
922.462	13628
922.571	13499
922.68	13274
922.789	13236
922.898	13270
923.007	13312
923.116	13339
923.224	13301
923.333	13278
923.442	13095
923.55	13141
923.659	13160
923.767	13217
923.876	13053
923.984	13194
924.092	13012
924.201	13042
924.309	13072
924.417	13057
924.525	12939
924.633	12966
924.741	13932
924.849	12795
924.956	12932
925.064	12749
925.172	12677
925.279	12806
925.387	12719
925.494	12593
925.602	12863
925.709	12776
925.816	12650
925.924	12741
926.031	12772
926.138	12730
926.245	12692
926.352	12574
926.459	12681
926.566	12734
926.673	12620
926.779	12429
926.886	12544
926.993	12448
927.099	12369
927.206	12292
927.312	12350
927.419	12407
927.525	12304
927.631	12426
927.737	12258
927.843	12190
927.95	12064
928.056	12121
928.162	12167
928.267	12182
928.373	12745
928.479	12228
928.585	11920
928.69	12026
928.796	12144
928.901	12053
929.007	11786
929.112	12053
929.218	12011
929.323	11885
929.428	11897
929.533	12072
929.638	11828
929.743	11828
929.848	11889
929.953	11866
930.058	11748
930.163	11547
930.267	11634
930.372	11726
930.477	11532
930.581	11676
930.685	11638
930.79	11463
930.894	11547
930.998	11433
931.103	11619
931.207	11185
931.311	11121
931.415	10968
931.519	10831
931.623	10801
