Data from test_V78500241_3141.txt Node
Date: Fri Mar 25 15:31:43 CST 2022
User: usil
Spectrometer: V785-0024
Trigger mode: 0
Integration Time (sec): 4.000000E-1
Scans to average: 1
Nonlinearity correction enabled: false
Boxcar width: 0
Storing dark spectrum: false
XAxis mode: Wavelengths
Number of Pixels in Spectrum: 1024
>>>>>Begin Spectral Data<<<<<
801.071	27096
801.214	27104
801.356	26876
801.499	26880
801.641	26686
801.783	26689
801.926	26765
802.068	26678
802.211	26636
802.353	26609
802.496	26473
802.638	26309
802.78	26275
802.923	26286
803.065	26294
803.208	26119
803.35	26450
803.492	26461
803.635	26522
803.777	26511
803.919	26488
804.061	26819
804.204	26659
804.346	26507
804.488	26427
804.63	26453
804.773	26545
804.915	26568
805.057	26556
805.199	26492
805.341	26602
805.483	26613
805.626	26583
805.768	26583
805.91	26503
806.052	26648
806.194	26492
806.336	26838
806.478	26629
806.62	26621
806.762	26697
806.904	26948
807.046	27039
807.188	26948
807.33	27047
807.472	27142
807.614	26872
807.756	26910
807.898	26830
808.04	26720
808.182	26811
808.324	26902
808.465	26982
808.607	27146
808.749	27081
808.891	27222
809.033	27389
809.174	27211
809.316	27085
809.458	27062
809.6	27119
809.741	27348
809.883	27279
810.025	27332
810.166	27580
810.308	27443
810.45	27321
810.591	27264
810.733	27233
810.875	27188
811.016	27252
811.158	27119
811.299	27142
811.441	27424
811.582	27450
811.724	27142
811.865	27188
812.007	27226
812.148	27226
812.29	27226
812.431	27317
812.573	27523
812.714	27481
812.855	27614
812.997	27747
813.138	27934
813.279	27720
813.421	27648
813.562	27564
813.703	27443
813.845	27401
813.986	27211
814.127	27017
814.268	26769
814.41	26819
814.551	26796
814.692	26891
814.833	26823
814.974	26720
815.115	26921
815.256	26686
815.397	26720
815.539	26644
815.68	26568
815.821	26594
815.962	26651
816.103	26568
816.244	26602
816.385	26427
816.526	26343
816.666	26050
816.807	26027
816.948	26176
817.089	26168
817.23	26145
817.371	26100
817.512	26077
817.653	26092
817.793	25940
817.934	26100
818.075	26100
818.216	26130
818.356	26046
818.497	25951
818.638	25883
818.778	25875
818.919	26008
819.06	25966
819.2	26081
819.341	26122
819.481	26191
819.622	26218
819.762	26453
819.903	26130
820.043	26263
820.184	26290
820.324	26191
820.465	26366
820.605	26176
820.746	26153
820.886	26065
821.026	26187
821.167	26046
821.307	26313
821.447	26050
821.588	26012
821.728	25845
821.868	25575
822.008	25605
822.149	25670
822.289	25479
822.429	25377
822.569	25217
822.709	25289
822.849	25118
822.99	25141
823.13	25072
823.27	24951
823.41	24852
823.55	24760
823.69	24757
823.83	24806
823.97	24886
824.11	24681
824.25	24650
824.389	24673
824.529	24738
824.669	24627
824.809	24859
824.949	24768
825.089	24779
825.228	24768
825.368	24597
825.508	24589
825.648	24563
825.787	24593
825.927	24635
826.067	24517
826.206	24525
826.346	24620
826.485	24616
826.625	24532
826.765	24703
826.904	24574
827.044	24353
827.183	24308
827.323	24270
827.462	24323
827.601	24353
827.741	24365
827.88	24205
828.02	24216
828.159	24300
828.298	24197
828.437	24308
828.577	24247
828.716	24311
828.855	24045
828.994	23935
829.134	24057
829.273	23916
829.412	23920
829.551	23961
829.69	23992
829.829	24034
829.968	23977
830.107	24015
830.246	23992
830.385	23920
830.524	24030
830.663	23824
830.802	23790
830.941	23623
831.08	23592
831.219	23748
831.357	23745
831.496	23771
831.635	23608
831.774	23490
831.913	23505
832.051	23452
832.19	23288
832.329	23444
832.467	23284
832.606	23216
832.744	23216
832.883	23360
833.022	23235
833.16	23170
833.299	23269
833.437	23356
833.576	23509
833.714	23307
833.852	23326
833.991	23425
834.129	23490
834.267	23387
834.406	23292
834.544	23452
834.682	23360
834.821	23246
834.959	23535
835.097	23372
835.235	23429
835.373	23360
835.511	23334
835.65	23193
835.788	23140
835.926	23041
836.064	22942
836.202	22957
836.34	23071
836.478	23204
836.615	23071
836.753	23208
836.891	23269
837.029	23265
837.167	23044
837.305	22987
837.443	23075
837.58	23006
837.718	23140
837.856	23086
837.993	23025
838.131	23018
838.269	22850
838.406	22839
838.544	22892
838.681	22847
838.819	22630
838.956	22561
839.094	22561
839.231	22519
839.369	22710
839.506	22896
839.643	22828
839.781	22470
839.918	22341
840.055	22592
840.193	22500
840.33	22443
840.467	22405
840.604	22398
840.742	22717
840.879	22375
841.016	22341
841.153	22173
841.29	22455
841.427	22436
841.564	22504
841.701	22409
841.838	22341
841.975	22367
842.112	22295
842.249	22413
842.385	22272
842.522	22325
842.659	22196
842.796	22128
842.933	22181
843.069	22211
843.206	22097
843.343	22169
843.479	22154
843.616	22188
843.752	21983
843.889	21899
844.025	22078
844.162	22097
844.298	22044
844.435	21964
844.571	21960
844.708	21949
844.844	22177
844.98	22074
845.117	22109
845.253	21865
845.389	21762
845.525	21846
845.661	21835
845.798	21709
845.934	21781
846.07	21660
846.206	21755
846.342	21686
846.478	21728
846.614	21389
846.75	21332
846.886	21469
847.022	21511
847.158	21481
847.294	21416
847.429	21488
847.565	21462
847.701	21766
847.837	21100
847.972	21093
848.108	21268
848.244	21226
848.379	21055
848.515	20979
848.65	21062
848.786	21039
848.921	21051
849.057	21119
849.192	20979
849.328	21207
849.463	21066
849.598	21108
849.734	20963
849.869	20864
850.004	20788
850.14	20815
850.275	20830
850.41	20785
850.545	20743
850.68	20777
850.815	20807
850.95	20743
851.085	20963
851.22	20952
851.355	20823
851.49	20796
851.625	20785
851.76	20785
851.895	20754
852.03	20769
852.165	20811
852.299	20849
852.434	20941
852.569	20781
852.703	20750
852.838	20811
852.973	21013
853.107	20868
853.242	20689
853.376	20640
853.511	20484
853.645	20667
853.78	20838
853.914	20617
854.048	20583
854.183	20640
854.317	20693
854.451	20785
854.585	20746
854.72	20629
854.854	20712
854.988	20617
855.122	20731
855.256	20415
855.39	20659
855.524	20640
855.658	20667
855.792	20530
855.926	20602
856.06	20644
856.194	20769
856.327	20545
856.461	20720
856.595	20499
856.729	20606
856.862	20765
856.996	20594
857.13	20644
857.263	20705
857.397	20746
857.53	20579
857.664	20708
857.797	20781
857.931	20644
858.064	20762
858.197	20785
858.331	20651
858.464	20522
858.597	20518
858.731	20708
858.864	20552
858.997	20568
859.13	20686
859.263	20621
859.396	20697
859.529	20689
859.662	20556
859.795	20511
859.928	20667
860.061	20834
860.194	20819
860.327	20720
860.46	20571
860.592	20746
860.725	20750
860.858	20739
860.99	20583
861.123	20533
861.256	20522
861.388	20606
861.521	21081
861.653	20511
861.786	20374
861.918	20488
862.05	20571
862.183	20579
862.315	20499
862.447	20708
862.58	20530
862.712	20396
862.844	20396
862.976	20446
863.108	20469
863.24	20777
863.372	20347
863.504	20317
863.636	20355
863.768	20400
863.9	20347
864.032	20313
864.164	20324
864.296	20400
864.428	20374
864.559	20427
864.691	20427
864.823	20434
864.954	20370
865.086	20366
865.217	20256
865.349	20183
865.48	20244
865.612	20324
865.743	20366
865.875	20225
866.006	20259
866.137	20180
866.269	20199
866.4	20294
866.531	20115
866.662	20168
866.793	20199
866.924	20221
867.055	20214
867.186	20237
867.317	20149
867.448	20115
867.579	20058
867.71	20237
867.841	20077
867.972	20259
868.103	20077
868.233	20298
868.364	20191
868.495	20294
868.625	20385
868.756	20522
868.886	20381
869.017	20450
869.147	20476
869.278	20393
869.408	20404
869.539	20461
869.669	20492
869.799	20461
869.929	20514
870.06	20495
870.19	20629
870.32	20731
870.45	20716
870.58	20781
870.71	20842
870.84	20998
870.97	20823
871.1	20819
871.23	20883
871.36	21096
871.489	20979
871.619	21066
871.749	21062
871.879	21028
872.008	21169
872.138	21043
872.267	20941
872.397	20998
872.526	20880
872.656	20956
872.785	20925
872.915	21047
873.044	21226
873.173	21062
873.303	21077
873.432	21066
873.561	21104
873.69	21051
873.819	21020
873.948	21104
874.077	21135
874.206	21043
874.335	21013
874.464	21218
874.593	21256
874.722	21245
874.851	21233
874.979	21435
875.108	21374
875.237	21302
875.365	21028
875.494	21268
875.623	21424
875.751	21287
875.88	21435
876.008	21374
876.136	21454
876.265	21701
876.393	21838
876.521	21663
876.65	21827
876.778	21774
876.906	21724
877.034	21656
877.162	21633
877.29	21705
877.418	21610
877.546	21747
877.674	21637
877.802	21724
877.93	21599
878.058	21660
878.185	21591
878.313	21675
878.441	21637
878.568	21492
878.696	21553
878.824	21694
878.951	21698
879.079	21876
879.206	21987
879.333	21778
879.461	21694
879.588	21667
879.715	21736
879.842	21953
879.97	21717
880.097	21431
880.224	21435
880.351	21469
880.478	21477
880.605	21488
880.732	21454
880.859	21865
880.986	21504
881.112	21462
881.239	21473
881.366	21252
881.493	21214
881.619	21055
881.746	21036
881.872	21119
881.999	21070
882.125	21028
882.252	21047
882.378	21009
882.505	21142
882.631	20941
882.757	20861
882.883	20811
883.01	20788
883.136	20735
883.262	20727
883.388	20636
883.514	20765
883.64	20948
883.766	20632
883.892	20575
884.018	20583
884.143	20724
884.269	20880
884.395	20590
884.52	20278
884.646	20507
884.772	20442
884.897	20438
885.023	20492
885.148	20564
885.274	20564
885.399	20518
885.524	20278
885.65	20583
885.775	20408
885.9	20400
886.025	20575
886.15	20549
886.275	20328
886.4	20233
886.525	20419
886.65	20328
886.775	20343
886.9	20609
887.025	20629
887.149	20450
887.274	20267
887.399	20225
887.523	20210
887.648	20142
887.773	20138
887.897	20313
888.021	20240
888.146	20176
888.27	20218
888.395	20278
888.519	20122
888.643	20332
888.767	20248
888.891	20149
889.015	20058
889.139	20111
889.263	19955
889.387	20073
889.511	20119
889.635	20218
889.759	19936
889.883	20005
890.006	20012
890.13	20145
890.254	19921
890.377	19967
890.501	19818
890.624	19727
890.748	19894
890.871	19681
890.995	19594
891.118	19563
891.241	19628
891.364	19575
891.488	19791
891.611	19575
891.734	19613
891.857	19693
891.98	19628
892.103	19632
892.226	19563
892.349	19510
892.471	19426
892.594	19605
892.717	19525
892.839	19544
892.962	19548
893.085	19499
893.207	19499
893.33	19396
893.452	19445
893.575	19480
893.697	19426
893.819	19605
893.941	19712
894.064	19788
894.186	19453
894.308	19415
894.43	19548
894.552	19677
894.674	19670
894.796	19400
894.918	19510
895.04	19392
895.161	19632
895.283	19597
895.405	19426
895.526	19468
895.648	19449
895.769	19487
895.891	19567
896.012	19563
896.134	19495
896.255	19518
896.376	19502
896.498	19529
896.619	19590
896.74	19476
896.861	19670
896.982	19780
897.103	19909
897.224	19742
897.345	19788
897.466	19635
897.587	19769
897.708	19845
897.828	19723
897.949	19616
898.07	19613
898.19	19791
898.311	19738
898.431	19677
898.552	19811
898.672	19875
898.792	19696
898.913	19753
899.033	19510
899.153	19613
899.273	19480
899.393	19480
899.513	19548
899.633	19464
899.753	19457
899.873	19384
899.993	19563
900.113	19495
900.232	19472
900.352	19495
900.472	19346
900.591	19285
900.711	19320
900.83	19190
900.95	19369
901.069	19350
901.189	19266
901.308	18932
901.427	18894
901.546	18935
901.665	18951
901.784	18928
901.904	18806
902.023	18650
902.141	18445
902.26	18464
902.379	18422
902.498	18403
902.617	18414
902.735	18410
902.854	18311
902.973	18247
903.091	18102
903.21	17942
903.328	18114
903.446	17912
903.565	17863
903.683	17912
903.801	17767
903.919	17882
904.038	17790
904.156	17707
904.274	17657
904.392	17684
904.51	17684
904.627	17668
904.745	17707
904.863	17619
904.981	17467
905.098	17379
905.216	17311
905.334	17299
905.451	17284
905.569	17345
905.686	17410
905.803	17383
905.921	17109
906.038	17258
906.155	17025
906.272	17121
906.389	17048
906.506	16976
906.623	16904
906.74	16919
906.857	16702
906.974	16786
907.091	16923
907.208	17025
907.324	16885
907.441	16774
907.557	16664
907.674	16622
907.79	16580
907.907	16626
908.023	16538
908.139	16611
908.256	16580
908.372	16558
908.488	16402
908.604	16516
908.72	16284
908.836	16363
908.952	16322
909.068	16405
909.184	16394
909.3	16436
909.415	16405
909.531	16272
909.647	16074
909.762	16154
909.878	15960
909.993	16036
910.108	16017
910.224	16071
910.339	16029
910.454	15987
910.57	15819
910.685	15831
910.8	16044
910.915	16040
911.03	15778
911.145	15663
911.259	15667
911.374	15637
911.489	15481
911.604	15519
911.718	15382
911.833	15359
911.947	15249
912.062	15237
912.176	15386
912.291	15405
912.405	15435
912.519	15564
912.633	15557
912.748	15439
912.862	15386
912.976	15260
913.09	15100
913.204	15138
913.318	15275
913.431	15275
913.545	15408
913.659	15317
913.772	15230
913.886	15081
914	14990
914.113	15154
914.226	15119
914.34	15077
914.453	14864
914.566	15051
914.68	14899
914.793	14868
914.906	14743
915.019	14613
915.132	14526
915.245	14670
915.358	14682
915.47	14701
915.583	14613
915.696	14735
915.809	14720
915.921	14629
916.034	14678
916.146	14598
916.259	14549
916.371	14606
916.483	14625
916.595	14415
916.708	14507
916.82	14511
916.932	14419
917.044	14442
917.156	14415
917.268	14370
917.38	14355
917.491	14263
917.603	14374
917.715	14381
917.826	14362
917.938	14153
918.049	14081
918.161	14309
918.272	14427
918.384	14351
918.495	14229
918.606	14092
918.717	13997
918.828	14084
918.939	14103
919.05	14046
919.161	14039
919.272	13921
919.383	13967
919.494	14164
919.604	14240
919.715	14123
919.826	13959
919.936	14035
920.047	14126
920.157	13997
920.267	14206
920.378	14001
920.488	13978
920.598	14180
920.708	14347
920.818	14180
920.928	14233
921.038	14389
921.148	14286
921.258	13978
921.368	13913
921.477	13833
921.587	13807
921.697	13651
921.806	13883
921.916	13700
922.025	13472
922.134	13502
922.244	13445
922.353	13552
922.462	13324
922.571	13285
922.68	13012
922.789	13103
922.898	13156
923.007	13019
923.116	13061
923.224	13095
923.333	12958
923.442	12932
923.55	12932
923.659	12935
923.767	12958
923.876	12856
923.984	12916
924.092	12757
924.201	12764
924.309	12909
924.417	12779
924.525	12833
924.633	12802
924.741	13727
924.849	12574
924.956	12768
925.064	12646
925.172	12467
925.279	12528
925.387	12566
925.494	12585
925.602	12646
925.709	12578
925.816	12494
925.924	12479
926.031	12532
926.138	12506
926.245	12479
926.352	12300
926.459	12475
926.566	12490
926.673	12426
926.779	12251
926.886	12315
926.993	12205
927.099	12076
927.206	12072
927.312	12076
927.419	12178
927.525	12121
927.631	12152
927.737	11946
927.843	11969
927.95	11931
928.056	12026
928.162	11965
928.267	12011
928.373	12642
928.479	11992
928.585	11786
928.69	11904
928.796	11977
928.901	11874
929.007	11710
929.112	11786
929.218	11745
929.323	11714
929.428	11619
929.533	11813
929.638	11623
929.743	11695
929.848	11676
929.953	11570
930.058	11524
930.163	11376
930.267	11341
930.372	11490
930.477	11303
930.581	11554
930.685	11391
930.79	11269
930.894	11345
930.998	11254
931.103	11349
931.207	11003
931.311	10889
931.415	10946
931.519	10717
931.623	10668
