Data from test_V78500241_2614.txt Node
Date: Fri Mar 25 15:28:03 CST 2022
User: usil
Spectrometer: V785-0024
Trigger mode: 0
Integration Time (sec): 4.000000E-1
Scans to average: 1
Nonlinearity correction enabled: false
Boxcar width: 0
Storing dark spectrum: false
XAxis mode: Wavelengths
Number of Pixels in Spectrum: 1024
>>>>>Begin Spectral Data<<<<<
801.071	27222
801.214	27218
801.356	26967
801.499	26887
801.641	26792
801.783	26731
801.926	26880
802.068	26735
802.211	26530
802.353	26564
802.496	26377
802.638	26415
802.78	26286
802.923	26484
803.065	26126
803.208	26298
803.35	26358
803.492	26457
803.635	26541
803.777	26434
803.919	26488
804.061	26880
804.204	26545
804.346	26336
804.488	26461
804.63	26381
804.773	26389
804.915	26754
805.057	26655
805.199	26530
805.341	26583
805.483	26708
805.626	26701
805.768	26514
805.91	26598
806.052	26598
806.194	26503
806.336	26750
806.478	26701
806.62	26743
806.762	26640
806.904	26914
807.046	27203
807.188	27032
807.33	27070
807.472	27157
807.614	26944
807.756	27074
807.898	26845
808.04	26777
808.182	26887
808.324	26956
808.465	27077
808.607	27142
808.749	27275
808.891	27287
809.033	27374
809.174	27260
809.316	27230
809.458	27268
809.6	27268
809.741	27340
809.883	27344
810.025	27466
810.166	27496
810.308	27587
810.45	27454
810.591	27481
810.733	27291
810.875	27142
811.016	27089
811.158	27245
811.299	27355
811.441	27515
811.582	27534
811.724	27233
811.865	27207
812.007	27119
812.148	27161
812.29	27184
812.431	27405
812.573	27447
812.714	27542
812.855	27660
812.997	27690
813.138	27918
813.279	27808
813.421	27690
813.562	27739
813.703	27466
813.845	27450
813.986	27116
814.127	26933
814.268	26880
814.41	26986
814.551	26861
814.692	26880
814.833	26868
814.974	26929
815.115	26796
815.256	26739
815.397	26716
815.539	26807
815.68	26640
815.821	26590
815.962	26648
816.103	26746
816.244	26590
816.385	26495
816.526	26438
816.666	26210
816.807	26103
816.948	26164
817.089	26282
817.23	26176
817.371	26240
817.512	26016
817.653	26138
817.793	25963
817.934	26157
818.075	26054
818.216	26145
818.356	25940
818.497	26092
818.638	25902
818.778	25925
818.919	25936
819.06	25963
819.2	26020
819.341	26107
819.481	26138
819.622	26290
819.762	26389
819.903	26282
820.043	26362
820.184	26134
820.324	26183
820.465	26259
820.605	26229
820.746	26145
820.886	26065
821.026	26229
821.167	26176
821.307	26172
821.447	26214
821.588	26012
821.728	25959
821.868	25750
822.008	25533
822.149	25582
822.289	25449
822.429	25335
822.569	25289
822.709	25244
822.849	25114
822.99	25061
823.13	25080
823.27	25042
823.41	24852
823.55	24837
823.69	24947
823.83	24966
823.97	24977
824.11	24905
824.25	24825
824.389	24738
824.529	24768
824.669	24939
824.809	24867
824.949	24875
825.089	24757
825.228	24730
825.368	24536
825.508	24551
825.648	24646
825.787	24684
825.927	24757
826.067	24669
826.206	24639
826.346	24779
826.485	24688
826.625	24684
826.765	24878
826.904	24734
827.044	24467
827.183	24589
827.323	24566
827.462	24414
827.601	24456
827.741	24357
827.88	24422
828.02	24296
828.159	24391
828.298	24399
828.437	24456
828.577	24369
828.716	24498
828.855	24262
828.994	24171
829.134	24117
829.273	24064
829.412	24110
829.551	24034
829.69	24034
829.829	24110
829.968	24106
830.107	24110
830.246	24114
830.385	23931
830.524	23969
830.663	23840
830.802	23779
830.941	23680
831.08	23608
831.219	23832
831.357	23691
831.496	23874
831.635	23767
831.774	23775
831.913	23577
832.051	23463
832.19	23463
832.329	23562
832.467	23410
832.606	23303
832.744	23315
832.883	23353
833.022	23398
833.16	23353
833.299	23250
833.437	23318
833.576	23364
833.714	23376
833.852	23463
833.991	23493
834.129	23455
834.267	23463
834.406	23353
834.544	23505
834.682	23455
834.821	23391
834.959	23543
835.097	23395
835.235	23478
835.373	23414
835.511	23368
835.65	23292
835.788	23353
835.926	23185
836.064	23155
836.202	23056
836.34	23311
836.478	23452
836.615	23269
836.753	23220
836.891	23356
837.029	23303
837.167	23132
837.305	23143
837.443	23181
837.58	23041
837.718	23269
837.856	23132
837.993	23117
838.131	23166
838.269	22938
838.406	23128
838.544	22915
838.681	22858
838.819	22721
838.956	22588
839.094	22668
839.231	22538
839.369	22694
839.506	22991
839.643	22824
839.781	22717
839.918	22459
840.055	22466
840.193	22645
840.33	22603
840.467	22592
840.604	22706
840.742	22858
840.879	22500
841.016	22550
841.153	22481
841.29	22721
841.427	22489
841.564	22535
841.701	22557
841.838	22405
841.975	22325
842.112	22497
842.249	22546
842.385	22527
842.522	22615
842.659	22417
842.796	22417
842.933	22337
843.069	22402
843.206	22265
843.343	22299
843.479	22284
843.616	22253
843.752	22063
843.889	22090
844.025	22154
844.162	21994
844.298	22154
844.435	22093
844.571	21945
844.708	22067
844.844	22242
844.98	22196
845.117	22093
845.253	21911
845.389	21968
845.525	21987
845.661	21922
845.798	21937
845.934	21827
846.07	21850
846.206	21690
846.342	21865
846.478	21861
846.614	21595
846.75	21477
846.886	21705
847.022	21610
847.158	21732
847.294	21500
847.429	21652
847.565	21549
847.701	21876
847.837	21291
847.972	21283
848.108	21397
848.244	21363
848.379	21142
848.515	21028
848.65	21043
848.786	21112
848.921	21123
849.057	21222
849.192	21268
849.328	21245
849.463	21058
849.598	21138
849.734	21074
849.869	21005
850.004	21009
850.14	20963
850.275	20944
850.41	20914
850.545	20830
850.68	20918
850.815	20937
850.95	20929
851.085	20994
851.22	20979
851.355	20849
851.49	20914
851.625	20845
851.76	20868
851.895	20906
852.03	20868
852.165	21020
852.299	21017
852.434	21062
852.569	20986
852.703	20956
852.838	21017
852.973	21028
853.107	20948
853.242	20914
853.376	20781
853.511	20667
853.645	20746
853.78	20967
853.914	20743
854.048	20686
854.183	20659
854.317	20785
854.451	20864
854.585	20796
854.72	20689
854.854	20765
854.988	20552
855.122	20621
855.256	20594
855.39	20887
855.524	20861
855.658	20842
855.792	20792
855.926	20819
856.06	20739
856.194	20743
856.327	20838
856.461	20731
856.595	20697
856.729	20655
856.862	20762
856.996	20720
857.13	20746
857.263	20716
857.397	20689
857.53	20678
857.664	20708
857.797	20674
857.931	20823
858.064	20754
858.197	20804
858.331	20590
858.464	20651
858.597	20537
858.731	20765
858.864	20674
858.997	20594
859.13	20682
859.263	20788
859.396	20773
859.529	20758
859.662	20686
859.795	20731
859.928	20667
860.061	20883
860.194	20982
860.327	20670
860.46	20746
860.592	20750
860.725	20857
860.858	20906
860.99	20621
861.123	20617
861.256	20689
861.388	20754
861.521	21428
861.653	20659
861.786	20434
861.918	20583
862.05	20579
862.183	20583
862.315	20705
862.447	20667
862.58	20663
862.712	20556
862.844	20374
862.976	20495
863.108	20499
863.24	20796
863.372	20389
863.504	20514
863.636	20374
863.768	20583
863.9	20465
864.032	20396
864.164	20434
864.296	20404
864.428	20552
864.559	20518
864.691	20488
864.823	20461
864.954	20522
865.086	20332
865.217	20381
865.349	20282
865.48	20374
865.612	20396
865.743	20457
865.875	20351
866.006	20252
866.137	20427
866.269	20381
866.4	20210
866.531	20377
866.662	20206
866.793	20381
866.924	20290
867.055	20408
867.186	20294
867.317	20336
867.448	20248
867.579	20370
867.71	20103
867.841	20320
867.972	20244
868.103	20298
868.233	20233
868.364	20328
868.495	20415
868.625	20564
868.756	20667
868.886	20408
869.017	20454
869.147	20552
869.278	20636
869.408	20609
869.539	20495
869.669	20602
869.799	20503
869.929	20632
870.06	20621
870.19	20811
870.32	20819
870.45	20868
870.58	20933
870.71	21017
870.84	21009
870.97	20933
871.1	20925
871.23	21135
871.36	21093
871.489	21051
871.619	21142
871.749	21127
871.879	21260
872.008	21264
872.138	21077
872.267	21131
872.397	20891
872.526	20967
872.656	20906
872.785	21017
872.915	21108
873.044	21142
873.173	21169
873.303	21283
873.432	21302
873.561	21192
873.69	21138
873.819	21138
873.948	21222
874.077	21161
874.206	21123
874.335	21157
874.464	21279
874.593	21344
874.722	21340
874.851	21557
874.979	21370
875.108	21367
875.237	21416
875.365	21230
875.494	21230
875.623	21291
875.751	21408
875.88	21401
876.008	21435
876.136	21530
876.265	21831
876.393	21922
876.521	21774
876.65	21884
876.778	21701
876.906	21667
877.034	21743
877.162	21709
877.29	21561
877.418	21743
877.546	21751
877.674	21778
877.802	21644
877.93	21861
878.058	21580
878.185	21686
878.313	21682
878.441	21637
878.568	21656
878.696	21603
878.824	21755
878.951	21865
879.079	21930
879.206	22105
879.333	21949
879.461	21827
879.588	21747
879.715	21835
879.842	21956
879.97	21781
880.097	21557
880.224	21606
880.351	21682
880.478	21580
880.605	21595
880.732	21587
880.859	21755
880.986	21515
881.112	21553
881.239	21367
881.366	21233
881.493	21272
881.619	21218
881.746	21245
881.872	21188
881.999	21138
882.125	21127
882.252	21264
882.378	21142
882.505	21237
882.631	21119
882.757	20876
882.883	20868
883.01	20758
883.136	20807
883.262	20720
883.388	20724
883.514	20845
883.64	20872
883.766	20765
883.892	20663
884.018	20651
884.143	20788
884.269	20925
884.395	20606
884.52	20404
884.646	20545
884.772	20309
884.897	20427
885.023	20480
885.148	20617
885.274	20693
885.399	20613
885.524	20438
885.65	20549
885.775	20526
885.9	20495
886.025	20587
886.15	20598
886.275	20446
886.4	20438
886.525	20484
886.65	20339
886.775	20476
886.9	20609
887.025	20609
887.149	20370
887.274	20362
887.399	20271
887.523	20282
887.648	20168
887.773	20100
887.897	20450
888.021	20400
888.146	20176
888.27	20423
888.395	20298
888.519	20339
888.643	20271
888.767	20366
888.891	20195
889.015	20176
889.139	20126
889.263	20062
889.387	20161
889.511	20267
889.635	20282
889.759	20103
889.883	20199
890.006	20149
890.13	20073
890.254	19959
890.377	20024
890.501	19833
890.624	19890
890.748	19917
890.871	19830
890.995	19472
891.118	19548
891.241	19803
891.364	19731
891.488	19685
891.611	19662
891.734	19708
891.857	19727
891.98	19723
892.103	19776
892.226	19643
892.349	19753
892.471	19411
892.594	19540
892.717	19556
892.839	19578
892.962	19590
893.085	19677
893.207	19575
893.33	19518
893.452	19559
893.575	19643
893.697	19476
893.819	19761
893.941	19868
894.064	19799
894.186	19426
894.308	19419
894.43	19666
894.552	19742
894.674	19613
894.796	19483
894.918	19571
895.04	19369
895.161	19651
895.283	19639
895.405	19518
895.526	19472
895.648	19571
895.769	19651
895.891	19556
896.012	19639
896.134	19674
896.255	19601
896.376	19632
896.498	19548
896.619	19639
896.74	19529
896.861	19655
896.982	19826
897.103	19909
897.224	19868
897.345	19814
897.466	19818
897.587	19890
897.708	20001
897.828	19833
897.949	19727
898.07	19597
898.19	19788
898.311	19803
898.431	19727
898.552	19814
898.672	19894
898.792	19890
898.913	19860
899.033	19753
899.153	19628
899.273	19571
899.393	19449
899.513	19476
899.633	19582
899.753	19597
899.873	19601
899.993	19567
900.113	19491
900.232	19525
900.352	19438
900.472	19297
900.591	19301
900.711	19396
900.83	19320
900.95	19278
901.069	19411
901.189	19266
901.308	19095
901.427	19031
901.546	18932
901.665	18894
901.784	19088
901.904	18833
902.023	18757
902.141	18528
902.26	18513
902.379	18566
902.498	18486
902.617	18395
902.735	18441
902.854	18429
902.973	18327
903.091	18167
903.21	18076
903.328	18190
903.446	17996
903.565	17920
903.683	17946
903.801	17836
903.919	17935
904.038	17821
904.156	17691
904.274	17767
904.392	17653
904.51	17638
904.627	17676
904.745	17695
904.863	17824
904.981	17547
905.098	17391
905.216	17360
905.334	17425
905.451	17414
905.569	17261
905.686	17280
905.803	17402
905.921	17204
906.038	17379
906.155	17277
906.272	17048
906.389	16991
906.506	16896
906.623	16930
906.74	16824
906.857	16900
906.974	16847
907.091	16961
907.208	17006
907.324	16961
907.441	16752
907.557	16645
907.674	16531
907.79	16580
907.907	16611
908.023	16596
908.139	16645
908.256	16561
908.372	16558
908.488	16455
908.604	16413
908.72	16390
908.836	16424
908.952	16268
909.068	16459
909.184	16356
909.3	16360
909.415	16462
909.531	16386
909.647	16124
909.762	16169
909.878	16078
909.993	16093
910.108	16071
910.224	15983
910.339	16040
910.454	15934
910.57	15907
910.685	15903
910.8	16101
910.915	15968
911.03	15869
911.145	15724
911.259	15682
911.374	15698
911.489	15618
911.604	15557
911.718	15420
911.833	15367
911.947	15420
912.062	15230
912.176	15447
912.291	15534
912.405	15477
912.519	15663
912.633	15618
912.748	15485
912.862	15496
912.976	15256
913.09	15176
913.204	15207
913.318	15283
913.431	15393
913.545	15260
913.659	15359
913.772	15176
913.886	15226
914	15032
914.113	15127
914.226	15188
914.34	15146
914.453	14982
914.566	15127
914.68	15020
914.793	14853
914.906	14708
915.019	14735
915.132	14587
915.245	14667
915.358	14651
915.47	14670
915.583	14629
915.696	14731
915.809	14834
915.921	14765
916.034	14571
916.146	14537
916.259	14621
916.371	14613
916.483	14587
916.595	14564
916.708	14469
916.82	14556
916.932	14507
917.044	14450
917.156	14415
917.268	14347
917.38	14358
917.491	14336
917.603	14343
917.715	14431
917.826	14404
917.938	14324
918.049	14210
918.161	14278
918.272	14450
918.384	14408
918.495	14324
918.606	14145
918.717	14050
918.828	14115
918.939	14100
919.05	14180
919.161	13993
919.272	13883
919.383	13982
919.494	14210
919.604	14290
919.715	14153
919.826	13989
919.936	14005
920.047	14202
920.157	14153
920.267	14298
920.378	14077
920.488	13997
920.598	14195
920.708	14267
920.818	14343
920.928	14225
921.038	14423
921.148	14343
921.258	14107
921.368	14020
921.477	13909
921.587	13784
921.697	13757
921.806	13887
921.916	13742
922.025	13586
922.134	13415
922.244	13415
922.353	13544
922.462	13415
922.571	13373
922.68	13209
922.789	13099
922.898	13084
923.007	13103
923.116	13152
923.224	13183
923.333	12989
923.442	12973
923.55	12943
923.659	13088
923.767	13031
923.876	12977
923.984	13061
924.092	12928
924.201	13000
924.309	12916
924.417	12806
924.525	12856
924.633	12814
924.741	13719
924.849	12604
924.956	12810
925.064	12616
925.172	12593
925.279	12551
925.387	12658
925.494	12589
925.602	12707
925.709	12589
925.816	12506
925.924	12620
926.031	12612
926.138	12448
926.245	12513
926.352	12483
926.459	12608
926.566	12627
926.673	12502
926.779	12315
926.886	12456
926.993	12213
927.099	12114
927.206	12106
927.312	12076
927.419	12232
927.525	12095
927.631	12178
927.737	11980
927.843	11988
927.95	11893
928.056	11984
928.162	12045
928.267	11954
928.373	12509
928.479	12045
928.585	11809
928.69	11954
928.796	12041
928.901	11882
929.007	11688
929.112	11809
929.218	11779
929.323	11809
929.428	11665
929.533	11859
929.638	11691
929.743	11642
929.848	11722
929.953	11691
930.058	11596
930.163	11398
930.267	11376
930.372	11619
930.477	11364
930.581	11551
930.685	11448
930.79	11337
930.894	11376
930.998	11337
931.103	11482
931.207	11086
931.311	10911
931.415	10782
931.519	10687
931.623	10702
