Data from test_V78500241_2578.txt Node
Date: Fri Mar 25 15:27:48 CST 2022
User: usil
Spectrometer: V785-0024
Trigger mode: 0
Integration Time (sec): 4.000000E-1
Scans to average: 1
Nonlinearity correction enabled: false
Boxcar width: 0
Storing dark spectrum: false
XAxis mode: Wavelengths
Number of Pixels in Spectrum: 1024
>>>>>Begin Spectral Data<<<<<
801.071	27439
801.214	27298
801.356	27066
801.499	26933
801.641	26864
801.783	26777
801.926	27001
802.068	26815
802.211	26811
802.353	26712
802.496	26602
802.638	26434
802.78	26480
802.923	26507
803.065	26423
803.208	26374
803.35	26568
803.492	26598
803.635	26682
803.777	26450
803.919	26644
804.061	27112
804.204	26644
804.346	26583
804.488	26457
804.63	26701
804.773	26522
804.915	26636
805.057	26750
805.199	26727
805.341	26632
805.483	26838
805.626	26796
805.768	26727
805.91	26686
806.052	26823
806.194	26701
806.336	26906
806.478	26693
806.62	26640
806.762	26929
806.904	26986
807.046	27275
807.188	27161
807.33	27241
807.472	27222
807.614	27074
807.756	27165
807.898	27005
808.04	26914
808.182	26956
808.324	26914
808.465	27043
808.607	27207
808.749	27439
808.891	27332
809.033	27485
809.174	27393
809.316	27332
809.458	27184
809.6	27412
809.741	27450
809.883	27408
810.025	27671
810.166	27717
810.308	27644
810.45	27629
810.591	27599
810.733	27386
810.875	27359
811.016	27104
811.158	27264
811.299	27549
811.441	27625
811.582	27515
811.724	27344
811.865	27317
812.007	27214
812.148	27085
812.29	27294
812.431	27466
812.573	27485
812.714	27713
812.855	27869
812.997	27945
813.138	28029
813.279	28036
813.421	27816
813.562	27751
813.703	27701
813.845	27587
813.986	27302
814.127	27154
814.268	26982
814.41	27203
814.551	26982
814.692	26952
814.833	26925
814.974	27020
815.115	26944
815.256	26785
815.397	26906
815.539	26956
815.68	26651
815.821	26731
815.962	26746
816.103	26743
816.244	26735
816.385	26606
816.526	26427
816.666	26381
816.807	26183
816.948	26256
817.089	26267
817.23	26164
817.371	26347
817.512	26381
817.653	26271
817.793	26187
817.934	26180
818.075	26320
818.216	26206
818.356	26210
818.497	26206
818.638	26081
818.778	25974
818.919	26035
819.06	26069
819.2	26225
819.341	26298
819.481	26183
819.622	26499
819.762	26632
819.903	26473
820.043	26385
820.184	26434
820.324	26358
820.465	26541
820.605	26370
820.746	26355
820.886	26225
821.026	26446
821.167	26317
821.307	26362
821.447	26267
821.588	26244
821.728	26039
821.868	25887
822.008	25723
822.149	25864
822.289	25841
822.429	25483
822.569	25476
822.709	25403
822.849	25266
822.99	25213
823.13	25274
823.27	25255
823.41	25145
823.55	24913
823.69	25065
823.83	25175
823.97	25160
824.11	24901
824.25	24833
824.389	24882
824.529	24954
824.669	24867
824.809	25034
824.949	24992
825.089	24951
825.228	24897
825.368	24772
825.508	24627
825.648	24658
825.787	24768
825.927	24802
826.067	24810
826.206	24844
826.346	24829
826.485	24871
826.625	24787
826.765	24798
826.904	24757
827.044	24642
827.183	24684
827.323	24445
827.462	24566
827.601	24460
827.741	24563
827.88	24490
828.02	24292
828.159	24582
828.298	24654
828.437	24494
828.577	24399
828.716	24517
828.855	24380
828.994	24182
829.134	24182
829.273	24258
829.412	24292
829.551	24095
829.69	24140
829.829	24376
829.968	24323
830.107	24338
830.246	24220
830.385	24174
830.524	24106
830.663	23961
830.802	23851
830.941	23733
831.08	23863
831.219	23824
831.357	23935
831.496	24015
831.635	23817
831.774	23798
831.913	23695
832.051	23642
832.19	23604
832.329	23665
832.467	23505
832.606	23421
832.744	23459
832.883	23452
833.022	23455
833.16	23558
833.299	23524
833.437	23600
833.576	23592
833.714	23577
833.852	23611
833.991	23722
834.129	23745
834.267	23611
834.406	23592
834.544	23471
834.682	23668
834.821	23623
834.959	23676
835.097	23516
835.235	23596
835.373	23505
835.511	23509
835.65	23486
835.788	23414
835.926	23197
836.064	23204
836.202	23250
836.34	23372
836.478	23406
836.615	23303
836.753	23463
836.891	23467
837.029	23440
837.167	23452
837.305	23356
837.443	23284
837.58	23364
837.718	23246
837.856	23166
837.993	23250
838.131	23311
838.269	23185
838.406	23227
838.544	23162
838.681	22892
838.819	22987
838.956	22816
839.094	22645
839.231	22896
839.369	22862
839.506	23147
839.643	23037
839.781	22835
839.918	22717
840.055	22805
840.193	22820
840.33	22596
840.467	22622
840.604	22778
840.742	22805
840.879	22668
841.016	22607
841.153	22580
841.29	22717
841.427	22596
841.564	22725
841.701	22622
841.838	22607
841.975	22736
842.112	22702
842.249	22516
842.385	22447
842.522	22771
842.659	22459
842.796	22367
842.933	22481
843.069	22367
843.206	22318
843.343	22546
843.479	22424
843.616	22322
843.752	22246
843.889	22299
844.025	22299
844.162	22272
844.298	22291
844.435	22158
844.571	22207
844.708	22306
844.844	22500
844.98	22310
845.117	22219
845.253	22070
845.389	21991
845.525	22128
845.661	22059
845.798	21895
845.934	21987
846.07	21884
846.206	21994
846.342	22044
846.478	21975
846.614	21713
846.75	21610
846.886	21743
847.022	21903
847.158	21766
847.294	21793
847.429	21656
847.565	21690
847.701	21873
847.837	21431
847.972	21431
848.108	21420
848.244	21572
848.379	21272
848.515	21317
848.65	21237
848.786	21218
848.921	21272
849.057	21420
849.192	21325
849.328	21317
849.463	21355
849.598	21165
849.734	21287
849.869	21081
850.004	21066
850.14	21176
850.275	21138
850.41	20910
850.545	20948
850.68	20944
850.815	21028
850.95	20895
851.085	21260
851.22	21127
851.355	21184
851.49	20994
851.625	20986
851.76	21062
851.895	21058
852.03	20902
852.165	21077
852.299	21024
852.434	21184
852.569	21032
852.703	21055
852.838	21055
852.973	21207
853.107	21131
853.242	20895
853.376	20921
853.511	20621
853.645	20899
853.78	20979
853.914	20921
854.048	20834
854.183	20872
854.317	20872
854.451	21096
854.585	20880
854.72	20842
854.854	20887
854.988	20800
855.122	20876
855.256	20792
855.39	20891
855.524	20925
855.658	20921
855.792	20792
855.926	20876
856.06	20990
856.194	20933
856.327	20845
856.461	20960
856.595	20864
856.729	20815
856.862	20861
856.996	20979
857.13	20998
857.263	21036
857.397	20895
857.53	20765
857.664	20849
857.797	20872
857.931	21036
858.064	20883
858.197	21104
858.331	20800
858.464	20861
858.597	20811
858.731	20819
858.864	20872
858.997	20826
859.13	20853
859.263	20963
859.396	20887
859.529	20819
859.662	20902
859.795	20758
859.928	20952
860.061	21051
860.194	21020
860.327	20914
860.46	20765
860.592	20937
860.725	21036
860.858	20941
860.99	20876
861.123	20754
861.256	20735
861.388	20819
861.521	21420
861.653	20682
861.786	20598
861.918	20705
862.05	20739
862.183	20849
862.315	20811
862.447	20918
862.58	20777
862.712	20617
862.844	20480
862.976	20670
863.108	20678
863.24	21100
863.372	20484
863.504	20587
863.636	20632
863.768	20644
863.9	20522
864.032	20503
864.164	20583
864.296	20621
864.428	20632
864.559	20686
864.691	20648
864.823	20488
864.954	20651
865.086	20651
865.217	20438
865.349	20461
865.48	20461
865.612	20518
865.743	20625
865.875	20533
866.006	20450
866.137	20556
866.269	20385
866.4	20518
866.531	20480
866.662	20400
866.793	20450
866.924	20465
867.055	20450
867.186	20522
867.317	20290
867.448	20336
867.579	20377
867.71	20362
867.841	20324
867.972	20320
868.103	20396
868.233	20427
868.364	20454
868.495	20469
868.625	20655
868.756	20849
868.886	20598
869.017	20648
869.147	20648
869.278	20788
869.408	20625
869.539	20667
869.669	20830
869.799	20697
869.929	20785
870.06	20830
870.19	20842
870.32	20963
870.45	20960
870.58	21020
870.71	21119
870.84	21058
870.97	21036
871.1	21096
871.23	21287
871.36	21226
871.489	21230
871.619	21268
871.749	21321
871.879	21279
872.008	21477
872.138	21302
872.267	21268
872.397	21051
872.526	21150
872.656	21184
872.785	21024
872.915	21310
873.044	21340
873.173	21237
873.303	21416
873.432	21329
873.561	21367
873.69	21298
873.819	21275
873.948	21306
874.077	21268
874.206	21249
874.335	21157
874.464	21389
874.593	21534
874.722	21439
874.851	21553
874.979	21507
875.108	21595
875.237	21488
875.365	21310
875.494	21447
875.623	21519
875.751	21496
875.88	21545
876.008	21705
876.136	21728
876.265	21922
876.393	22048
876.521	21979
876.65	22044
876.778	21907
876.906	21892
877.034	21918
877.162	21918
877.29	21895
877.418	21766
877.546	21808
877.674	21972
877.802	21812
877.93	21899
878.058	21679
878.185	21667
878.313	21884
878.441	21831
878.568	21622
878.696	21884
878.824	21956
878.951	21850
879.079	21922
879.206	22074
879.333	21983
879.461	21930
879.588	21865
879.715	22017
879.842	22200
879.97	21956
880.097	21591
880.224	21652
880.351	21656
880.478	21766
880.605	21595
880.732	21629
880.859	21945
880.986	21770
881.112	21831
881.239	21488
881.366	21454
881.493	21382
881.619	21237
881.746	21313
881.872	21313
881.999	21169
882.125	21249
882.252	21218
882.378	21237
882.505	21363
882.631	21135
882.757	20937
882.883	21017
883.01	20998
883.136	20937
883.262	20952
883.388	20849
883.514	20891
883.64	20941
883.766	20902
883.892	20746
884.018	20853
884.143	20876
884.269	21070
884.395	20674
884.52	20571
884.646	20644
884.772	20476
884.897	20560
885.023	20602
885.148	20910
885.274	20651
885.399	20800
885.524	20606
885.65	20625
885.775	20518
885.9	20686
886.025	20655
886.15	20667
886.275	20651
886.4	20469
886.525	20716
886.65	20526
886.775	20549
886.9	20788
887.025	20746
887.149	20727
887.274	20533
887.399	20423
887.523	20434
887.648	20446
887.773	20358
887.897	20438
888.021	20575
888.146	20438
888.27	20362
888.395	20568
888.519	20446
888.643	20415
888.767	20442
888.891	20328
889.015	20153
889.139	20294
889.263	20214
889.387	20240
889.511	20377
889.635	20320
889.759	20161
889.883	20210
890.006	20180
890.13	20374
890.254	20244
890.377	20119
890.501	19909
890.624	19879
890.748	20050
890.871	19849
890.995	19811
891.118	19689
891.241	19814
891.364	19769
891.488	19890
891.611	19822
891.734	19841
891.857	19784
891.98	19868
892.103	19791
892.226	19879
892.349	19845
892.471	19480
892.594	19693
892.717	19704
892.839	19689
892.962	19769
893.085	19731
893.207	19677
893.33	19544
893.452	19658
893.575	19670
893.697	19544
893.819	19906
893.941	19909
894.064	19795
894.186	19693
894.308	19567
894.43	19788
894.552	19879
894.674	19772
894.796	19510
894.918	19696
895.04	19586
895.161	19677
895.283	19803
895.405	19586
895.526	19651
895.648	19674
895.769	19780
895.891	19715
896.012	19784
896.134	19757
896.255	19689
896.376	19655
896.498	19723
896.619	19670
896.74	19590
896.861	19742
896.982	20039
897.103	20134
897.224	19932
897.345	19921
897.466	19944
897.587	19997
897.708	19967
897.828	19928
897.949	19909
898.07	19734
898.19	19944
898.311	20031
898.431	19849
898.552	19986
898.672	19959
898.792	19959
898.913	19875
899.033	19719
899.153	19742
899.273	19597
899.393	19685
899.513	19700
899.633	19674
899.753	19693
899.873	19609
899.993	19719
900.113	19590
900.232	19632
900.352	19620
900.472	19525
900.591	19434
900.711	19426
900.83	19396
900.95	19578
901.069	19567
901.189	19320
901.308	19069
901.427	19019
901.546	19031
901.665	19088
901.784	19072
901.904	18856
902.023	18711
902.141	18551
902.26	18566
902.379	18589
902.498	18597
902.617	18414
902.735	18661
902.854	18506
902.973	18456
903.091	18220
903.21	18254
903.328	18285
903.446	18102
903.565	18022
903.683	18091
903.801	18026
903.919	18072
904.038	17999
904.156	17828
904.274	17889
904.392	17836
904.51	17775
904.627	17786
904.745	17817
904.863	17874
904.981	17676
905.098	17425
905.216	17490
905.334	17516
905.451	17528
905.569	17554
905.686	17497
905.803	17429
905.921	17326
906.038	17376
906.155	17147
906.272	17239
906.389	17204
906.506	17109
906.623	17090
906.74	17010
906.857	16835
906.974	17060
907.091	17117
907.208	17212
907.324	17064
907.441	16892
907.557	16869
907.674	16698
907.79	16603
907.907	16679
908.023	16755
908.139	16740
908.256	16618
908.372	16599
908.488	16698
908.604	16443
908.72	16531
908.836	16413
908.952	16402
909.068	16497
909.184	16474
909.3	16421
909.415	16478
909.531	16341
909.647	16223
909.762	16207
909.878	16181
909.993	16226
910.108	16242
910.224	16120
910.339	16013
910.454	16048
910.57	16063
910.685	15850
910.8	16246
910.915	16093
911.03	15880
911.145	15861
911.259	15797
911.374	15774
911.489	15690
911.604	15728
911.718	15591
911.833	15660
911.947	15511
912.062	15374
912.176	15614
912.291	15564
912.405	15526
912.519	15682
912.633	15747
912.748	15595
912.862	15549
912.976	15367
913.09	15135
913.204	15203
913.318	15374
913.431	15435
913.545	15538
913.659	15481
913.772	15363
913.886	15173
914	15184
914.113	15256
914.226	15310
914.34	15306
914.453	15051
914.566	15252
914.68	15055
914.793	15062
914.906	14872
915.019	14705
915.132	14663
915.245	14701
915.358	14731
915.47	14819
915.583	14708
915.696	14876
915.809	14842
915.921	14902
916.034	14777
916.146	14705
916.259	14712
916.371	14727
916.483	14708
916.595	14579
916.708	14689
916.82	14674
916.932	14625
917.044	14587
917.156	14480
917.268	14389
917.38	14541
917.491	14507
917.603	14484
917.715	14507
917.826	14545
917.938	14385
918.049	14324
918.161	14362
918.272	14446
918.384	14476
918.495	14374
918.606	14225
918.717	14180
918.828	14210
918.939	14161
919.05	14161
919.161	14282
919.272	14005
919.383	14149
919.494	14252
919.604	14377
919.715	14107
919.826	14115
919.936	14229
920.047	14275
920.157	14180
920.267	14301
920.378	14180
920.488	14149
920.598	14355
920.708	14370
920.818	14252
920.928	14244
921.038	14526
921.148	14320
921.258	14092
921.368	14046
921.477	13986
921.587	13837
921.697	13818
921.806	13959
921.916	13765
922.025	13666
922.134	13643
922.244	13639
922.353	13605
922.462	13457
922.571	13430
922.68	13217
922.789	13183
922.898	13221
923.007	13221
923.116	13255
923.224	13228
923.333	13168
923.442	13107
923.55	13050
923.659	13110
923.767	13069
923.876	13023
923.984	13046
924.092	12905
924.201	13038
924.309	12935
924.417	12958
924.525	12905
924.633	12909
924.741	13723
924.849	12764
924.956	12753
925.064	12772
925.172	12623
925.279	12719
925.387	12749
925.494	12665
925.602	12772
925.709	12681
925.816	12566
925.924	12604
926.031	12730
926.138	12544
926.245	12582
926.352	12502
926.459	12642
926.566	12738
926.673	12498
926.779	12350
926.886	12433
926.993	12258
927.099	12251
927.206	12197
927.312	12220
927.419	12243
927.525	12213
927.631	12213
927.737	12152
927.843	12091
927.95	11958
928.056	12079
928.162	12072
928.267	12140
928.373	12570
928.479	12136
928.585	11897
928.69	11980
928.796	12041
928.901	11980
929.007	11779
929.112	11961
929.218	11920
929.323	11790
929.428	11737
929.533	11908
929.638	11680
929.743	11707
929.848	11882
929.953	11737
930.058	11649
930.163	11440
930.267	11448
930.372	11691
930.477	11395
930.581	11657
930.685	11528
930.79	11349
930.894	11395
930.998	11307
931.103	11505
931.207	11094
931.311	11010
931.415	11010
931.519	10744
931.623	10759
