Data from test_V78500241_873.txt Node
Date: Fri Mar 25 15:15:56 CST 2022
User: usil
Spectrometer: V785-0024
Trigger mode: 0
Integration Time (sec): 4.000000E-1
Scans to average: 1
Nonlinearity correction enabled: false
Boxcar width: 0
Storing dark spectrum: false
XAxis mode: Wavelengths
Number of Pixels in Spectrum: 1024
>>>>>Begin Spectral Data<<<<<
801.071	28196
801.214	28109
801.356	27861
801.499	27789
801.641	27614
801.783	27698
801.926	27907
802.068	27739
802.211	27542
802.353	27564
802.496	27389
802.638	27466
802.78	27348
802.923	27405
803.065	27431
803.208	27397
803.35	27416
803.492	27447
803.635	27629
803.777	27496
803.919	27629
804.061	27762
804.204	27538
804.346	27545
804.488	27313
804.63	27656
804.773	27367
804.915	27549
805.057	27698
805.199	27564
805.341	27641
805.483	27618
805.626	27759
805.768	27701
805.91	27705
806.052	27637
806.194	27633
806.336	27926
806.478	27831
806.62	27842
806.762	27869
806.904	28021
807.046	28177
807.188	28124
807.33	27979
807.472	28158
807.614	28128
807.756	28029
807.898	28048
808.04	27899
808.182	27861
808.324	27987
808.465	28051
808.607	28154
808.749	28272
808.891	28459
809.033	28451
809.174	28367
809.316	28303
809.458	28428
809.6	28405
809.741	28554
809.883	28561
810.025	28736
810.166	28763
810.308	28599
810.45	28557
810.591	28672
810.733	28401
810.875	28398
811.016	28436
811.158	28230
811.299	28447
811.441	28500
811.582	28428
811.724	28504
811.865	28287
812.007	28344
812.148	28337
812.29	28367
812.431	28577
812.573	28771
812.714	28866
812.855	28930
812.997	28991
813.138	29109
813.279	28976
813.421	28828
813.562	29003
813.703	28660
813.845	28702
813.986	28459
814.127	28215
814.268	28063
814.41	28150
814.551	28185
814.692	28341
814.833	27994
814.974	27926
815.115	28078
815.256	27979
815.397	28025
815.539	28063
815.68	27865
815.821	27865
815.962	27838
816.103	27808
816.244	27720
816.385	27736
816.526	27656
816.666	27485
816.807	27317
816.948	27393
817.089	27591
817.23	27378
817.371	27370
817.512	27435
817.653	27420
817.793	27435
817.934	27492
818.075	27500
818.216	27393
818.356	27302
818.497	27291
818.638	27077
818.778	27241
818.919	27245
819.06	27325
819.2	27336
819.341	27405
819.481	27386
819.622	27492
819.762	27816
819.903	27576
820.043	27610
820.184	27462
820.324	27557
820.465	27492
820.605	27671
820.746	27523
820.886	27329
821.026	27348
821.167	27340
821.307	27587
821.447	27355
821.588	27298
821.728	27199
821.868	26906
822.008	26876
822.149	26914
822.289	26792
822.429	26560
822.569	26492
822.709	26587
822.849	26457
822.99	26343
823.13	26434
823.27	26423
823.41	26187
823.55	26183
823.69	26195
823.83	26233
823.97	26122
824.11	26153
824.25	26065
824.389	26027
824.529	26145
824.669	25997
824.809	26252
824.949	26168
825.089	26111
825.228	26153
825.368	25951
825.508	25788
825.648	25906
825.787	25932
825.927	26012
826.067	25951
826.206	25894
826.346	25906
826.485	25921
826.625	25913
826.765	25887
826.904	26001
827.044	25845
827.183	25643
827.323	25597
827.462	25689
827.601	25677
827.741	25620
827.88	25666
828.02	25548
828.159	25518
828.298	25696
828.437	25590
828.577	25529
828.716	25738
828.855	25677
828.994	25289
829.134	25324
829.273	25426
829.412	25377
829.551	25259
829.69	25506
829.829	25316
829.968	25460
830.107	25369
830.246	25403
830.385	25263
830.524	25164
830.663	25152
830.802	25088
830.941	24920
831.08	24932
831.219	25164
831.357	25061
831.496	25133
831.635	25042
831.774	24935
831.913	24772
832.051	24711
832.19	24779
832.329	24741
832.467	24616
832.606	24555
832.744	24654
832.883	24570
833.022	24650
833.16	24646
833.299	24650
833.437	24589
833.576	24715
833.714	24719
833.852	24920
833.991	24707
834.129	24829
834.267	24757
834.406	24696
834.544	24760
834.682	24673
834.821	24711
834.959	24886
835.097	24635
835.235	24795
835.373	24722
835.511	24658
835.65	24460
835.788	24593
835.926	24483
836.064	24464
836.202	24327
836.34	24502
836.478	24566
836.615	24601
836.753	24559
836.891	24612
837.029	24479
837.167	24513
837.305	24479
837.443	24308
837.58	24342
837.718	24403
837.856	24361
837.993	24285
838.131	24296
838.269	24216
838.406	24281
838.544	24148
838.681	23969
838.819	24064
838.956	23779
839.094	23817
839.231	23882
839.369	23946
839.506	24174
839.643	24136
839.781	23874
839.918	23752
840.055	23783
840.193	23760
840.33	23718
840.467	23729
840.604	23786
840.742	23980
840.879	23585
841.016	23642
841.153	23581
841.29	23771
841.427	23726
841.564	23809
841.701	23733
841.838	23733
841.975	23627
842.112	23714
842.249	23493
842.385	23539
842.522	23695
842.659	23573
842.796	23341
842.933	23516
843.069	23326
843.206	23444
843.343	23539
843.479	23417
843.616	23433
843.752	23250
843.889	23284
844.025	23455
844.162	23318
844.298	23364
844.435	23239
844.571	23231
844.708	23417
844.844	23440
844.98	23467
845.117	23353
845.253	23288
845.389	23143
845.525	23212
845.661	23128
845.798	23113
845.934	23113
846.07	22930
846.206	22919
846.342	23003
846.478	22999
846.614	22881
846.75	22615
846.886	22740
847.022	22679
847.158	22706
847.294	22850
847.429	22725
847.565	22645
847.701	22927
847.837	22554
847.972	22489
848.108	22645
848.244	22504
848.379	22462
848.515	22291
848.65	22299
848.786	22265
848.921	22367
849.057	22417
849.192	22303
849.328	22348
849.463	22322
849.598	22246
849.734	22329
849.869	22112
850.004	22147
850.14	22036
850.275	22097
850.41	21968
850.545	22147
850.68	22059
850.815	22055
850.95	22059
851.085	22268
851.22	22200
851.355	22082
851.49	22154
851.625	22070
851.76	22006
851.895	21953
852.03	21998
852.165	21934
852.299	22067
852.434	22116
852.569	22150
852.703	21991
852.838	22219
852.973	22265
853.107	22166
853.242	22048
853.376	21770
853.511	21915
853.645	21979
853.78	22021
853.914	21953
854.048	21979
854.183	21945
854.317	21945
854.451	22097
854.585	21934
854.72	21888
854.854	21895
854.988	21869
855.122	21888
855.256	21774
855.39	21797
855.524	22032
855.658	21994
855.792	21960
855.926	21926
856.06	22006
856.194	21960
856.327	21991
856.461	21968
856.595	21774
856.729	21930
856.862	21903
856.996	21846
857.13	21922
857.263	21998
857.397	21994
857.53	21800
857.664	21934
857.797	21926
857.931	22002
858.064	21930
858.197	21930
858.331	21812
858.464	21816
858.597	21720
858.731	21865
858.864	21831
858.997	21793
859.13	21888
859.263	21911
859.396	21975
859.529	21876
859.662	21823
859.795	21884
859.928	21755
860.061	21979
860.194	22070
860.327	21987
860.46	21850
860.592	21991
860.725	21960
860.858	21983
860.99	21747
861.123	21903
861.256	21888
861.388	21903
861.521	22729
861.653	21789
861.786	21603
861.918	21625
862.05	21907
862.183	21812
862.315	21827
862.447	21873
862.58	21793
862.712	21629
862.844	21732
862.976	21690
863.108	21705
863.24	21994
863.372	21587
863.504	21633
863.636	21496
863.768	21618
863.9	21557
864.032	21549
864.164	21515
864.296	21591
864.428	21686
864.559	21682
864.691	21705
864.823	21557
864.954	21625
865.086	21675
865.217	21542
865.349	21447
865.48	21515
865.612	21530
865.743	21656
865.875	21614
866.006	21496
866.137	21587
866.269	21507
866.4	21557
866.531	21306
866.662	21443
866.793	21344
866.924	21416
867.055	21473
867.186	21329
867.317	21519
867.448	21386
867.579	21435
867.71	21294
867.841	21313
867.972	21374
868.103	21454
868.233	21348
868.364	21450
868.495	21530
868.625	21690
868.756	21766
868.886	21496
869.017	21671
869.147	21728
869.278	21736
869.408	21705
869.539	21698
869.669	21667
869.799	21728
869.929	21675
870.06	21648
870.19	21888
870.32	21903
870.45	21998
870.58	22036
870.71	22143
870.84	22074
870.97	22010
871.1	22051
871.23	22314
871.36	22310
871.489	22147
871.619	22223
871.749	22169
871.879	22238
872.008	22424
872.138	22356
872.267	22200
872.397	22204
872.526	22059
872.656	22135
872.785	22112
872.915	22344
873.044	22360
873.173	22325
873.303	22299
873.432	22318
873.561	22382
873.69	22306
873.819	22226
873.948	22272
874.077	22272
874.206	22120
874.335	22310
874.464	22268
874.593	22440
874.722	22329
874.851	22546
874.979	22485
875.108	22622
875.237	22352
875.365	22348
875.494	22337
875.623	22664
875.751	22497
875.88	22557
876.008	22538
876.136	22694
876.265	22881
876.393	22972
876.521	22965
876.65	22938
876.778	22885
876.906	22911
877.034	22892
877.162	22831
877.29	22759
877.418	22869
877.546	22847
877.674	22778
877.802	22820
877.93	22733
878.058	22839
878.185	22725
878.313	22774
878.441	22835
878.568	22660
878.696	22710
878.824	22782
878.951	22858
879.079	23025
879.206	23136
879.333	23048
879.461	22801
879.588	22991
879.715	22839
879.842	23124
879.97	22805
880.097	22729
880.224	22557
880.351	22653
880.478	22611
880.605	22599
880.732	22626
880.859	22835
880.986	22664
881.112	22626
881.239	22481
881.366	22398
881.493	22230
881.619	22211
881.746	22268
881.872	22261
881.999	22143
882.125	22192
882.252	22253
882.378	22177
882.505	22257
882.631	22105
882.757	21861
882.883	21941
883.01	21907
883.136	21804
883.262	21705
883.388	21804
883.514	21953
883.64	21975
883.766	21823
883.892	21641
884.018	21667
884.143	21915
884.269	21983
884.395	21610
884.52	21370
884.646	21496
884.772	21424
884.897	21511
885.023	21462
885.148	21587
885.274	21701
885.399	21583
885.524	21435
885.65	21545
885.775	21530
885.9	21507
886.025	21557
886.15	21625
886.275	21431
886.4	21416
886.525	21542
886.65	21481
886.775	21542
886.9	21553
887.025	21686
887.149	21351
887.274	21340
887.399	21363
887.523	21344
887.648	21233
887.773	21096
887.897	21359
888.021	21393
888.146	21104
888.27	21351
888.395	21454
888.519	21325
888.643	21302
888.767	21294
888.891	21195
889.015	21100
889.139	21047
889.263	21096
889.387	21336
889.511	21222
889.635	21214
889.759	21055
889.883	21024
890.006	21077
890.13	21173
890.254	20979
890.377	20998
890.501	20769
890.624	20735
890.748	20906
890.871	20777
890.995	20716
891.118	20594
891.241	20693
891.364	20754
891.488	20853
891.611	20769
891.734	20579
891.857	20705
891.98	20587
892.103	20602
892.226	20640
892.349	20587
892.471	20545
892.594	20686
892.717	20655
892.839	20568
892.962	20545
893.085	20678
893.207	20598
893.33	20503
893.452	20522
893.575	20587
893.697	20488
893.819	20636
893.941	20765
894.064	20731
894.186	20457
894.308	20526
894.43	20655
894.552	20575
894.674	20579
894.796	20423
894.918	20473
895.04	20514
895.161	20632
895.283	20613
895.405	20587
895.526	20568
895.648	20533
895.769	20511
895.891	20670
896.012	20644
896.134	20648
896.255	20651
896.376	20431
896.498	20564
896.619	20625
896.74	20575
896.861	20556
896.982	20906
897.103	21039
897.224	20807
897.345	20750
897.466	20739
897.587	20750
897.708	20842
897.828	20659
897.949	20777
898.07	20609
898.19	20689
898.311	20788
898.431	20663
898.552	20720
898.672	20765
898.792	20716
898.913	20743
899.033	20678
899.153	20457
899.273	20480
899.393	20484
899.513	20484
899.633	20613
899.753	20549
899.873	20393
899.993	20492
900.113	20434
900.232	20434
900.352	20396
900.472	20126
900.591	20187
900.711	20393
900.83	20195
900.95	20278
901.069	20225
901.189	20115
901.308	19974
901.427	19811
901.546	19925
901.665	19814
901.784	19890
901.904	19643
902.023	19601
902.141	19499
902.26	19362
902.379	19438
902.498	19324
902.617	19240
902.735	19407
902.854	19316
902.973	19209
903.091	18939
903.21	18947
903.328	18962
903.446	19019
903.565	18894
903.683	18886
903.801	18681
903.919	18875
904.038	18692
904.156	18620
904.274	18646
904.392	18627
904.51	18563
904.627	18563
904.745	18616
904.863	18582
904.981	18372
905.098	18262
905.216	18266
905.334	18334
905.451	18190
905.569	18239
905.686	18319
905.803	18220
905.921	18045
906.038	18087
906.155	18060
906.272	17942
906.389	17958
906.506	17764
906.623	17767
906.74	17802
906.857	17733
906.974	17665
907.091	17908
907.208	17863
907.324	17885
907.441	17676
907.557	17539
907.674	17512
907.79	17349
907.907	17410
908.023	17543
908.139	17474
908.256	17330
908.372	17372
908.488	17398
908.604	17246
908.72	17250
908.836	17204
908.952	17159
909.068	17151
909.184	17360
909.3	17121
909.415	17368
909.531	17254
909.647	16938
909.762	16862
909.878	16934
909.993	16889
910.108	16911
910.224	16896
910.339	16809
910.454	16721
910.57	16736
910.685	16618
910.8	16896
910.915	16869
911.03	16710
911.145	16618
911.259	16447
911.374	16443
911.489	16402
911.604	16390
911.718	16265
911.833	16135
911.947	16173
912.062	16032
912.176	16268
912.291	16257
912.405	16234
912.519	16390
912.633	16379
912.748	16257
912.862	16097
912.976	16029
913.09	15949
913.204	16048
913.318	16128
913.431	16219
913.545	16086
913.659	16185
913.772	16044
913.886	15918
914	15804
914.113	15842
914.226	15979
914.34	15937
914.453	15736
914.566	15873
914.68	15701
914.793	15644
914.906	15545
915.019	15428
915.132	15382
915.245	15488
915.358	15412
915.47	15473
915.583	15443
915.696	15519
915.809	15591
915.921	15549
916.034	15344
916.146	15332
916.259	15302
916.371	15386
916.483	15325
916.595	15287
916.708	15279
916.82	15230
916.932	15283
917.044	15131
917.156	15097
917.268	15070
917.38	15123
917.491	15119
917.603	15154
917.715	15157
917.826	15104
917.938	14986
918.049	14929
918.161	15009
918.272	15100
918.384	15150
918.495	14929
918.606	14929
918.717	14773
918.828	14838
918.939	14887
919.05	14796
919.161	14815
919.272	14598
919.383	14781
919.494	14963
919.604	15112
919.715	14750
919.826	14880
919.936	14674
920.047	14906
920.157	14838
920.267	15047
920.378	14815
920.488	14765
920.598	14899
920.708	15036
920.818	14880
920.928	14853
921.038	15081
921.148	15036
921.258	14693
921.368	14693
921.477	14438
921.587	14507
921.697	14320
921.806	14446
921.916	14427
922.025	14351
922.134	14138
922.244	14103
922.353	14240
922.462	14050
922.571	13868
922.68	13909
922.789	13772
922.898	13803
923.007	13818
923.116	13799
923.224	13742
923.333	13788
923.442	13731
923.55	13597
923.659	13643
923.767	13643
923.876	13624
923.984	13613
924.092	13506
924.201	13552
924.309	13499
924.417	13556
924.525	13487
924.633	13384
924.741	14294
924.849	13244
924.956	13373
925.064	13274
925.172	13084
925.279	13175
925.387	13278
925.494	13244
925.602	13324
925.709	13285
925.816	13057
925.924	13091
926.031	13202
926.138	13103
926.245	13179
926.352	13050
926.459	13145
926.566	13312
926.673	13053
926.779	12920
926.886	13000
926.993	12798
927.099	12779
927.206	12688
927.312	12642
927.419	12802
927.525	12779
927.631	12817
927.737	12646
927.843	12582
927.95	12433
928.056	12589
928.162	12601
928.267	12700
928.373	13149
928.479	12665
928.585	12513
928.69	12658
928.796	12513
928.901	12380
929.007	12300
929.112	12388
929.218	12384
929.323	12407
929.428	12350
929.533	12353
929.638	12171
929.743	12304
929.848	12277
929.953	12178
930.058	12133
930.163	11935
930.267	12022
930.372	12110
930.477	11992
930.581	12144
930.685	11996
930.79	11904
930.894	11904
930.998	11923
931.103	11958
931.207	11554
931.311	11551
931.415	11482
931.519	11250
931.623	11303
