Data from test_V78500241_1259.txt Node
Date: Fri Mar 25 15:18:37 CST 2022
User: usil
Spectrometer: V785-0024
Trigger mode: 0
Integration Time (sec): 4.000000E-1
Scans to average: 1
Nonlinearity correction enabled: false
Boxcar width: 0
Storing dark spectrum: false
XAxis mode: Wavelengths
Number of Pixels in Spectrum: 1024
>>>>>Begin Spectral Data<<<<<
801.071	28029
801.214	28021
801.356	27804
801.499	27583
801.641	27545
801.783	27477
801.926	27587
802.068	27519
802.211	27393
802.353	27553
802.496	27389
802.638	27173
802.78	27173
802.923	27104
803.065	26956
803.208	27127
803.35	27188
803.492	27268
803.635	27382
803.777	27477
803.919	27287
804.061	27614
804.204	27473
804.346	27355
804.488	27450
804.63	27382
804.773	27363
804.915	27424
805.057	27534
805.199	27473
805.341	27488
805.483	27576
805.626	27652
805.768	27443
805.91	27397
806.052	27564
806.194	27427
806.336	27641
806.478	27481
806.62	27660
806.762	27610
806.904	27785
807.046	28097
807.188	28105
807.33	27808
807.472	27922
807.614	27907
807.756	27835
807.898	27781
808.04	27667
808.182	27679
808.324	27800
808.465	27812
808.607	27968
808.749	28120
808.891	28147
809.033	28432
809.174	28158
809.316	28310
809.458	28211
809.6	28120
809.741	28234
809.883	28181
810.025	28588
810.166	28382
810.308	28390
810.45	28455
810.591	28401
810.733	28226
810.875	28242
811.016	28074
811.158	28044
811.299	28360
811.441	28242
811.582	28242
811.724	28200
811.865	28173
812.007	28078
812.148	28280
812.29	28257
812.431	28455
812.573	28428
812.714	28622
812.855	28683
812.997	28934
813.138	28869
813.279	28873
813.421	28622
813.562	28782
813.703	28641
813.845	28447
813.986	28093
814.127	28112
814.268	27861
814.41	27816
814.551	27747
814.692	27888
814.833	27797
814.974	27846
815.115	27953
815.256	27694
815.397	27800
815.539	27701
815.68	27622
815.821	27576
815.962	27785
816.103	27690
816.244	27568
816.385	27424
816.526	27397
816.666	27344
816.807	27154
816.948	27245
817.089	27412
817.23	27203
817.371	27241
817.512	27043
817.653	27180
817.793	27081
817.934	27169
818.075	27169
818.216	27230
818.356	27169
818.497	27051
818.638	26910
818.778	26880
818.919	26899
819.06	26929
819.2	27051
819.341	27199
819.481	27192
819.622	27344
819.762	27473
819.903	27363
820.043	27473
820.184	27340
820.324	27336
820.465	27443
820.605	27321
820.746	27119
820.886	27169
821.026	27351
821.167	27283
821.307	27313
821.447	27100
821.588	27093
821.728	27062
821.868	26925
822.008	26708
822.149	26560
822.289	26507
822.429	26446
822.569	26218
822.709	26271
822.849	26317
822.99	26240
823.13	26263
823.27	26153
823.41	25936
823.55	25864
823.69	26035
823.83	26035
823.97	25925
824.11	25822
824.25	25727
824.389	25852
824.529	25978
824.669	25970
824.809	25940
824.949	25830
825.089	25784
825.228	25833
825.368	25772
825.508	25715
825.648	25643
825.787	25795
825.927	25852
826.067	25712
826.206	25780
826.346	25909
826.485	25772
826.625	25791
826.765	25757
826.904	25791
827.044	25449
827.183	25575
827.323	25434
827.462	25483
827.601	25582
827.741	25392
827.88	25506
828.02	25365
828.159	25510
828.298	25567
828.437	25491
828.577	25354
828.716	25525
828.855	25369
828.994	25023
829.134	25084
829.273	25285
829.412	25183
829.551	25148
829.69	25175
829.829	25164
829.968	25164
830.107	25228
830.246	25110
830.385	25050
830.524	25084
830.663	24985
830.802	24871
830.941	24665
831.08	24768
831.219	24871
831.357	24779
831.496	24962
831.635	24711
831.774	24715
831.913	24635
832.051	24525
832.19	24498
832.329	24410
832.467	24391
832.606	24395
832.744	24357
832.883	24460
833.022	24376
833.16	24437
833.299	24593
833.437	24391
833.576	24566
833.714	24635
833.852	24555
833.991	24505
834.129	24601
834.267	24582
834.406	24502
834.544	24574
834.682	24604
834.821	24448
834.959	24650
835.097	24502
835.235	24479
835.373	24525
835.511	24460
835.65	24407
835.788	24414
835.926	24216
836.064	24133
836.202	24133
836.34	24289
836.478	24502
836.615	24270
836.753	24441
836.891	24490
837.029	24353
837.167	24224
837.305	24209
837.443	24251
837.58	24266
837.718	24296
837.856	24247
837.993	24041
838.131	24041
838.269	24098
838.406	24076
838.544	24041
838.681	23923
838.819	23741
838.956	23577
839.094	23695
839.231	23752
839.369	23779
839.506	23988
839.643	23771
839.781	23623
839.918	23619
840.055	23680
840.193	23570
840.33	23551
840.467	23592
840.604	23619
840.742	23775
840.879	23505
841.016	23387
841.153	23433
841.29	23672
841.427	23573
841.564	23562
841.701	23608
841.838	23547
841.975	23459
842.112	23379
842.249	23345
842.385	23166
842.522	23566
842.659	23258
842.796	23318
842.933	23334
843.069	23235
843.206	23360
843.343	23398
843.479	23265
843.616	23273
843.752	23094
843.889	23060
844.025	23197
844.162	23143
844.298	23102
844.435	23041
844.571	23029
844.708	23132
844.844	23303
844.98	23185
845.117	23197
845.253	23098
845.389	22919
845.525	23010
845.661	22976
845.798	22862
845.934	22839
846.07	22877
846.206	22896
846.342	23014
846.478	22725
846.614	22596
846.75	22474
846.886	22451
847.022	22630
847.158	22531
847.294	22691
847.429	22569
847.565	22489
847.701	22866
847.837	22363
847.972	22234
848.108	22356
848.244	22360
848.379	22284
848.515	22169
848.65	22223
848.786	22154
848.921	22059
849.057	22124
849.192	22322
849.328	22181
849.463	22139
849.598	22143
849.734	22021
849.869	21968
850.004	21949
850.14	21953
850.275	21884
850.41	21884
850.545	21793
850.68	21854
850.815	21934
850.95	21975
851.085	22025
851.22	22097
851.355	21861
851.49	21968
851.625	21873
851.76	21979
851.895	21892
852.03	21876
852.165	21865
852.299	21964
852.434	21865
852.569	21964
852.703	21975
852.838	21953
852.973	21979
853.107	22006
853.242	21838
853.376	21762
853.511	21595
853.645	21629
853.78	21713
853.914	21831
854.048	21717
854.183	21667
854.317	21812
854.451	22002
854.585	21747
854.72	21690
854.854	21675
854.988	21679
855.122	21759
855.256	21641
855.39	21751
855.524	21785
855.658	21827
855.792	21797
855.926	21713
856.06	21667
856.194	21808
856.327	21629
856.461	21701
856.595	21641
856.729	21701
856.862	21823
856.996	21724
857.13	21762
857.263	21797
857.397	21846
857.53	21629
857.664	21774
857.797	21880
857.931	21751
858.064	21812
858.197	21930
858.331	21800
858.464	21724
858.597	21553
858.731	21743
858.864	21705
858.997	21671
859.13	21808
859.263	21682
859.396	21770
859.529	21679
859.662	21774
859.795	21709
859.928	21591
860.061	21880
860.194	21941
860.327	21861
860.46	21663
860.592	21778
860.725	21842
860.858	21720
860.99	21667
861.123	21679
861.256	21679
861.388	21675
861.521	22466
861.653	21667
861.786	21496
861.918	21538
862.05	21511
862.183	21663
862.315	21701
862.447	21736
862.58	21610
862.712	21374
862.844	21458
862.976	21637
863.108	21443
863.24	21747
863.372	21458
863.504	21447
863.636	21393
863.768	21408
863.9	21408
864.032	21367
864.164	21504
864.296	21492
864.428	21439
864.559	21507
864.691	21553
864.823	21447
864.954	21428
865.086	21523
865.217	21313
865.349	21256
865.48	21268
865.612	21226
865.743	21473
865.875	21424
866.006	21268
866.137	21329
866.269	21268
866.4	21298
866.531	21203
866.662	21237
866.793	21256
866.924	21233
867.055	21173
867.186	21222
867.317	21230
867.448	21184
867.579	21207
867.71	21089
867.841	21192
867.972	21211
868.103	21188
868.233	21283
868.364	21260
868.495	21222
868.625	21492
868.756	21637
868.886	21340
869.017	21504
869.147	21545
869.278	21572
869.408	21599
869.539	21481
869.669	21637
869.799	21587
869.929	21660
870.06	21374
870.19	21701
870.32	21717
870.45	21827
870.58	21698
870.71	22021
870.84	21930
870.97	21953
871.1	21800
871.23	22059
871.36	21945
871.489	21903
871.619	22044
871.749	22063
871.879	22090
872.008	22055
872.138	22135
872.267	22036
872.397	21949
872.526	21819
872.656	21857
872.785	21873
872.915	22013
873.044	22211
873.173	22086
873.303	22097
873.432	22200
873.561	22318
873.69	22211
873.819	22097
873.948	22162
874.077	22063
874.206	22051
874.335	22143
874.464	22219
874.593	22207
874.722	22249
874.851	22405
874.979	22242
875.108	22432
875.237	22276
875.365	22173
875.494	22253
875.623	22322
875.751	22257
875.88	22333
876.008	22329
876.136	22462
876.265	22721
876.393	22831
876.521	22782
876.65	22736
876.778	22668
876.906	22675
877.034	22577
877.162	22717
877.29	22675
877.418	22569
877.546	22569
877.674	22698
877.802	22713
877.93	22550
878.058	22672
878.185	22611
878.313	22584
878.441	22717
878.568	22485
878.696	22523
878.824	22607
878.951	22683
879.079	22858
879.206	22976
879.333	22873
879.461	22615
879.588	22729
879.715	22755
879.842	22805
879.97	22740
880.097	22531
880.224	22459
880.351	22557
880.478	22481
880.605	22478
880.732	22440
880.859	22736
880.986	22436
881.112	22356
881.239	22230
881.366	22268
881.493	22166
881.619	22029
881.746	22162
881.872	22101
881.999	22013
882.125	22048
882.252	22120
882.378	22055
882.505	22086
882.631	21846
882.757	21918
882.883	21781
883.01	21781
883.136	21587
883.262	21603
883.388	21545
883.514	21755
883.64	21690
883.766	21781
883.892	21450
884.018	21606
884.143	21701
884.269	21698
884.395	21481
884.52	21298
884.646	21374
884.772	21241
884.897	21302
885.023	21344
885.148	21466
885.274	21572
885.399	21435
885.524	21431
885.65	21412
885.775	21393
885.9	21386
886.025	21500
886.15	21466
886.275	21397
886.4	21275
886.525	21355
886.65	21230
886.775	21252
886.9	21435
887.025	21488
887.149	21230
887.274	21138
887.399	21112
887.523	21024
887.648	21176
887.773	21032
887.897	21146
888.021	21211
888.146	21077
888.27	21157
888.395	21214
888.519	21127
888.643	21157
888.767	21195
888.891	21009
889.015	20937
889.139	20956
889.263	20925
889.387	21032
889.511	21176
889.635	20998
889.759	20861
889.883	20952
890.006	20933
890.13	20948
890.254	20899
890.377	20899
890.501	20686
890.624	20636
890.748	20705
890.871	20659
890.995	20484
891.118	20537
891.241	20484
891.364	20495
891.488	20621
891.611	20480
891.734	20575
891.857	20549
891.98	20423
892.103	20568
892.226	20423
892.349	20431
892.471	20157
892.594	20355
892.717	20431
892.839	20370
892.962	20404
893.085	20480
893.207	20259
893.33	20336
893.452	20339
893.575	20484
893.697	20248
893.819	20461
893.941	20648
894.064	20473
894.186	20389
894.308	20377
894.43	20473
894.552	20442
894.674	20419
894.796	20347
894.918	20454
895.04	20301
895.161	20423
895.283	20377
895.405	20328
895.526	20328
895.648	20377
895.769	20355
895.891	20317
896.012	20442
896.134	20446
896.255	20446
896.376	20484
896.498	20400
896.619	20358
896.74	20366
896.861	20484
896.982	20625
897.103	21001
897.224	20594
897.345	20564
897.466	20434
897.587	20446
897.708	20678
897.828	20499
897.949	20537
898.07	20351
898.19	20545
898.311	20545
898.431	20667
898.552	20648
898.672	20625
898.792	20488
898.913	20533
899.033	20473
899.153	20469
899.273	20298
899.393	20358
899.513	20374
899.633	20305
899.753	20328
899.873	20233
899.993	20332
900.113	20221
900.232	20339
900.352	20339
900.472	20191
900.591	20103
900.711	20119
900.83	20134
900.95	20142
901.069	20164
901.189	20016
901.308	19723
901.427	19647
901.546	19719
901.665	19616
901.784	19719
901.904	19548
902.023	19449
902.141	19221
902.26	19160
902.379	19324
902.498	19031
902.617	19076
902.735	19232
902.854	19213
902.973	18993
903.091	18833
903.21	18913
903.328	18833
903.446	18681
903.565	18627
903.683	18791
903.801	18627
903.919	18635
904.038	18665
904.156	18426
904.274	18479
904.392	18380
904.51	18311
904.627	18365
904.745	18506
904.863	18391
904.981	18205
905.098	18117
905.216	18197
905.334	18087
905.451	18034
905.569	18163
905.686	18194
905.803	18026
905.921	17950
906.038	17958
906.155	17923
906.272	17798
906.389	17714
906.506	17638
906.623	17657
906.74	17623
906.857	17463
906.974	17505
907.091	17722
907.208	17646
907.324	17672
907.441	17551
907.557	17436
907.674	17337
907.79	17254
907.907	17258
908.023	17429
908.139	17322
908.256	17345
908.372	17326
908.488	17200
908.604	17121
908.72	17136
908.836	17121
908.952	16980
909.068	17067
909.184	17155
909.3	17048
909.415	17136
909.531	17060
909.647	16805
909.762	16877
909.878	16824
909.993	16767
910.108	16660
910.224	16725
910.339	16816
910.454	16656
910.57	16584
910.685	16592
910.8	16805
910.915	16736
911.03	16542
911.145	16440
911.259	16379
911.374	16348
911.489	16299
911.604	16291
911.718	16082
911.833	16109
911.947	15956
912.062	15926
912.176	16086
912.291	16051
912.405	16147
912.519	16226
912.633	16322
912.748	16162
912.862	16063
912.976	15850
913.09	15831
913.204	15819
913.318	15945
913.431	16017
913.545	15964
913.659	15934
913.772	15823
913.886	15736
914	15785
914.113	15751
914.226	15835
914.34	15614
914.453	15629
914.566	15705
914.68	15618
914.793	15549
914.906	15363
915.019	15348
915.132	15256
915.245	15359
915.358	15344
915.47	15397
915.583	15207
915.696	15359
915.809	15287
915.921	15511
916.034	15230
916.146	15188
916.259	15260
916.371	15268
916.483	15207
916.595	15218
916.708	15097
916.82	15100
916.932	15176
917.044	15074
917.156	15089
917.268	15017
917.38	14982
917.491	14941
917.603	14899
917.715	15028
917.826	14998
917.938	14925
918.049	14773
918.161	14929
918.272	15089
918.384	15043
918.495	14880
918.606	14720
918.717	14659
918.828	14667
918.939	14689
919.05	14590
919.161	14750
919.272	14495
919.383	14579
919.494	14777
919.604	14830
919.715	14629
919.826	14636
919.936	14640
920.047	14724
920.157	14613
920.267	14925
920.378	14583
920.488	14587
920.598	14895
920.708	14899
920.818	14750
920.928	14727
921.038	14975
921.148	14925
921.258	14651
921.368	14602
921.477	14362
921.587	14347
921.697	14267
921.806	14442
921.916	14286
922.025	14100
922.134	13986
922.244	14062
922.353	14103
922.462	13955
922.571	13864
922.68	13753
922.789	13708
922.898	13704
923.007	13674
923.116	13674
923.224	13666
923.333	13594
923.442	13506
923.55	13453
923.659	13521
923.767	13597
923.876	13449
923.984	13651
924.092	13301
924.201	13495
924.309	13502
924.417	13365
924.525	13369
924.633	13415
924.741	14046
924.849	13160
924.956	13274
925.064	13263
925.172	13034
925.279	13080
925.387	13251
925.494	13031
925.602	13099
925.709	13152
925.816	13034
925.924	12993
926.031	13069
926.138	13122
926.245	13038
926.352	12901
926.459	13114
926.566	13133
926.673	12989
926.779	12897
926.886	12825
926.993	12688
927.099	12688
927.206	12559
927.312	12642
927.419	12764
927.525	12540
927.631	12684
927.737	12536
927.843	12513
927.95	12422
928.056	12410
928.162	12467
928.267	12517
928.373	13145
928.479	12578
928.585	12319
928.69	12426
928.796	12361
928.901	12311
929.007	12247
929.112	12270
929.218	12220
929.323	12247
929.428	12121
929.533	12209
929.638	12205
929.743	12152
929.848	12182
929.953	12190
930.058	12060
930.163	11840
930.267	11882
930.372	12003
930.477	11824
930.581	12045
930.685	11821
930.79	11779
930.894	11794
930.998	11714
931.103	11813
931.207	11493
931.311	11463
931.415	11341
931.519	11254
931.623	11102
