Data from test_V78500241_649.txt Node
Date: Fri Mar 25 15:14:22 CST 2022
User: usil
Spectrometer: V785-0024
Trigger mode: 0
Integration Time (sec): 4.000000E-1
Scans to average: 1
Nonlinearity correction enabled: false
Boxcar width: 0
Storing dark spectrum: false
XAxis mode: Wavelengths
Number of Pixels in Spectrum: 1024
>>>>>Begin Spectral Data<<<<<
801.071	27458
801.214	27481
801.356	27218
801.499	27195
801.641	27077
801.783	27135
801.926	27070
802.068	27119
802.211	26982
802.353	26914
802.496	26750
802.638	26762
802.78	26788
802.923	26625
803.065	26686
803.208	26705
803.35	26769
803.492	26815
803.635	26902
803.777	26758
803.919	26880
804.061	27260
804.204	26994
804.346	26754
804.488	26769
804.63	26880
804.773	26727
804.915	26956
805.057	27108
805.199	26864
805.341	26906
805.483	27104
805.626	27036
805.768	26902
805.91	26944
806.052	27085
806.194	26975
806.336	27226
806.478	27142
806.62	27093
806.762	27146
806.904	27332
807.046	27466
807.188	27443
807.33	27523
807.472	27401
807.614	27401
807.756	27367
807.898	27306
808.04	27241
808.182	27302
808.324	27275
808.465	27332
808.607	27500
808.749	27564
808.891	27812
809.033	27751
809.174	27682
809.316	27739
809.458	27663
809.6	27538
809.741	27709
809.883	27808
810.025	28017
810.166	28040
810.308	27987
810.45	27991
810.591	27808
810.733	27804
810.875	27568
811.016	27622
811.158	27462
811.299	27694
811.441	27823
811.582	27892
811.724	27606
811.865	27523
812.007	27557
812.148	27743
812.29	27682
812.431	27778
812.573	28021
812.714	28051
812.855	28284
812.997	28257
813.138	28447
813.279	28246
813.421	28329
813.562	28314
813.703	28002
813.845	27838
813.986	27572
814.127	27435
814.268	27283
814.41	27447
814.551	27252
814.692	27310
814.833	27256
814.974	27222
815.115	27298
815.256	27230
815.397	27176
815.539	27283
815.68	27104
815.821	27062
815.962	27123
816.103	27127
816.244	26933
816.385	26876
816.526	26811
816.666	26800
816.807	26583
816.948	26617
817.089	26807
817.23	26781
817.371	26579
817.512	26743
817.653	26594
817.793	26632
817.934	26594
818.075	26815
818.216	26609
818.356	26530
818.497	26537
818.638	26339
818.778	26408
818.919	26374
819.06	26465
819.2	26473
819.341	26644
819.481	26640
819.622	26815
819.762	27020
819.903	26861
820.043	26743
820.184	26762
820.324	26705
820.465	26788
820.605	26754
820.746	26674
820.886	26724
821.026	26659
821.167	26598
821.307	26746
821.447	26731
821.588	26530
821.728	26419
821.868	26317
822.008	26119
822.149	26107
822.289	26103
822.429	25765
822.569	25818
822.709	25799
822.849	25582
822.99	25578
823.13	25529
823.27	25479
823.41	25320
823.55	25251
823.69	25460
823.83	25384
823.97	25331
824.11	25221
824.25	25187
824.389	25232
824.529	25270
824.669	25244
824.809	25369
824.949	25206
825.089	25350
825.228	25339
825.368	25076
825.508	25148
825.648	25114
825.787	25072
825.927	25190
826.067	24992
826.206	25034
826.346	25179
826.485	25122
826.625	25057
826.765	25171
826.904	25175
827.044	24878
827.183	24825
827.323	24798
827.462	24806
827.601	24779
827.741	24894
827.88	24734
828.02	24734
828.159	24734
828.298	24844
828.437	24966
828.577	24779
828.716	24878
828.855	24719
828.994	24448
829.134	24536
829.273	24635
829.412	24509
829.551	24441
829.69	24384
829.829	24593
829.968	24661
830.107	24555
830.246	24471
830.385	24509
830.524	24479
830.663	24391
830.802	24117
830.941	24064
831.08	24083
831.219	24323
831.357	24308
831.496	24296
831.635	24194
831.774	24114
831.913	24064
832.051	23935
832.19	23847
832.329	23969
832.467	23824
832.606	23760
832.744	23737
832.883	23741
833.022	23745
833.16	23828
833.299	23756
833.437	23775
833.576	23927
833.714	23646
833.852	23958
833.991	23832
834.129	24011
834.267	23866
834.406	23874
834.544	23908
834.682	23942
834.821	23821
834.959	23950
835.097	23767
835.235	23897
835.373	23828
835.511	23745
835.65	23710
835.788	23722
835.926	23585
836.064	23570
836.202	23566
836.34	23718
836.478	23809
836.615	23684
836.753	23627
836.891	23805
837.029	23752
837.167	23649
837.305	23668
837.443	23619
837.58	23547
837.718	23646
837.856	23512
837.993	23455
838.131	23528
838.269	23452
838.406	23383
838.544	23356
838.681	23326
838.819	23189
838.956	23086
839.094	23052
839.231	23090
839.369	23307
839.506	23414
839.643	23204
839.781	23037
839.918	22896
840.055	23136
840.193	22980
840.33	22946
840.467	22946
840.604	22942
840.742	23242
840.879	22869
841.016	22828
841.153	22946
841.29	23075
841.427	22858
841.564	23025
841.701	22908
841.838	22938
841.975	22831
842.112	22763
842.249	22771
842.385	22694
842.522	22839
842.659	22698
842.796	22759
842.933	22603
843.069	22607
843.206	22656
843.343	22744
843.479	22710
843.616	22767
843.752	22474
843.889	22535
844.025	22561
844.162	22447
844.298	22519
844.435	22379
844.571	22375
844.708	22428
844.844	22596
844.98	22649
845.117	22485
845.253	22474
845.389	22299
845.525	22356
845.661	22386
845.798	22226
845.934	22211
846.07	22177
846.206	22284
846.342	22261
846.478	22147
846.614	21949
846.75	21865
846.886	21888
847.022	22040
847.158	22006
847.294	21937
847.429	22006
847.565	21941
847.701	22116
847.837	21663
847.972	21770
848.108	21675
848.244	21781
848.379	21637
848.515	21515
848.65	21549
848.786	21523
848.921	21530
849.057	21587
849.192	21660
849.328	21549
849.463	21568
849.598	21523
849.734	21408
849.869	21359
850.004	21310
850.14	21332
850.275	21378
850.41	21252
850.545	21154
850.68	21405
850.815	21272
850.95	21226
851.085	21473
851.22	21412
851.355	21310
851.49	21260
851.625	21207
851.76	21291
851.895	21207
852.03	21272
852.165	21249
852.299	21393
852.434	21397
852.569	21344
852.703	21386
852.838	21214
852.973	21412
853.107	21416
853.242	21211
853.376	21146
853.511	21127
853.645	21093
853.78	21207
853.914	21256
854.048	21089
854.183	21058
854.317	21154
854.451	21359
854.585	21062
854.72	21066
854.854	21138
854.988	21093
855.122	21135
855.256	20921
855.39	21074
855.524	21131
855.658	21123
855.792	21203
855.926	21188
856.06	21116
856.194	21169
856.327	21077
856.461	21074
856.595	21058
856.729	21066
856.862	21260
856.996	21127
857.13	21275
857.263	21214
857.397	21336
857.53	21146
857.664	21138
857.797	21104
857.931	21279
858.064	21089
858.197	21241
858.331	21142
858.464	21020
858.597	20979
858.731	21112
858.864	21116
858.997	21173
859.13	21154
859.263	21207
859.396	21260
859.529	21135
859.662	21096
859.795	21028
859.928	21051
860.061	21237
860.194	21313
860.327	21252
860.46	21142
860.592	21184
860.725	21241
860.858	21203
860.99	21233
861.123	21150
861.256	21112
861.388	21096
861.521	21964
861.653	21020
861.786	20929
861.918	20834
862.05	20990
862.183	21036
862.315	21013
862.447	21100
862.58	20967
862.712	20883
862.844	20762
862.976	20971
863.108	20941
863.24	21237
863.372	20815
863.504	20845
863.636	20807
863.768	20708
863.9	20857
864.032	20674
864.164	20632
864.296	20876
864.428	20998
864.559	20861
864.691	20842
864.823	20819
864.954	20929
865.086	20701
865.217	20754
865.349	20606
865.48	20815
865.612	20689
865.743	20823
865.875	20834
866.006	20670
866.137	20720
866.269	20796
866.4	20830
866.531	20606
866.662	20750
866.793	20712
866.924	20670
867.055	20716
867.186	20651
867.317	20602
867.448	20560
867.579	20621
867.71	20564
867.841	20625
867.972	20716
868.103	20678
868.233	20743
868.364	20648
868.495	20724
868.625	20937
868.756	20994
868.886	20811
869.017	20883
869.147	20986
869.278	20933
869.408	21001
869.539	20887
869.669	20937
869.799	20921
869.929	20941
870.06	21039
870.19	21157
870.32	21195
870.45	21252
870.58	21340
870.71	21443
870.84	21317
870.97	21428
871.1	21310
871.23	21500
871.36	21492
871.489	21374
871.619	21496
871.749	21454
871.879	21530
872.008	21675
872.138	21568
872.267	21450
872.397	21481
872.526	21249
872.656	21226
872.785	21294
872.915	21545
873.044	21542
873.173	21428
873.303	21572
873.432	21557
873.561	21542
873.69	21587
873.819	21553
873.948	21656
874.077	21507
874.206	21492
874.335	21515
874.464	21564
874.593	21755
874.722	21781
874.851	21743
874.979	21755
875.108	21781
875.237	21800
875.365	21656
875.494	21728
875.623	21759
875.751	21789
875.88	21747
876.008	21922
876.136	21895
876.265	22017
876.393	22314
876.521	22154
876.65	22249
876.778	22097
876.906	22044
877.034	22036
877.162	22067
877.29	22097
877.418	22067
877.546	22044
877.674	22139
877.802	22055
877.93	22044
878.058	22139
878.185	22002
878.313	22021
878.441	22074
878.568	21903
878.696	21975
878.824	22109
878.951	22185
879.079	22261
879.206	22382
879.333	22322
879.461	22090
879.588	22166
879.715	22253
879.842	22341
879.97	22135
880.097	21994
880.224	21808
880.351	22029
880.478	21964
880.605	21876
880.732	21991
880.859	22093
880.986	21998
881.112	21930
881.239	21781
881.366	21622
881.493	21545
881.619	21553
881.746	21519
881.872	21504
881.999	21545
882.125	21526
882.252	21504
882.378	21553
882.505	21462
882.631	21386
882.757	21268
882.883	21176
883.01	21306
883.136	21055
883.262	21001
883.388	21047
883.514	21214
883.64	21252
883.766	21058
883.892	20941
884.018	20948
884.143	21146
884.269	21272
884.395	20845
884.52	20804
884.646	20868
884.772	20868
884.897	20739
885.023	20853
885.148	20864
885.274	20971
885.399	20948
885.524	20853
885.65	20739
885.775	20899
885.9	20902
886.025	21028
886.15	20857
886.275	20811
886.4	20785
886.525	20743
886.65	20769
886.775	20899
886.9	20937
887.025	20990
887.149	20834
887.274	20632
887.399	20670
887.523	20609
887.648	20621
887.773	20469
887.897	20724
888.021	20762
888.146	20469
888.27	20629
888.395	20655
888.519	20697
888.643	20670
888.767	20663
888.891	20393
889.015	20484
889.139	20556
889.263	20412
889.387	20454
889.511	20625
889.635	20480
889.759	20370
889.883	20465
890.006	20415
890.13	20457
890.254	20366
890.377	20366
890.501	20134
890.624	20157
890.748	20138
890.871	19997
890.995	20164
891.118	19845
891.241	20084
891.364	19955
891.488	20157
891.611	20035
891.734	20054
891.857	19963
891.98	20035
892.103	20035
892.226	20077
892.349	19974
892.471	19833
892.594	19913
892.717	19887
892.839	19826
892.962	20001
893.085	19986
893.207	19925
893.33	19727
893.452	19887
893.575	19875
893.697	19890
893.819	20008
893.941	20035
894.064	19982
894.186	19807
894.308	19841
894.43	20107
894.552	20024
894.674	19989
894.796	19723
894.918	19765
895.04	19799
895.161	20001
895.283	20024
895.405	19860
895.526	19913
895.648	19913
895.769	19917
895.891	19986
896.012	20039
896.134	19970
896.255	19868
896.376	19883
896.498	19864
896.619	20031
896.74	19879
896.861	19890
896.982	20168
897.103	20385
897.224	20202
897.345	20172
897.466	20005
897.587	20122
897.708	20191
897.828	20317
897.949	20229
898.07	19967
898.19	19944
898.311	20210
898.431	19993
898.552	20153
898.672	20126
898.792	20153
898.913	20077
899.033	19936
899.153	19967
899.273	19921
899.393	19894
899.513	19822
899.633	19894
899.753	19906
899.873	19807
899.993	19890
900.113	19807
900.232	19856
900.352	19871
900.472	19620
900.591	19605
900.711	19658
900.83	19616
900.95	19704
901.069	19677
901.189	19616
901.308	19206
901.427	19217
901.546	19327
901.665	19206
901.784	19274
901.904	19114
902.023	19061
902.141	18821
902.26	18795
902.379	18939
902.498	18837
902.617	18787
902.735	18787
902.854	18684
902.973	18741
903.091	18418
903.21	18536
903.328	18388
903.446	18350
903.565	18281
903.683	18292
903.801	18098
903.919	18133
904.038	18182
904.156	18030
904.274	18091
904.392	17942
904.51	17996
904.627	17950
904.745	18053
904.863	18007
904.981	17767
905.098	17676
905.216	17642
905.334	17737
905.451	17703
905.569	17653
905.686	17672
905.803	17718
905.921	17436
906.038	17490
906.155	17509
906.272	17376
906.389	17467
906.506	17296
906.623	17292
906.74	17223
906.857	17132
906.974	17208
907.091	17322
907.208	17387
907.324	17181
907.441	17124
907.557	16987
907.674	16915
907.79	16892
907.907	16984
908.023	16927
908.139	16843
908.256	16919
908.372	16835
908.488	16850
908.604	16664
908.72	16653
908.836	16713
908.952	16611
909.068	16641
909.184	16755
909.3	16603
909.415	16641
909.531	16687
909.647	16386
909.762	16443
909.878	16363
909.993	16398
910.108	16295
910.224	16261
910.339	16291
910.454	16253
910.57	16188
910.685	16071
910.8	16352
910.915	16215
911.03	16238
911.145	16013
911.259	16006
911.374	15983
911.489	15968
911.604	15747
911.718	15766
911.833	15713
911.947	15557
912.062	15507
912.176	15679
912.291	15660
912.405	15633
912.519	15865
912.633	15835
912.748	15717
912.862	15652
912.976	15595
913.09	15386
913.204	15561
913.318	15572
913.431	15599
913.545	15644
913.659	15644
913.772	15500
913.886	15241
914	15351
914.113	15355
914.226	15439
914.34	15382
914.453	15154
914.566	15370
914.68	15169
914.793	15176
914.906	15039
915.019	14914
915.132	14914
915.245	14842
915.358	14868
915.47	14906
915.583	14960
915.696	14925
915.809	15066
915.921	15131
916.034	14845
916.146	14830
916.259	14823
916.371	14880
916.483	14914
916.595	14686
916.708	14883
916.82	14800
916.932	14727
917.044	14796
917.156	14705
917.268	14533
917.38	14648
917.491	14583
917.603	14610
917.715	14518
917.826	14663
917.938	14579
918.049	14514
918.161	14598
918.272	14674
918.384	14545
918.495	14499
918.606	14465
918.717	14324
918.828	14427
918.939	14393
919.05	14248
919.161	14362
919.272	14138
919.383	14180
919.494	14374
919.604	14590
919.715	14362
919.826	14229
919.936	14229
920.047	14400
920.157	14301
920.267	14476
920.378	14396
920.488	14339
920.598	14530
920.708	14659
920.818	14522
920.928	14511
921.038	14682
921.148	14629
921.258	14282
921.368	14157
921.477	14164
921.587	14084
921.697	14012
921.806	14088
921.916	13879
922.025	13772
922.134	13670
922.244	13651
922.353	13662
922.462	13575
922.571	13540
922.68	13434
922.789	13365
922.898	13365
923.007	13403
923.116	13422
923.224	13362
923.333	13320
923.442	13228
923.55	13133
923.659	13266
923.767	13152
923.876	13213
923.984	13183
924.092	13031
924.201	13149
924.309	13103
924.417	13004
924.525	12916
924.633	13076
924.741	13830
924.849	12863
924.956	12966
925.064	12817
925.172	12760
925.279	12760
925.387	12734
925.494	12829
925.602	12882
925.709	12791
925.816	12684
925.924	12757
926.031	12760
926.138	12741
926.245	12863
926.352	12627
926.459	12833
926.566	12810
926.673	12639
926.779	12532
926.886	12544
926.993	12380
927.099	12330
927.206	12277
927.312	12285
927.419	12304
927.525	12357
927.631	12327
927.737	12239
927.843	12216
927.95	12026
928.056	12102
928.162	12144
928.267	12224
928.373	12848
928.479	12308
928.585	12091
928.69	12106
928.796	12209
928.901	12060
929.007	11923
929.112	12053
929.218	12060
929.323	11950
929.428	11912
929.533	12011
929.638	11889
929.743	11870
929.848	11889
929.953	11866
930.058	11695
930.163	11600
930.267	11615
930.372	11672
930.477	11672
930.581	11843
930.685	11657
930.79	11490
930.894	11532
930.998	11551
931.103	11554
931.207	11265
931.311	11162
931.415	11060
931.519	10835
931.623	10866
