Data from test_V78500241_388.txt Node
Date: Fri Mar 25 15:12:33 CST 2022
User: usil
Spectrometer: V785-0024
Trigger mode: 0
Integration Time (sec): 4.000000E-1
Scans to average: 1
Nonlinearity correction enabled: false
Boxcar width: 0
Storing dark spectrum: false
XAxis mode: Wavelengths
Number of Pixels in Spectrum: 1024
>>>>>Begin Spectral Data<<<<<
801.071	27047
801.214	26952
801.356	26765
801.499	26754
801.641	26579
801.783	26617
801.926	26651
802.068	26415
802.211	26434
802.353	26419
802.496	26332
802.638	26214
802.78	26305
802.923	26187
803.065	26191
803.208	26054
803.35	26298
803.492	26271
803.635	26377
803.777	26244
803.919	26332
804.061	26587
804.204	26355
804.346	26191
804.488	26267
804.63	26263
804.773	26130
804.915	26328
805.057	26495
805.199	26366
805.341	26545
805.483	26492
805.626	26366
805.768	26233
805.91	26465
806.052	26332
806.194	26278
806.336	26511
806.478	26381
806.62	26355
806.762	26514
806.904	26636
807.046	26826
807.188	26625
807.33	26663
807.472	26883
807.614	26739
807.756	26659
807.898	26670
808.04	26587
808.182	26613
808.324	26655
808.465	26743
808.607	26853
808.749	26994
808.891	26994
809.033	27192
809.174	27108
809.316	26979
809.458	26952
809.6	26948
809.741	27127
809.883	27226
810.025	27211
810.166	27142
810.308	27317
810.45	27199
810.591	27233
810.733	27032
810.875	26948
811.016	26948
811.158	26872
811.299	27116
811.441	27192
811.582	27070
811.724	27104
811.865	27005
812.007	26994
812.148	27001
812.29	27043
812.431	27089
812.573	27188
812.714	27291
812.855	27435
812.997	27473
813.138	27652
813.279	27595
813.421	27538
813.562	27454
813.703	27291
813.845	27283
813.986	26960
814.127	26697
814.268	26743
814.41	26651
814.551	26754
814.692	26667
814.833	26545
814.974	26587
815.115	26571
815.256	26396
815.397	26476
815.539	26507
815.68	26473
815.821	26514
815.962	26495
816.103	26438
816.244	26214
816.385	26286
816.526	26191
816.666	25936
816.807	26001
816.948	25966
817.089	26107
817.23	26088
817.371	25970
817.512	25879
817.653	25845
817.793	25765
817.934	25925
818.075	25970
818.216	25921
818.356	25894
818.497	25940
818.638	25525
818.778	25662
818.919	25613
819.06	25731
819.2	25849
819.341	25852
819.481	25875
819.622	26058
819.762	26195
819.903	26176
820.043	26016
820.184	26027
820.324	26103
820.465	26195
820.605	26214
820.746	25906
820.886	25936
821.026	26069
821.167	25890
821.307	26065
821.447	25837
821.588	25860
821.728	25849
821.868	25628
822.008	25430
822.149	25434
822.289	25403
822.429	25270
822.569	24951
822.709	25065
822.849	24977
822.99	24798
823.13	24947
823.27	24798
823.41	24673
823.55	24536
823.69	24681
823.83	24821
823.97	24665
824.11	24475
824.25	24540
824.389	24407
824.529	24623
824.669	24460
824.809	24623
824.949	24589
825.089	24597
825.228	24566
825.368	24486
825.508	24429
825.648	24418
825.787	24369
825.927	24460
826.067	24323
826.206	24315
826.346	24395
826.485	24437
826.625	24395
826.765	24498
826.904	24422
827.044	24270
827.183	24003
827.323	24152
827.462	24239
827.601	24106
827.741	24197
827.88	24121
828.02	23999
828.159	24011
828.298	24076
828.437	24194
828.577	24064
828.716	24197
828.855	24045
828.994	23802
829.134	23908
829.273	23760
829.412	23718
829.551	23752
829.69	23874
829.829	23684
829.968	23859
830.107	23748
830.246	23866
830.385	23851
830.524	23786
830.663	23638
830.802	23512
830.941	23467
831.08	23493
831.219	23501
831.357	23516
831.496	23676
831.635	23379
831.774	23326
831.913	23349
832.051	23254
832.19	23258
832.329	23288
832.467	23151
832.606	23060
832.744	23090
832.883	23075
833.022	23052
833.16	23102
833.299	23242
833.437	23124
833.576	23326
833.714	23140
833.852	23246
833.991	23315
834.129	23265
834.267	23250
834.406	23197
834.544	23094
834.682	23216
834.821	23143
834.959	23296
835.097	23086
835.235	23216
835.373	23174
835.511	23242
835.65	23064
835.788	23124
835.926	22843
836.064	22915
836.202	22938
836.34	23117
836.478	23090
836.615	22995
836.753	23109
836.891	23155
837.029	22961
837.167	22972
837.305	22968
837.443	22995
837.58	22839
837.718	22904
837.856	23010
837.993	22919
838.131	22999
838.269	22835
838.406	22687
838.544	22668
838.681	22653
838.819	22554
838.956	22352
839.094	22398
839.231	22341
839.369	22550
839.506	22641
839.643	22577
839.781	22455
839.918	22299
840.055	22451
840.193	22390
840.33	22280
840.467	22295
840.604	22436
840.742	22653
840.879	22139
841.016	22299
841.153	22272
841.29	22565
841.427	22284
841.564	22356
841.701	22379
841.838	22253
841.975	22086
842.112	22215
842.249	22166
842.385	22093
842.522	22166
842.659	22124
842.796	22048
842.933	22002
843.069	21930
843.206	21968
843.343	22169
843.479	22116
843.616	22032
843.752	21808
843.889	21876
844.025	21941
844.162	21831
844.298	21793
844.435	21911
844.571	21804
844.708	21808
844.844	21964
844.98	21918
845.117	21964
845.253	21701
845.389	21778
845.525	21743
845.661	21622
845.798	21648
845.934	21595
846.07	21564
846.206	21580
846.342	21652
846.478	21538
846.614	21481
846.75	21298
846.886	21275
847.022	21526
847.158	21336
847.294	21317
847.429	21397
847.565	21264
847.701	21496
847.837	21173
847.972	21032
848.108	21112
848.244	21123
848.379	20986
848.515	20960
848.65	20941
848.786	20963
848.921	20910
849.057	21085
849.192	21039
849.328	21043
849.463	20902
849.598	20937
849.734	20830
849.869	20819
850.004	20701
850.14	20739
850.275	20712
850.41	20708
850.545	20735
850.68	20537
850.815	20716
850.95	20689
851.085	20857
851.22	20674
851.355	20587
851.49	20750
851.625	20651
851.76	20712
851.895	20640
852.03	20590
852.165	20689
852.299	20754
852.434	20746
852.569	20686
852.703	20773
852.838	20629
852.973	20804
853.107	20712
853.242	20602
853.376	20617
853.511	20393
853.645	20362
853.78	20617
853.914	20476
854.048	20613
854.183	20651
854.317	20450
854.451	20773
854.585	20488
854.72	20530
854.854	20621
854.988	20492
855.122	20541
855.256	20347
855.39	20495
855.524	20575
855.658	20583
855.792	20541
855.926	20560
856.06	20571
856.194	20499
856.327	20511
856.461	20419
856.595	20423
856.729	20488
856.862	20583
856.996	20495
857.13	20617
857.263	20644
857.397	20522
857.53	20533
857.664	20552
857.797	20545
857.931	20549
858.064	20549
858.197	20648
858.331	20564
858.464	20476
858.597	20438
858.731	20575
858.864	20423
858.997	20537
859.13	20492
859.263	20621
859.396	20602
859.529	20480
859.662	20499
859.795	20400
859.928	20522
860.061	20590
860.194	20769
860.327	20522
860.46	20492
860.592	20625
860.725	20663
860.858	20648
860.99	20556
861.123	20583
861.256	20480
861.388	20613
861.521	20990
861.653	20446
861.786	20415
861.918	20385
862.05	20415
862.183	20336
862.315	20370
862.447	20541
862.58	20446
862.712	20191
862.844	20153
862.976	20237
863.108	20252
863.24	20606
863.372	20164
863.504	20259
863.636	20191
863.768	20393
863.9	20309
864.032	20138
864.164	20252
864.296	20252
864.428	20381
864.559	20263
864.691	20377
864.823	20343
864.954	20240
865.086	20176
865.217	20107
865.349	20153
865.48	20225
865.612	20244
865.743	20286
865.875	20149
866.006	20062
866.137	20225
866.269	20149
866.4	20092
866.531	20035
866.662	20031
866.793	20088
866.924	20256
867.055	20046
867.186	20088
867.317	20008
867.448	19921
867.579	19944
867.71	19986
867.841	19944
867.972	19997
868.103	20134
868.233	20054
868.364	20046
868.495	20206
868.625	20248
868.756	20438
868.886	20419
869.017	20328
869.147	20351
869.278	20374
869.408	20412
869.539	20366
869.669	20343
869.799	20454
869.929	20495
870.06	20396
870.19	20613
870.32	20632
870.45	20826
870.58	20864
870.71	20876
870.84	20914
870.97	20754
871.1	20788
871.23	20914
871.36	20906
871.489	20925
871.619	20902
871.749	20986
871.879	21013
872.008	21131
872.138	20845
872.267	20899
872.397	20815
872.526	20807
872.656	20773
872.785	20712
872.915	21017
873.044	20994
873.173	20960
873.303	20948
873.432	21070
873.561	21001
873.69	21032
873.819	20845
873.948	21085
874.077	21047
874.206	20921
874.335	20918
874.464	21100
874.593	21180
874.722	21081
874.851	21340
874.979	21180
875.108	21386
875.237	21119
875.365	21150
875.494	21135
875.623	21100
875.751	21195
875.88	21279
876.008	21344
876.136	21325
876.265	21504
876.393	21610
876.521	21629
876.65	21694
876.778	21618
876.906	21618
877.034	21610
877.162	21625
877.29	21542
877.418	21633
877.546	21667
877.674	21507
877.802	21641
877.93	21450
878.058	21447
878.185	21424
878.313	21511
878.441	21420
878.568	21405
878.696	21462
878.824	21606
878.951	21572
879.079	21701
879.206	21827
879.333	21663
879.461	21542
879.588	21618
879.715	21652
879.842	21709
879.97	21515
880.097	21408
880.224	21450
880.351	21454
880.478	21374
880.605	21386
880.732	21306
880.859	21454
880.986	21321
881.112	21332
881.239	21230
881.366	21161
881.493	20998
881.619	20975
881.746	20979
881.872	21024
881.999	20929
882.125	20956
882.252	20941
882.378	20979
882.505	21047
882.631	20880
882.757	20705
882.883	20651
883.01	20716
883.136	20594
883.262	20503
883.388	20446
883.514	20659
883.64	20663
883.766	20590
883.892	20575
884.018	20522
884.143	20670
884.269	20590
884.395	20393
884.52	20229
884.646	20313
884.772	20225
884.897	20180
885.023	20259
885.148	20450
885.274	20541
885.399	20343
885.524	20263
885.65	20313
885.775	20343
885.9	20275
886.025	20469
886.15	20339
886.275	20294
886.4	20248
886.525	20202
886.65	20259
886.775	20210
886.9	20389
887.025	20495
887.149	20374
887.274	20149
887.399	20088
887.523	20065
887.648	20126
887.773	19898
887.897	20164
888.021	20161
888.146	20027
888.27	20237
888.395	20225
888.519	20214
888.643	20138
888.767	20206
888.891	19986
889.015	19970
889.139	19967
889.263	19871
889.387	19928
889.511	20130
889.635	20081
889.759	19951
889.883	19849
890.006	19902
890.13	19986
890.254	19814
890.377	19883
890.501	19761
890.624	19647
890.748	19635
890.871	19567
890.995	19438
891.118	19373
891.241	19453
891.364	19460
891.488	19499
891.611	19506
891.734	19491
891.857	19571
891.98	19563
892.103	19480
892.226	19620
892.349	19457
892.471	19259
892.594	19487
892.717	19415
892.839	19381
892.962	19407
893.085	19411
893.207	19350
893.33	19320
893.452	19369
893.575	19331
893.697	19339
893.819	19487
893.941	19540
894.064	19662
894.186	19392
894.308	19270
894.43	19506
894.552	19510
894.674	19480
894.796	19358
894.918	19335
895.04	19274
895.161	19506
895.283	19388
895.405	19285
895.526	19388
895.648	19350
895.769	19453
895.891	19381
896.012	19510
896.134	19601
896.255	19434
896.376	19346
896.498	19430
896.619	19449
896.74	19396
896.861	19525
896.982	19734
897.103	19913
897.224	19677
897.345	19616
897.466	19559
897.587	19700
897.708	19772
897.828	19666
897.949	19609
898.07	19506
898.19	19578
898.311	19875
898.431	19552
898.552	19495
898.672	19738
898.792	19681
898.913	19651
899.033	19472
899.153	19476
899.273	19369
899.393	19369
899.513	19407
899.633	19502
899.753	19369
899.873	19308
899.993	19365
900.113	19324
900.232	19403
900.352	19282
900.472	19236
900.591	19171
900.711	19114
900.83	19145
900.95	19175
901.069	19251
901.189	19061
901.308	18863
901.427	18787
901.546	18806
901.665	18783
901.784	18738
901.904	18703
902.023	18502
902.141	18369
902.26	18380
902.379	18372
902.498	18247
902.617	18285
902.735	18350
902.854	18353
902.973	18178
903.091	17973
903.21	18011
903.328	17996
903.446	17863
903.565	17832
903.683	17798
903.801	17619
903.919	17821
904.038	17680
904.156	17615
904.274	17619
904.392	17425
904.51	17547
904.627	17585
904.745	17581
904.863	17558
904.981	17402
905.098	17254
905.216	17212
905.334	17265
905.451	17239
905.569	17284
905.686	17258
905.803	17212
905.921	16911
906.038	17105
906.155	16961
906.272	16900
906.389	16949
906.506	16793
906.623	16831
906.74	16816
906.857	16679
906.974	16733
907.091	16748
907.208	16873
907.324	16786
907.441	16668
907.557	16432
907.674	16527
907.79	16481
907.907	16409
908.023	16538
908.139	16527
908.256	16367
908.372	16390
908.488	16462
908.604	16215
908.72	16219
908.836	16295
908.952	16185
909.068	16303
909.184	16356
909.3	16105
909.415	16291
909.531	16188
909.647	15876
909.762	15895
909.878	15812
909.993	15873
910.108	15911
910.224	15861
910.339	15888
910.454	15816
910.57	15717
910.685	15720
910.8	16002
910.915	15915
911.03	15736
911.145	15637
911.259	15629
911.374	15538
911.489	15393
911.604	15393
911.718	15382
911.833	15252
911.947	15203
912.062	15070
912.176	15260
912.291	15351
912.405	15233
912.519	15424
912.633	15458
912.748	15264
912.862	15173
912.976	15062
913.09	15017
913.204	15043
913.318	15100
913.431	15135
913.545	15184
913.659	15203
913.772	15146
913.886	14887
914	14891
914.113	14941
914.226	15070
914.34	15013
914.453	14826
914.566	14979
914.68	14876
914.793	14830
914.906	14644
915.019	14610
915.132	14598
915.245	14533
915.358	14579
915.47	14568
915.583	14594
915.696	14564
915.809	14636
915.921	14746
916.034	14476
916.146	14461
916.259	14438
916.371	14514
916.483	14518
916.595	14423
916.708	14370
916.82	14427
916.932	14366
917.044	14324
917.156	14332
917.268	14191
917.38	14244
917.491	14195
917.603	14187
917.715	14275
917.826	14339
917.938	14157
918.049	13997
918.161	14119
918.272	14298
918.384	14301
918.495	14103
918.606	14001
918.717	13906
918.828	13951
918.939	14062
919.05	13951
919.161	13951
919.272	13700
919.383	13856
919.494	14039
919.604	14145
919.715	13936
919.826	13791
919.936	13959
920.047	14027
920.157	13944
920.267	14126
920.378	13940
920.488	13963
920.598	14016
920.708	14244
920.818	14103
920.928	14005
921.038	14267
921.148	14210
921.258	13871
921.368	13860
921.477	13746
921.587	13674
921.697	13548
921.806	13772
921.916	13499
922.025	13510
922.134	13377
922.244	13308
922.353	13388
922.462	13263
922.571	13270
922.68	12962
922.789	12973
922.898	13061
923.007	12943
923.116	12996
923.224	12962
923.333	12996
923.442	12916
923.55	12935
923.659	12924
923.767	12924
923.876	12882
923.984	12814
924.092	12696
924.201	12821
924.309	12707
924.417	12821
924.525	12711
924.633	12760
924.741	13464
924.849	12574
924.956	12601
925.064	12544
925.172	12357
925.279	12486
925.387	12563
925.494	12498
925.602	12612
925.709	12555
925.816	12319
925.924	12407
926.031	12467
926.138	12338
926.245	12437
926.352	12384
926.459	12464
926.566	12452
926.673	12311
926.779	12190
926.886	12209
926.993	12049
927.099	12083
927.206	12038
927.312	11942
927.419	12022
927.525	11969
927.631	12049
927.737	11931
927.843	11889
927.95	11840
928.056	11790
928.162	11866
928.267	11984
928.373	12589
928.479	11916
928.585	11688
928.69	11798
928.796	11870
928.901	11756
929.007	11600
929.112	11779
929.218	11688
929.323	11649
929.428	11524
929.533	11779
929.638	11600
929.743	11532
929.848	11623
929.953	11657
930.058	11448
930.163	11242
930.267	11345
930.372	11406
930.477	11322
930.581	11471
930.685	11299
930.79	11273
930.894	11235
930.998	11181
931.103	11398
931.207	10915
931.311	10923
931.415	10805
931.519	10607
931.623	10577
