Data from test_V78500241_3590.txt Node
Date: Fri Mar 25 15:34:51 CST 2022
User: usil
Spectrometer: V785-0024
Trigger mode: 0
Integration Time (sec): 4.000000E-1
Scans to average: 1
Nonlinearity correction enabled: false
Boxcar width: 0
Storing dark spectrum: false
XAxis mode: Wavelengths
Number of Pixels in Spectrum: 1024
>>>>>Begin Spectral Data<<<<<
801.071	27431
801.214	27188
801.356	27013
801.499	26948
801.641	26880
801.783	26864
801.926	26979
802.068	26758
802.211	26807
802.353	26876
802.496	26678
802.638	26507
802.78	26602
802.923	26499
803.065	26328
803.208	26385
803.35	26419
803.492	26568
803.635	26682
803.777	26648
803.919	26777
804.061	26979
804.204	26781
804.346	26625
804.488	26518
804.63	26689
804.773	26606
804.915	26617
805.057	26781
805.199	26480
805.341	26735
805.483	26788
805.626	26788
805.768	26594
805.91	26872
806.052	26781
806.194	26674
806.336	26880
806.478	26819
806.62	26796
806.762	26906
806.904	27066
807.046	27226
807.188	27279
807.33	27241
807.472	27325
807.614	27089
807.756	27131
807.898	27081
808.04	27039
808.182	27001
808.324	27180
808.465	27051
808.607	27237
808.749	27336
808.891	27469
809.033	27439
809.174	27447
809.316	27332
809.458	27355
809.6	27317
809.741	27351
809.883	27534
810.025	27728
810.166	27667
810.308	27732
810.45	27633
810.591	27576
810.733	27382
810.875	27336
811.016	27222
811.158	27310
811.299	27397
811.441	27557
811.582	27648
811.724	27492
811.865	27420
812.007	27370
812.148	27477
812.29	27488
812.431	27660
812.573	27641
812.714	27705
812.855	27770
812.997	27972
813.138	28173
813.279	27998
813.421	27941
813.562	27975
813.703	27713
813.845	27667
813.986	27431
814.127	27218
814.268	26925
814.41	27085
814.551	27020
814.692	27131
814.833	27089
814.974	27028
815.115	27032
815.256	26948
815.397	26940
815.539	26868
815.68	26811
815.821	26792
815.962	26785
816.103	26781
816.244	26697
816.385	26678
816.526	26579
816.666	26355
816.807	26377
816.948	26339
817.089	26453
817.23	26419
817.371	26389
817.512	26237
817.653	26298
817.793	26298
817.934	26259
818.075	26400
818.216	26320
818.356	26195
818.497	26244
818.638	25966
818.778	26100
818.919	26111
819.06	26145
819.2	26187
819.341	26244
819.481	26309
819.622	26347
819.762	26587
819.903	26537
820.043	26625
820.184	26450
820.324	26492
820.465	26412
820.605	26358
820.746	26446
820.886	26252
821.026	26385
821.167	26290
821.307	26393
821.447	26294
821.588	26183
821.728	26202
821.868	25982
822.008	25875
822.149	25784
822.289	25776
822.429	25441
822.569	25491
822.709	25453
822.849	25324
822.99	25308
823.13	25274
823.27	25270
823.41	25171
823.55	24913
823.69	25034
823.83	25133
823.97	25114
824.11	24867
824.25	24856
824.389	24932
824.529	24909
824.669	24726
824.809	25084
824.949	25027
825.089	25080
825.228	24996
825.368	24878
825.508	24684
825.648	24783
825.787	24753
825.927	24760
826.067	24722
826.206	24981
826.346	24844
826.485	24734
826.625	24821
826.765	24859
826.904	24935
827.044	24540
827.183	24422
827.323	24540
827.462	24563
827.601	24528
827.741	24544
827.88	24547
828.02	24346
828.159	24486
828.298	24532
828.437	24692
828.577	24513
828.716	24525
828.855	24429
828.994	24205
829.134	24155
829.273	24232
829.412	24152
829.551	24155
829.69	24308
829.829	24159
829.968	24254
830.107	24292
830.246	24308
830.385	24178
830.524	23973
830.663	24049
830.802	23999
830.941	23847
831.08	23950
831.219	23904
831.357	23958
831.496	24102
831.635	23965
831.774	23798
831.913	23657
832.051	23570
832.19	23695
832.329	23672
832.467	23471
832.606	23554
832.744	23379
832.883	23490
833.022	23482
833.16	23482
833.299	23547
833.437	23516
833.576	23547
833.714	23539
833.852	23710
833.991	23661
834.129	23570
834.267	23710
834.406	23596
834.544	23668
834.682	23684
834.821	23661
834.959	23836
835.097	23539
835.235	23585
835.373	23604
835.511	23558
835.65	23353
835.788	23387
835.926	23265
836.064	23235
836.202	23280
836.34	23448
836.478	23429
836.615	23486
836.753	23486
836.891	23562
837.029	23414
837.167	23303
837.305	23277
837.443	23307
837.58	23391
837.718	23334
837.856	23284
837.993	23235
838.131	23372
838.269	23197
838.406	23223
838.544	23052
838.681	23010
838.819	22782
838.956	22889
839.094	22782
839.231	22797
839.369	22809
839.506	23037
839.643	23025
839.781	22645
839.918	22790
840.055	22767
840.193	22748
840.33	22721
840.467	22805
840.604	22763
840.742	23094
840.879	22607
841.016	22550
841.153	22618
841.29	22801
841.427	22752
841.564	22752
841.701	22717
841.838	22656
841.975	22451
842.112	22573
842.249	22630
842.385	22569
842.522	22759
842.659	22618
842.796	22504
842.933	22440
843.069	22428
843.206	22424
843.343	22542
843.479	22455
843.616	22436
843.752	22318
843.889	22261
844.025	22421
844.162	22093
844.298	22299
844.435	22291
844.571	22196
844.708	22284
844.844	22379
844.98	22379
845.117	22284
845.253	22211
845.389	22173
845.525	22128
845.661	22158
845.798	21964
845.934	22158
846.07	21953
846.206	22006
846.342	22116
846.478	21979
846.614	21698
846.75	21690
846.886	21800
847.022	21755
847.158	21823
847.294	21728
847.429	21663
847.565	21595
847.701	21987
847.837	21443
847.972	21435
848.108	21561
848.244	21523
848.379	21340
848.515	21218
848.65	21420
848.786	21245
848.921	21386
849.057	21344
849.192	21378
849.328	21386
849.463	21294
849.598	21268
849.734	21298
849.869	21077
850.004	21032
850.14	21096
850.275	21131
850.41	20941
850.545	21165
850.68	20971
850.815	21032
850.95	21192
851.085	21214
851.22	21142
851.355	21131
851.49	21089
851.625	21096
851.76	21024
851.895	21005
852.03	20979
852.165	21085
852.299	21112
852.434	21157
852.569	21123
852.703	21093
852.838	21127
852.973	21230
853.107	21142
853.242	21100
853.376	20883
853.511	20796
853.645	20925
853.78	21024
853.914	20967
854.048	20826
854.183	20788
854.317	20895
854.451	21013
854.585	21005
854.72	20819
854.854	21085
854.988	20883
855.122	20792
855.256	20899
855.39	20823
855.524	20933
855.658	20933
855.792	20982
855.926	20998
856.06	21039
856.194	21039
856.327	20902
856.461	20800
856.595	20872
856.729	20883
856.862	21024
856.996	20952
857.13	20960
857.263	20994
857.397	20979
857.53	20872
857.664	20834
857.797	21089
857.931	20986
858.064	20807
858.197	21017
858.331	20823
858.464	20887
858.597	20743
858.731	20998
858.864	20830
858.997	20807
859.13	20910
859.263	20998
859.396	21013
859.529	20899
859.662	20864
859.795	20815
859.928	20971
860.061	20967
860.194	21100
860.327	20990
860.46	20948
860.592	21039
860.725	21074
860.858	21154
860.99	20941
861.123	20750
861.256	20792
861.388	20921
861.521	21694
861.653	20819
861.786	20727
861.918	20735
862.05	20880
862.183	20792
862.315	20838
862.447	20815
862.58	20849
862.712	20579
862.844	20644
862.976	20697
863.108	20655
863.24	21032
863.372	20701
863.504	20670
863.636	20629
863.768	20598
863.9	20590
864.032	20495
864.164	20552
864.296	20663
864.428	20777
864.559	20625
864.691	20598
864.823	20712
864.954	20541
865.086	20594
865.217	20575
865.349	20499
865.48	20423
865.612	20473
865.743	20609
865.875	20571
866.006	20442
866.137	20678
866.269	20480
866.4	20454
866.531	20492
866.662	20351
866.793	20545
866.924	20541
867.055	20427
867.186	20537
867.317	20461
867.448	20374
867.579	20377
867.71	20332
867.841	20469
867.972	20465
868.103	20465
868.233	20484
868.364	20533
868.495	20549
868.625	20670
868.756	20823
868.886	20632
869.017	20609
869.147	20811
869.278	20743
869.408	20754
869.539	20598
869.669	20807
869.799	20758
869.929	20693
870.06	20826
870.19	21070
870.32	21009
870.45	20941
870.58	20982
870.71	21138
870.84	21169
870.97	21047
871.1	21188
871.23	21184
871.36	21431
871.489	21226
871.619	21180
871.749	21313
871.879	21310
872.008	21332
872.138	21363
872.267	21329
872.397	21058
872.526	21116
872.656	21085
872.785	21142
872.915	21416
873.044	21397
873.173	21329
873.303	21401
873.432	21332
873.561	21492
873.69	21363
873.819	21340
873.948	21397
874.077	21329
874.206	21317
874.335	21332
874.464	21515
874.593	21599
874.722	21557
874.851	21576
874.979	21542
875.108	21686
875.237	21564
875.365	21317
875.494	21587
875.623	21694
875.751	21481
875.88	21583
876.008	21633
876.136	21652
876.265	21934
876.393	22082
876.521	22032
876.65	22162
876.778	22006
876.906	21960
877.034	21964
877.162	21949
877.29	21941
877.418	21979
877.546	21846
877.674	21854
877.802	21850
877.93	21865
878.058	21930
878.185	21759
878.313	21861
878.441	21987
878.568	21785
878.696	21960
878.824	21998
878.951	22010
879.079	22067
879.206	22105
879.333	22181
879.461	21960
879.588	21922
879.715	22063
879.842	22242
879.97	22002
880.097	21797
880.224	21861
880.351	21804
880.478	21770
880.605	21599
880.732	21656
880.859	21949
880.986	21751
881.112	21743
881.239	21526
881.366	21603
881.493	21340
881.619	21283
881.746	21431
881.872	21382
881.999	21207
882.125	21321
882.252	21298
882.378	21340
882.505	21310
882.631	21157
882.757	21013
882.883	21074
883.01	20990
883.136	20880
883.262	20948
883.388	20979
883.514	21028
883.64	21222
883.766	20830
883.892	20887
884.018	20853
884.143	20944
884.269	21024
884.395	20682
884.52	20746
884.646	20762
884.772	20651
884.897	20537
885.023	20629
885.148	20914
885.274	20758
885.399	20762
885.524	20682
885.65	20663
885.775	20746
885.9	20724
886.025	20773
886.15	20746
886.275	20750
886.4	20625
886.525	20701
886.65	20636
886.775	20663
886.9	20811
887.025	20769
887.149	20686
887.274	20419
887.399	20511
887.523	20423
887.648	20412
887.773	20324
887.897	20461
888.021	20575
888.146	20347
888.27	20518
888.395	20461
888.519	20503
888.643	20484
888.767	20385
888.891	20393
889.015	20343
889.139	20309
889.263	20180
889.387	20412
889.511	20511
889.635	20275
889.759	20271
889.883	20187
890.006	20320
890.13	20358
890.254	20096
890.377	20103
890.501	20073
890.624	20027
890.748	20012
890.871	19921
890.995	19807
891.118	19746
891.241	19906
891.364	19708
891.488	19921
891.611	19864
891.734	19822
891.857	19864
891.98	19811
892.103	19837
892.226	19887
892.349	19860
892.471	19624
892.594	19898
892.717	19784
892.839	19761
892.962	19772
893.085	19685
893.207	19780
893.33	19655
893.452	19696
893.575	19742
893.697	19677
893.819	19860
893.941	19944
894.064	20020
894.186	19662
894.308	19582
894.43	19799
894.552	19913
894.674	19761
894.796	19677
894.918	19693
895.04	19696
895.161	19795
895.283	19811
895.405	19704
895.526	19571
895.648	19696
895.769	19761
895.891	19746
896.012	19742
896.134	19738
896.255	19750
896.376	19712
896.498	19765
896.619	19658
896.74	19822
896.861	19765
896.982	20168
897.103	20195
897.224	20084
897.345	20008
897.466	19925
897.587	20043
897.708	20115
897.828	19925
897.949	19852
898.07	19849
898.19	19883
898.311	20035
898.431	19902
898.552	19970
898.672	20050
898.792	20005
898.913	20054
899.033	19852
899.153	19776
899.273	19571
899.393	19723
899.513	19772
899.633	19723
899.753	19811
899.873	19655
899.993	19727
900.113	19750
900.232	19693
900.352	19616
900.472	19597
900.591	19544
900.711	19487
900.83	19457
900.95	19639
901.069	19495
901.189	19384
901.308	19053
901.427	19050
901.546	19118
901.665	19012
901.784	19118
901.904	19015
902.023	18867
902.141	18654
902.26	18627
902.379	18817
902.498	18700
902.617	18509
902.735	18642
902.854	18585
902.973	18384
903.091	18247
903.21	18346
903.328	18197
903.446	18174
903.565	18117
903.683	18110
903.801	18053
903.919	18026
904.038	17977
904.156	17764
904.274	17950
904.392	17767
904.51	17760
904.627	17714
904.745	17923
904.863	17824
904.981	17600
905.098	17467
905.216	17474
905.334	17581
905.451	17482
905.569	17539
905.686	17592
905.803	17634
905.921	17376
906.038	17429
906.155	17311
906.272	17212
906.389	17277
906.506	17025
906.623	17064
906.74	17056
906.857	16904
906.974	16991
907.091	17193
907.208	17239
907.324	17022
907.441	16987
907.557	16835
907.674	16771
907.79	16755
907.907	16809
908.023	16793
908.139	16866
908.256	16603
908.372	16748
908.488	16790
908.604	16508
908.72	16436
908.836	16489
908.952	16478
909.068	16409
909.184	16664
909.3	16542
909.415	16584
909.531	16424
909.647	16272
909.762	16238
909.878	16158
909.993	16188
910.108	16147
910.224	16139
910.339	16196
910.454	16032
910.57	16067
910.685	16040
910.8	16139
910.915	16105
911.03	15987
911.145	15865
911.259	15774
911.374	15922
911.489	15736
911.604	15720
911.718	15584
911.833	15591
911.947	15496
912.062	15408
912.176	15663
912.291	15584
912.405	15622
912.519	15736
912.633	15819
912.748	15671
912.862	15576
912.976	15454
913.09	15302
913.204	15332
913.318	15310
913.431	15443
913.545	15389
913.659	15542
913.772	15408
913.886	15173
914	15237
914.113	15351
914.226	15317
914.34	15233
914.453	15176
914.566	15165
914.68	15058
914.793	15085
914.906	14845
915.019	14758
915.132	14762
915.245	14838
915.358	14796
915.47	14834
915.583	14804
915.696	14883
915.809	14872
915.921	14990
916.034	14762
916.146	14735
916.259	14670
916.371	14857
916.483	14758
916.595	14617
916.708	14621
916.82	14686
916.932	14632
917.044	14659
917.156	14568
917.268	14590
917.38	14556
917.491	14400
917.603	14541
917.715	14499
917.826	14518
917.938	14434
918.049	14343
918.161	14461
918.272	14514
918.384	14492
918.495	14412
918.606	14233
918.717	14164
918.828	14263
918.939	14275
919.05	14176
919.161	14172
919.272	14035
919.383	14016
919.494	14271
919.604	14446
919.715	14244
919.826	14149
919.936	14142
920.047	14343
920.157	14180
920.267	14408
920.378	14313
920.488	14206
920.598	14309
920.708	14526
920.818	14305
920.928	14389
921.038	14556
921.148	14450
921.258	14107
921.368	14119
921.477	13986
921.587	13860
921.697	13879
921.806	13947
921.916	13769
922.025	13662
922.134	13563
922.244	13639
922.353	13590
922.462	13506
922.571	13400
922.68	13213
922.789	13266
922.898	13312
923.007	13168
923.116	13244
923.224	13225
923.333	13209
923.442	13175
923.55	12989
923.659	13118
923.767	13156
923.876	13012
923.984	13122
924.092	13019
924.201	13091
924.309	12905
924.417	12989
924.525	13000
924.633	12905
924.741	13898
924.849	12798
924.956	12840
925.064	12673
925.172	12646
925.279	12673
925.387	12692
925.494	12700
925.602	12776
925.709	12669
925.816	12570
925.924	12604
926.031	12707
926.138	12620
926.245	12738
926.352	12631
926.459	12696
926.566	12677
926.673	12650
926.779	12494
926.886	12429
926.993	12384
927.099	12235
927.206	12205
927.312	12232
927.419	12292
927.525	12232
927.631	12270
927.737	12182
927.843	12136
927.95	11988
928.056	12026
928.162	12140
928.267	12114
928.373	12589
928.479	12182
928.585	11920
928.69	12068
928.796	12011
928.901	11866
929.007	11775
929.112	11984
929.218	11939
929.323	11790
929.428	11798
929.533	11927
929.638	11718
929.743	11760
929.848	11832
929.953	11783
930.058	11756
930.163	11505
930.267	11463
930.372	11611
930.477	11398
930.581	11710
930.685	11493
930.79	11486
930.894	11433
930.998	11372
931.103	11482
931.207	11033
931.311	11025
931.415	10995
931.519	10759
931.623	10748
