Data from test_V78500241_1688.txt Node
Date: Fri Mar 25 15:21:36 CST 2022
User: usil
Spectrometer: V785-0024
Trigger mode: 0
Integration Time (sec): 4.000000E-1
Scans to average: 1
Nonlinearity correction enabled: false
Boxcar width: 0
Storing dark spectrum: false
XAxis mode: Wavelengths
Number of Pixels in Spectrum: 1024
>>>>>Begin Spectral Data<<<<<
801.071	28067
801.214	27918
801.356	27724
801.499	27572
801.641	27473
801.783	27622
801.926	27675
802.068	27553
802.211	27591
802.353	27374
802.496	27283
802.638	27245
802.78	27157
802.923	27085
803.065	27142
803.208	27211
803.35	27127
803.492	27218
803.635	27500
803.777	27317
803.919	27416
804.061	27728
804.204	27431
804.346	27405
804.488	27424
804.63	27469
804.773	27443
804.915	27363
805.057	27610
805.199	27462
805.341	27466
805.483	27717
805.626	27679
805.768	27466
805.91	27545
806.052	27572
806.194	27466
806.336	27679
806.478	27485
806.62	27507
806.762	27656
806.904	27941
807.046	28086
807.188	28181
807.33	28006
807.472	27983
807.614	27804
807.756	27987
807.898	27823
808.04	27793
808.182	27903
808.324	27804
808.465	27911
808.607	28109
808.749	28173
808.891	28363
809.033	28333
809.174	28261
809.316	28261
809.458	28257
809.6	28158
809.741	28390
809.883	28253
810.025	28531
810.166	28428
810.308	28565
810.45	28500
810.591	28390
810.733	28318
810.875	28158
811.016	28147
811.158	28067
811.299	28276
811.441	28470
811.582	28173
811.724	28249
811.865	28215
812.007	28310
812.148	28238
812.29	28185
812.431	28413
812.573	28504
812.714	28588
812.855	28782
812.997	28873
813.138	28980
813.279	28892
813.421	28786
813.562	28793
813.703	28683
813.845	28421
813.986	28181
814.127	28101
814.268	27880
814.41	27873
814.551	27857
814.692	27888
814.833	27873
814.974	27743
815.115	28017
815.256	27846
815.397	27751
815.539	27717
815.68	27667
815.821	27686
815.962	27663
816.103	27652
816.244	27671
816.385	27526
816.526	27523
816.666	27233
816.807	27169
816.948	27313
817.089	27332
817.23	27249
817.371	27256
817.512	27142
817.653	27062
817.793	27146
817.934	27321
818.075	27207
818.216	27252
818.356	27207
818.497	27055
818.638	26864
818.778	27009
818.919	27009
819.06	27043
819.2	27070
819.341	27112
819.481	27370
819.622	27447
819.762	27504
819.903	27481
820.043	27363
820.184	27226
820.324	27226
820.465	27439
820.605	27306
820.746	27313
820.886	27169
821.026	27317
821.167	27214
821.307	27203
821.447	27161
821.588	27058
821.728	27055
821.868	26899
822.008	26769
822.149	26701
822.289	26678
822.429	26389
822.569	26412
822.709	26396
822.849	26046
822.99	26138
823.13	26229
823.27	26115
823.41	26065
823.55	25993
823.69	25959
823.83	26005
823.97	25928
824.11	25871
824.25	25719
824.389	25719
824.529	25925
824.669	25849
824.809	25879
824.949	25864
825.089	26020
825.228	25856
825.368	25662
825.508	25761
825.648	25795
825.787	25685
825.927	25780
826.067	25670
826.206	25590
826.346	25696
826.485	25750
826.625	25734
826.765	25803
826.904	25704
827.044	25419
827.183	25472
827.323	25293
827.462	25510
827.601	25400
827.741	25468
827.88	25575
828.02	25198
828.159	25426
828.298	25415
828.437	25495
828.577	25396
828.716	25457
828.855	25255
828.994	25137
829.134	25099
829.273	25107
829.412	25232
829.551	25034
829.69	25099
829.829	25282
829.968	25251
830.107	25194
830.246	25129
830.385	25141
830.524	25145
830.663	24905
830.802	24867
830.941	24787
831.08	24779
831.219	24833
831.357	24867
831.496	24962
831.635	24688
831.774	24585
831.913	24589
832.051	24551
832.19	24570
832.329	24578
832.467	24429
832.606	24372
832.744	24498
832.883	24410
833.022	24399
833.16	24521
833.299	24502
833.437	24323
833.576	24456
833.714	24445
833.852	24612
833.991	24559
834.129	24601
834.267	24612
834.406	24559
834.544	24357
834.682	24437
834.821	24452
834.959	24559
835.097	24540
835.235	24456
835.373	24388
835.511	24525
835.65	24353
835.788	24338
835.926	24110
836.064	24098
836.202	24285
836.34	24380
836.478	24350
836.615	24327
836.753	24270
836.891	24330
837.029	24490
837.167	24057
837.305	24209
837.443	24171
837.58	24155
837.718	24311
837.856	24228
837.993	24114
838.131	24167
838.269	23946
838.406	24106
838.544	23893
838.681	23771
838.819	23752
838.956	23627
839.094	23596
839.231	23775
839.369	23786
839.506	23992
839.643	23866
839.781	23630
839.918	23543
840.055	23665
840.193	23558
840.33	23547
840.467	23551
840.604	23604
840.742	23676
840.879	23421
841.016	23425
841.153	23486
841.29	23668
841.427	23486
841.564	23493
841.701	23535
841.838	23410
841.975	23414
842.112	23368
842.249	23303
842.385	23353
842.522	23444
842.659	23402
842.796	23280
842.933	23239
843.069	23204
843.206	23170
843.343	23330
843.479	23372
843.616	23337
843.752	23037
843.889	23208
844.025	23132
844.162	23014
844.298	23212
844.435	23105
844.571	23006
844.708	23094
844.844	23322
844.98	23181
845.117	23037
845.253	23113
845.389	22911
845.525	22946
845.661	22892
845.798	22843
845.934	22881
846.07	22885
846.206	22923
846.342	22919
846.478	22908
846.614	22489
846.75	22417
846.886	22580
847.022	22630
847.158	22603
847.294	22550
847.429	22637
847.565	22580
847.701	22828
847.837	22280
847.972	22329
848.108	22356
848.244	22356
848.379	22242
848.515	22215
848.65	22067
848.786	22204
848.921	22192
849.057	22219
849.192	22234
849.328	22219
849.463	22078
849.598	22090
849.734	22006
849.869	21968
850.004	21888
850.14	21895
850.275	21835
850.41	21720
850.545	21895
850.68	21766
850.815	21895
850.95	21774
851.085	22051
851.22	21880
851.355	21827
851.49	21884
851.625	21869
851.76	21934
851.895	21850
852.03	21831
852.165	21972
852.299	21915
852.434	21827
852.569	21869
852.703	21865
852.838	21907
852.973	21979
853.107	21964
853.242	21823
853.376	21724
853.511	21667
853.645	21774
853.78	21747
853.914	21667
854.048	21709
854.183	21511
854.317	21751
854.451	21800
854.585	21736
854.72	21690
854.854	21793
854.988	21652
855.122	21793
855.256	21511
855.39	21637
855.524	21842
855.658	21656
855.792	21728
855.926	21679
856.06	21766
856.194	21857
856.327	21724
856.461	21622
856.595	21717
856.729	21583
856.862	21709
856.996	21781
857.13	21751
857.263	21831
857.397	21819
857.53	21549
857.664	21701
857.797	21709
857.931	21766
858.064	21698
858.197	21755
858.331	21564
858.464	21789
858.597	21603
858.731	21618
858.864	21732
858.997	21759
859.13	21644
859.263	21701
859.396	21895
859.529	21557
859.662	21720
859.795	21625
859.928	21690
860.061	21838
860.194	21869
860.327	21816
860.46	21618
860.592	21789
860.725	21785
860.858	21842
860.99	21698
861.123	21679
861.256	21507
861.388	21698
861.521	22318
861.653	21488
861.786	21564
861.918	21526
862.05	21610
862.183	21625
862.315	21739
862.447	21785
862.58	21473
862.712	21473
862.844	21359
862.976	21504
863.108	21580
863.24	21869
863.372	21329
863.504	21298
863.636	21370
863.768	21496
863.9	21530
864.032	21378
864.164	21298
864.296	21488
864.428	21473
864.559	21496
864.691	21462
864.823	21359
864.954	21359
865.086	21355
865.217	21359
865.349	21233
865.48	21332
865.612	21374
865.743	21488
865.875	21340
866.006	21173
866.137	21268
866.269	21397
866.4	21359
866.531	21260
866.662	21218
866.793	21233
866.924	21184
867.055	21237
867.186	21222
867.317	21252
867.448	21176
867.579	21173
867.71	21237
867.841	21108
867.972	21237
868.103	21260
868.233	21249
868.364	21222
868.495	21291
868.625	21473
868.756	21572
868.886	21553
869.017	21515
869.147	21557
869.278	21473
869.408	21424
869.539	21591
869.669	21526
869.799	21332
869.929	21622
870.06	21515
870.19	21709
870.32	21724
870.45	21838
870.58	21823
870.71	22082
870.84	22036
870.97	21831
871.1	21888
871.23	21968
871.36	22040
871.489	21987
871.619	22025
871.749	22002
871.879	22135
872.008	22173
872.138	22150
872.267	22048
872.397	21884
872.526	21930
872.656	21975
872.785	21854
872.915	22097
873.044	22124
873.173	22112
873.303	22177
873.432	22154
873.561	22249
873.69	22154
873.819	22192
873.948	22196
874.077	22025
874.206	22067
874.335	22025
874.464	22219
874.593	22280
874.722	22238
874.851	22344
874.979	22253
875.108	22440
875.237	22253
875.365	22329
875.494	22303
875.623	22352
875.751	22234
875.88	22265
876.008	22318
876.136	22443
876.265	22759
876.393	22729
876.521	22831
876.65	22786
876.778	22607
876.906	22694
877.034	22687
877.162	22626
877.29	22698
877.418	22637
877.546	22561
877.674	22725
877.802	22596
877.93	22584
878.058	22512
878.185	22546
878.313	22588
878.441	22656
878.568	22508
878.696	22546
878.824	22717
878.951	22694
879.079	22790
879.206	22915
879.333	22812
879.461	22603
879.588	22736
879.715	22831
879.842	22854
879.97	22729
880.097	22398
880.224	22478
880.351	22417
880.478	22565
880.605	22375
880.732	22538
880.859	22702
880.986	22459
881.112	22489
881.239	22402
881.366	22230
881.493	22120
881.619	22017
881.746	22029
881.872	21835
881.999	22029
882.125	22029
882.252	22093
882.378	21953
882.505	22093
882.631	21926
882.757	21850
882.883	21785
883.01	21679
883.136	21778
883.262	21595
883.388	21724
883.514	21679
883.64	21838
883.766	21523
883.892	21485
884.018	21637
884.143	21732
884.269	21610
884.395	21378
884.52	21351
884.646	21477
884.772	21192
884.897	21184
885.023	21393
885.148	21408
885.274	21564
885.399	21492
885.524	21363
885.65	21329
885.775	21355
885.9	21306
886.025	21405
886.15	21545
886.275	21363
886.4	21249
886.525	21306
886.65	21207
886.775	21218
886.9	21492
887.025	21458
887.149	21302
887.274	21138
887.399	21119
887.523	21032
887.648	21100
887.773	21001
887.897	21165
888.021	21188
888.146	21085
888.27	21173
888.395	21233
888.519	21131
888.643	21070
888.767	21123
888.891	21020
889.015	20842
889.139	21039
889.263	20925
889.387	20948
889.511	21062
889.635	21024
889.759	20921
889.883	20872
890.006	21028
890.13	21081
890.254	20754
890.377	20800
890.501	20739
890.624	20670
890.748	20807
890.871	20663
890.995	20495
891.118	20400
891.241	20499
891.364	20514
891.488	20670
891.611	20457
891.734	20518
891.857	20507
891.98	20537
892.103	20507
892.226	20522
892.349	20484
892.471	20229
892.594	20370
892.717	20396
892.839	20381
892.962	20381
893.085	20465
893.207	20385
893.33	20298
893.452	20267
893.575	20320
893.697	20336
893.819	20575
893.941	20602
894.064	20412
894.186	20259
894.308	20358
894.43	20385
894.552	20541
894.674	20328
894.796	20377
894.918	20313
895.04	20351
895.161	20461
895.283	20450
895.405	20415
895.526	20263
895.648	20305
895.769	20408
895.891	20488
896.012	20480
896.134	20408
896.255	20404
896.376	20294
896.498	20473
896.619	20511
896.74	20461
896.861	20461
896.982	20693
897.103	20750
897.224	20613
897.345	20636
897.466	20476
897.587	20617
897.708	20823
897.828	20617
897.949	20476
898.07	20450
898.19	20549
898.311	20632
898.431	20602
898.552	20621
898.672	20682
898.792	20708
898.913	20621
899.033	20427
899.153	20450
899.273	20313
899.393	20317
899.513	20393
899.633	20240
899.753	20301
899.873	20271
899.993	20336
900.113	20305
900.232	20396
900.352	20237
900.472	20119
900.591	20206
900.711	20107
900.83	20088
900.95	20313
901.069	20286
901.189	20020
901.308	19833
901.427	19674
901.546	19788
901.665	19734
901.784	19742
901.904	19662
902.023	19384
902.141	19346
902.26	19209
902.379	19396
902.498	19202
902.617	19145
902.735	19278
902.854	19198
902.973	19190
903.091	18954
903.21	18894
903.328	18905
903.446	18757
903.565	18772
903.683	18700
903.801	18620
903.919	18639
904.038	18688
904.156	18513
904.274	18536
904.392	18486
904.51	18418
904.627	18467
904.745	18475
904.863	18513
904.981	18323
905.098	18171
905.216	18159
905.334	18133
905.451	18216
905.569	17999
905.686	18098
905.803	18194
905.921	17882
906.038	17969
906.155	18072
906.272	17863
906.389	17851
906.506	17771
906.623	17642
906.74	17581
906.857	17691
906.974	17642
907.091	17710
907.208	17859
907.324	17668
907.441	17684
907.557	17452
907.674	17353
907.79	17368
907.907	17417
908.023	17337
908.139	17391
908.256	17398
908.372	17288
908.488	17341
908.604	17102
908.72	17033
908.836	17143
908.952	17109
909.068	17025
909.184	17166
909.3	17159
909.415	17265
909.531	17102
909.647	16873
909.762	16835
909.878	16721
909.993	16786
910.108	16763
910.224	16767
910.339	16740
910.454	16710
910.57	16660
910.685	16577
910.8	16828
910.915	16664
911.03	16561
911.145	16436
911.259	16436
911.374	16394
911.489	16371
911.604	16246
911.718	16158
911.833	16211
911.947	16059
912.062	15983
912.176	16040
912.291	16230
912.405	16131
912.519	16333
912.633	16249
912.748	16219
912.862	16093
912.976	15975
913.09	15846
913.204	15983
913.318	15911
913.431	16029
913.545	16029
913.659	15979
913.772	15922
913.886	15762
914	15736
914.113	15861
914.226	15797
914.34	15762
914.453	15720
914.566	15827
914.68	15671
914.793	15629
914.906	15408
915.019	15370
915.132	15374
915.245	15378
915.358	15412
915.47	15325
915.583	15321
915.696	15340
915.809	15389
915.921	15526
916.034	15241
916.146	15245
916.259	15351
916.371	15294
916.483	15249
916.595	15195
916.708	15245
916.82	15230
916.932	15142
917.044	15211
917.156	15123
917.268	14956
917.38	14986
917.491	14982
917.603	14982
917.715	14967
917.826	14986
917.938	14967
918.049	14838
918.161	14971
918.272	15112
918.384	14986
918.495	14941
918.606	14811
918.717	14701
918.828	14769
918.939	14834
919.05	14564
919.161	14826
919.272	14552
919.383	14670
919.494	14762
919.604	14971
919.715	14765
919.826	14629
919.936	14765
920.047	14758
920.157	14777
920.267	14891
920.378	14758
920.488	14640
920.598	14891
920.708	15066
920.818	14918
920.928	14819
921.038	14967
921.148	14902
921.258	14636
921.368	14587
921.477	14499
921.587	14282
921.697	14313
921.806	14457
921.916	14286
922.025	14176
922.134	14043
922.244	13986
922.353	14039
922.462	13925
922.571	13883
922.68	13704
922.789	13670
922.898	13750
923.007	13693
923.116	13849
923.224	13715
923.333	13689
923.442	13677
923.55	13578
923.659	13575
923.767	13518
923.876	13556
923.984	13582
924.092	13430
924.201	13483
924.309	13457
924.417	13468
924.525	13377
924.633	13396
924.741	14138
924.849	13194
924.956	13362
925.064	13240
925.172	13084
925.279	13091
925.387	13225
925.494	13133
925.602	13301
925.709	13183
925.816	13057
925.924	13065
926.031	13152
926.138	13110
926.245	13053
926.352	13023
926.459	13088
926.566	13076
926.673	13015
926.779	12920
926.886	12848
926.993	12749
927.099	12711
927.206	12681
927.312	12604
927.419	12764
927.525	12597
927.631	12627
927.737	12620
927.843	12479
927.95	12399
928.056	12407
928.162	12494
928.267	12456
928.373	13031
928.479	12574
928.585	12308
928.69	12471
928.796	12483
928.901	12399
929.007	12258
929.112	12296
929.218	12353
929.323	12273
929.428	12232
929.533	12384
929.638	12178
929.743	12163
929.848	12209
929.953	12197
930.058	12079
930.163	11931
930.267	11836
930.372	11961
930.477	11855
930.581	12098
930.685	11923
930.79	11805
930.894	11840
930.998	11813
931.103	11904
931.207	11528
931.311	11444
931.415	11353
931.519	11246
931.623	11136
