Data from test_V78500241_879.txt Node
Date: Fri Mar 25 15:15:58 CST 2022
User: usil
Spectrometer: V785-0024
Trigger mode: 0
Integration Time (sec): 4.000000E-1
Scans to average: 1
Nonlinearity correction enabled: false
Boxcar width: 0
Storing dark spectrum: false
XAxis mode: Wavelengths
Number of Pixels in Spectrum: 1024
>>>>>Begin Spectral Data<<<<<
801.071	28002
801.214	28067
801.356	27671
801.499	27618
801.641	27485
801.783	27568
801.926	27656
802.068	27447
802.211	27526
802.353	27488
802.496	27272
802.638	27154
802.78	27192
802.923	27256
803.065	27138
803.208	27135
803.35	27325
803.492	27367
803.635	27332
803.777	27317
803.919	27439
804.061	27728
804.204	27405
804.346	27431
804.488	27275
804.63	27382
804.773	27367
804.915	27466
805.057	27507
805.199	27427
805.341	27408
805.483	27633
805.626	27492
805.768	27462
805.91	27580
806.052	27492
806.194	27519
806.336	27854
806.478	27606
806.62	27561
806.762	27542
806.904	27747
807.046	28128
807.188	28029
807.33	27960
807.472	28002
807.614	27972
807.756	27953
807.898	27846
808.04	27785
808.182	27865
808.324	27884
808.465	27854
808.607	28154
808.749	28131
808.891	28211
809.033	28421
809.174	28257
809.316	28128
809.458	28223
809.6	28173
809.741	28303
809.883	28375
810.025	28519
810.166	28504
810.308	28523
810.45	28497
810.591	28481
810.733	28207
810.875	28093
811.016	28112
811.158	28067
811.299	28268
811.441	28379
811.582	28253
811.724	28147
811.865	28124
812.007	28204
812.148	28044
812.29	28265
812.431	28478
812.573	28557
812.714	28691
812.855	28740
812.997	28904
813.138	28915
813.279	28858
813.421	28710
813.562	28645
813.703	28710
813.845	28630
813.986	28253
814.127	28044
814.268	27888
814.41	28059
814.551	27922
814.692	28002
814.833	27934
814.974	27907
815.115	27945
815.256	27732
815.397	27907
815.539	27903
815.68	27797
815.821	27538
815.962	27603
816.103	27751
816.244	27545
816.385	27454
816.526	27504
816.666	27386
816.807	27237
816.948	27382
817.089	27222
817.23	27363
817.371	27245
817.512	27252
817.653	27192
817.793	27176
817.934	27294
818.075	27260
818.216	27287
818.356	27199
818.497	27214
818.638	27070
818.778	26895
818.919	27093
819.06	26918
819.2	27123
819.341	27256
819.481	27165
819.622	27233
819.762	27488
819.903	27583
820.043	27374
820.184	27241
820.324	27359
820.465	27519
820.605	27416
820.746	27275
820.886	27150
821.026	27230
821.167	27348
821.307	27443
821.447	27268
821.588	27127
821.728	26982
821.868	26762
822.008	26819
822.149	26746
822.289	26583
822.429	26389
822.569	26301
822.709	26389
822.849	26218
822.99	26199
823.13	26309
823.27	26298
823.41	26122
823.55	25887
823.69	25997
823.83	26183
823.97	26035
824.11	25925
824.25	25906
824.389	25837
824.529	25982
824.669	25807
824.809	25955
824.949	25868
825.089	25974
825.228	25860
825.368	25841
825.508	25689
825.648	25696
825.787	25712
825.927	25868
826.067	25719
826.206	25609
826.346	25708
826.485	25723
826.625	25791
826.765	25864
826.904	25769
827.044	25529
827.183	25468
827.323	25415
827.462	25479
827.601	25457
827.741	25502
827.88	25430
828.02	25392
828.159	25521
828.298	25552
828.437	25453
828.577	25495
828.716	25605
828.855	25377
828.994	25255
829.134	25232
829.273	25236
829.412	25088
829.551	25152
829.69	25183
829.829	25221
829.968	25175
830.107	25274
830.246	25175
830.385	25152
830.524	25038
830.663	24970
830.802	24916
830.941	24749
831.08	24795
831.219	24913
831.357	24920
831.496	25065
831.635	24840
831.774	24734
831.913	24661
832.051	24658
832.19	24483
832.329	24578
832.467	24445
832.606	24448
832.744	24429
832.883	24582
833.022	24311
833.16	24403
833.299	24479
833.437	24418
833.576	24517
833.714	24578
833.852	24665
833.991	24650
834.129	24673
834.267	24677
834.406	24646
834.544	24608
834.682	24521
834.821	24433
834.959	24768
835.097	24414
835.235	24570
835.373	24445
835.511	24616
835.65	24445
835.788	24315
835.926	24281
836.064	24178
836.202	24300
836.34	24414
836.478	24464
836.615	24357
836.753	24277
836.891	24361
837.029	24292
837.167	24350
837.305	24247
837.443	24228
837.58	24304
837.718	24239
837.856	24216
837.993	24167
838.131	24053
838.269	24167
838.406	24095
838.544	23923
838.681	23935
838.819	23752
838.956	23619
839.094	23695
839.231	23771
839.369	23935
839.506	24022
839.643	23973
839.781	23729
839.918	23554
840.055	23665
840.193	23585
840.33	23448
840.467	23566
840.604	23672
840.742	23965
840.879	23497
841.016	23539
841.153	23440
841.29	23786
841.427	23573
841.564	23581
841.701	23573
841.838	23589
841.975	23501
842.112	23448
842.249	23368
842.385	23368
842.522	23611
842.659	23376
842.796	23341
842.933	23368
843.069	23246
843.206	23288
843.343	23280
843.479	23376
843.616	23341
843.752	23048
843.889	23166
844.025	23235
844.162	23174
844.298	23102
844.435	23113
844.571	23064
844.708	23147
844.844	23296
844.98	23162
845.117	23288
845.253	23155
845.389	23025
845.525	23033
845.661	23029
845.798	22965
845.934	22820
846.07	22759
846.206	22862
846.342	22938
846.478	22748
846.614	22637
846.75	22546
846.886	22634
847.022	22649
847.158	22618
847.294	22569
847.429	22538
847.565	22592
847.701	22752
847.837	22261
847.972	22268
848.108	22329
848.244	22306
848.379	22226
848.515	22181
848.65	22169
848.786	22185
848.921	22169
849.057	22211
849.192	22223
849.328	22257
849.463	22128
849.598	22097
849.734	22162
849.869	21960
850.004	21888
850.14	21945
850.275	22021
850.41	21827
850.545	21800
850.68	21793
850.815	21926
850.95	21785
851.085	22093
851.22	22070
851.355	22051
851.49	21949
851.625	21857
851.76	21895
851.895	21831
852.03	21823
852.165	21835
852.299	21960
852.434	21956
852.569	21911
852.703	21819
852.838	22010
852.973	21987
853.107	22021
853.242	21865
853.376	21869
853.511	21717
853.645	21728
853.78	21903
853.914	21724
854.048	21739
854.183	21808
854.317	21812
854.451	21956
854.585	21736
854.72	21747
854.854	21781
854.988	21724
855.122	21701
855.256	21690
855.39	21751
855.524	21812
855.658	21785
855.792	21694
855.926	21797
856.06	21850
856.194	21812
856.327	21720
856.461	21762
856.595	21675
856.729	21709
856.862	21774
856.996	21709
857.13	21816
857.263	21785
857.397	21751
857.53	21686
857.664	21888
857.797	21751
857.931	21857
858.064	21823
858.197	21804
858.331	21793
858.464	21690
858.597	21629
858.731	21660
858.864	21679
858.997	21644
859.13	21865
859.263	21743
859.396	21816
859.529	21701
859.662	21652
859.795	21580
859.928	21876
860.061	21968
860.194	21949
860.327	21774
860.46	21960
860.592	21873
860.725	21895
860.858	21880
860.99	21827
861.123	21652
861.256	21682
861.388	21789
861.521	22580
861.653	21526
861.786	21500
861.918	21599
862.05	21671
862.183	21644
862.315	21610
862.447	21793
862.58	21663
862.712	21542
862.844	21473
862.976	21561
863.108	21580
863.24	21701
863.372	21420
863.504	21462
863.636	21408
863.768	21496
863.9	21595
864.032	21382
864.164	21386
864.296	21344
864.428	21637
864.559	21507
864.691	21534
864.823	21519
864.954	21477
865.086	21355
865.217	21378
865.349	21428
865.48	21302
865.612	21287
865.743	21416
865.875	21370
866.006	21211
866.137	21363
866.269	21393
866.4	21313
866.531	21241
866.662	21226
866.793	21241
866.924	21226
867.055	21264
867.186	21245
867.317	21298
867.448	21135
867.579	21176
867.71	21169
867.841	21241
867.972	21306
868.103	21256
868.233	21245
868.364	21351
868.495	21367
868.625	21473
868.756	21614
868.886	21473
869.017	21572
869.147	21583
869.278	21656
869.408	21466
869.539	21473
869.669	21576
869.799	21530
869.929	21656
870.06	21660
870.19	21838
870.32	21778
870.45	21747
870.58	22040
870.71	22101
870.84	22051
870.97	21899
871.1	21873
871.23	21987
871.36	22086
871.489	21854
871.619	21934
871.749	22154
871.879	22188
872.008	22086
872.138	22074
872.267	22086
872.397	21979
872.526	21975
872.656	21846
872.785	22010
872.915	22010
873.044	22234
873.173	22048
873.303	22143
873.432	22101
873.561	22196
873.69	22090
873.819	22097
873.948	22166
874.077	22070
874.206	22128
874.335	22048
874.464	22204
874.593	22306
874.722	22310
874.851	22306
874.979	22181
875.108	22405
875.237	22272
875.365	22219
875.494	22150
875.623	22421
875.751	22284
875.88	22314
876.008	22554
876.136	22508
876.265	22809
876.393	22885
876.521	22858
876.65	22831
876.778	22793
876.906	22664
877.034	22630
877.162	22626
877.29	22546
877.418	22717
877.546	22725
877.674	22645
877.802	22649
877.93	22725
878.058	22645
878.185	22481
878.313	22599
878.441	22607
878.568	22459
878.696	22523
878.824	22649
878.951	22622
879.079	22759
879.206	22987
879.333	22767
879.461	22790
879.588	22839
879.715	22782
879.842	22972
879.97	22786
880.097	22626
880.224	22557
880.351	22459
880.478	22440
880.605	22348
880.732	22462
880.859	22645
880.986	22550
881.112	22489
881.239	22375
881.366	22287
881.493	22226
881.619	22082
881.746	22150
881.872	22124
881.999	22101
882.125	21964
882.252	22067
882.378	22078
882.505	22215
882.631	21934
882.757	21781
882.883	21945
883.01	21720
883.136	21713
883.262	21534
883.388	21614
883.514	21698
883.64	21728
883.766	21732
883.892	21553
884.018	21553
884.143	21720
884.269	21785
884.395	21526
884.52	21454
884.646	21325
884.772	21287
884.897	21256
885.023	21378
885.148	21435
885.274	21568
885.399	21439
885.524	21382
885.65	21492
885.775	21283
885.9	21367
886.025	21542
886.15	21500
886.275	21393
886.4	21363
886.525	21485
886.65	21249
886.775	21283
886.9	21557
887.025	21572
887.149	21329
887.274	21268
887.399	21192
887.523	21127
887.648	21150
887.773	21047
887.897	21233
888.021	21176
888.146	21146
888.27	21226
888.395	21214
888.519	21218
888.643	21146
888.767	21180
888.891	21123
889.015	20994
889.139	20872
889.263	20906
889.387	21032
889.511	21207
889.635	21028
889.759	21001
889.883	21096
890.006	21001
890.13	21039
890.254	20952
890.377	20830
890.501	20750
890.624	20735
890.748	20701
890.871	20602
890.995	20480
891.118	20434
891.241	20602
891.364	20499
891.488	20659
891.611	20526
891.734	20381
891.857	20590
891.98	20560
892.103	20415
892.226	20374
892.349	20499
892.471	20237
892.594	20385
892.717	20385
892.839	20465
892.962	20473
893.085	20594
893.207	20347
893.33	20298
893.452	20358
893.575	20598
893.697	20415
893.819	20518
893.941	20545
894.064	20549
894.186	20374
894.308	20355
894.43	20492
894.552	20476
894.674	20457
894.796	20374
894.918	20362
895.04	20389
895.161	20461
895.283	20461
895.405	20305
895.526	20507
895.648	20484
895.769	20469
895.891	20366
896.012	20469
896.134	20434
896.255	20400
896.376	20431
896.498	20526
896.619	20442
896.74	20552
896.861	20511
896.982	20708
897.103	20792
897.224	20674
897.345	20663
897.466	20583
897.587	20682
897.708	20777
897.828	20674
897.949	20575
898.07	20336
898.19	20511
898.311	20701
898.431	20571
898.552	20667
898.672	20556
898.792	20727
898.913	20533
899.033	20438
899.153	20442
899.273	20400
899.393	20355
899.513	20404
899.633	20374
899.753	20499
899.873	20275
899.993	20339
900.113	20244
900.232	20301
900.352	20195
900.472	20313
900.591	20206
900.711	20187
900.83	20058
900.95	20324
901.069	20282
901.189	20054
901.308	19731
901.427	19727
901.546	19719
901.665	19795
901.784	19799
901.904	19559
902.023	19483
902.141	19316
902.26	19316
902.379	19350
902.498	19240
902.617	19240
902.735	19187
902.854	19198
902.973	19126
903.091	18894
903.21	18867
903.328	18859
903.446	18749
903.565	18753
903.683	18681
903.801	18593
903.919	18623
904.038	18627
904.156	18388
904.274	18544
904.392	18372
904.51	18483
904.627	18350
904.745	18597
904.863	18456
904.981	18254
905.098	18190
905.216	18114
905.334	18144
905.451	18152
905.569	18064
905.686	18201
905.803	18121
905.921	17817
906.038	18121
906.155	18007
906.272	17893
906.389	17885
906.506	17783
906.623	17714
906.74	17668
906.857	17497
906.974	17627
907.091	17786
907.208	17585
907.324	17649
907.441	17714
907.557	17474
907.674	17493
907.79	17326
907.907	17345
908.023	17360
908.139	17486
908.256	17414
908.372	17288
908.488	17288
908.604	17204
908.72	17117
908.836	17147
908.952	17025
909.068	17090
909.184	17067
909.3	17117
909.415	17166
909.531	17117
909.647	16900
909.762	16831
909.878	16698
909.993	16873
910.108	16744
910.224	16740
910.339	16778
910.454	16687
910.57	16607
910.685	16504
910.8	16793
910.915	16812
911.03	16641
911.145	16466
911.259	16508
911.374	16421
911.489	16371
911.604	16310
911.718	16051
911.833	16162
911.947	15911
912.062	15956
912.176	16048
912.291	16048
912.405	16101
912.519	16257
912.633	16318
912.748	16139
912.862	16101
912.976	16010
913.09	15850
913.204	15899
913.318	15930
913.431	15979
913.545	16067
913.659	16074
913.772	15880
913.886	15918
914	15869
914.113	15903
914.226	15888
914.34	15865
914.453	15648
914.566	15846
914.68	15656
914.793	15591
914.906	15351
915.019	15378
915.132	15336
915.245	15363
915.358	15393
915.47	15374
915.583	15340
915.696	15329
915.809	15393
915.921	15500
916.034	15275
916.146	15199
916.259	15321
916.371	15272
916.483	15279
916.595	15192
916.708	15108
916.82	15135
916.932	15161
917.044	14998
917.156	15089
917.268	14937
917.38	15005
917.491	14937
917.603	14979
917.715	15013
917.826	15043
917.938	15013
918.049	14769
918.161	14891
918.272	15077
918.384	15074
918.495	14937
918.606	14773
918.717	14743
918.828	14708
918.939	14701
919.05	14602
919.161	14746
919.272	14533
919.383	14594
919.494	14807
919.604	14982
919.715	14667
919.826	14632
919.936	14720
920.047	14678
920.157	14705
920.267	14842
920.378	14689
920.488	14602
920.598	14754
920.708	15013
920.818	14773
920.928	14834
921.038	15093
921.148	14994
921.258	14606
921.368	14598
921.477	14480
921.587	14423
921.697	14278
921.806	14423
921.916	14278
922.025	14103
922.134	14096
922.244	14050
922.353	14024
922.462	13997
922.571	13902
922.68	13750
922.789	13761
922.898	13776
923.007	13647
923.116	13712
923.224	13632
923.333	13655
923.442	13582
923.55	13590
923.659	13601
923.767	13651
923.876	13540
923.984	13533
924.092	13339
924.201	13441
924.309	13441
924.417	13411
924.525	13430
924.633	13377
924.741	14123
924.849	13095
924.956	13228
925.064	13133
925.172	13046
925.279	13080
925.387	13160
925.494	13168
925.602	13301
925.709	13198
925.816	13080
925.924	12973
926.031	13141
926.138	12996
926.245	12977
926.352	12993
926.459	13084
926.566	13065
926.673	12989
926.779	12882
926.886	12833
926.993	12715
927.099	12658
927.206	12570
927.312	12654
927.419	12681
927.525	12650
927.631	12635
927.737	12570
927.843	12460
927.95	12422
928.056	12464
928.162	12551
928.267	12547
928.373	12989
928.479	12532
928.585	12289
928.69	12456
928.796	12422
928.901	12327
929.007	12194
929.112	12346
929.218	12304
929.323	12308
929.428	12163
929.533	12380
929.638	12216
929.743	12095
929.848	12300
929.953	12148
930.058	12087
930.163	11851
930.267	11874
930.372	12057
930.477	11847
930.581	12045
930.685	11946
930.79	11783
930.894	11836
930.998	11707
931.103	11843
931.207	11478
931.311	11482
931.415	11395
931.519	11136
931.623	11056
