Data from test_V78500241_2349.txt Node
Date: Fri Mar 25 15:26:12 CST 2022
User: usil
Spectrometer: V785-0024
Trigger mode: 0
Integration Time (sec): 4.000000E-1
Scans to average: 1
Nonlinearity correction enabled: false
Boxcar width: 0
Storing dark spectrum: false
XAxis mode: Wavelengths
Number of Pixels in Spectrum: 1024
>>>>>Begin Spectral Data<<<<<
801.071	27405
801.214	27348
801.356	27104
801.499	27032
801.641	26921
801.783	26971
801.926	26948
802.068	26902
802.211	26769
802.353	26804
802.496	26712
802.638	26617
802.78	26530
802.923	26480
803.065	26442
803.208	26450
803.35	26545
803.492	26762
803.635	26727
803.777	26693
803.919	26648
804.061	26994
804.204	26754
804.346	26697
804.488	26636
804.63	26807
804.773	26564
804.915	26777
805.057	26762
805.199	26663
805.341	26887
805.483	26750
805.626	26815
805.768	26804
805.91	26853
806.052	26788
806.194	26708
806.336	26979
806.478	26902
806.62	26731
806.762	26921
806.904	26998
807.046	27374
807.188	27298
807.33	27249
807.472	27306
807.614	27298
807.756	27412
807.898	27093
808.04	27039
808.182	27093
808.324	27047
808.465	27226
808.607	27317
808.749	27519
808.891	27618
809.033	27580
809.174	27454
809.316	27504
809.458	27466
809.6	27481
809.741	27526
809.883	27652
810.025	27675
810.166	27656
810.308	27641
810.45	27667
810.591	27629
810.733	27359
810.875	27374
811.016	27252
811.158	27348
811.299	27397
811.441	27599
811.582	27686
811.724	27526
811.865	27462
812.007	27443
812.148	27241
812.29	27405
812.431	27564
812.573	27774
812.714	27816
812.855	27865
812.997	28112
813.138	28101
813.279	28025
813.421	28173
813.562	27835
813.703	27823
813.845	27800
813.986	27408
814.127	27275
814.268	27119
814.41	27119
814.551	27051
814.692	27108
814.833	27058
814.974	26967
815.115	27135
815.256	26929
815.397	26906
815.539	26921
815.68	26872
815.821	26864
815.962	26842
816.103	26937
816.244	26800
816.385	26655
816.526	26587
816.666	26511
816.807	26351
816.948	26469
817.089	26480
817.23	26446
817.371	26488
817.512	26336
817.653	26408
817.793	26195
817.934	26336
818.075	26412
818.216	26328
818.356	26347
818.497	26237
818.638	26145
818.778	26145
818.919	26142
819.06	26001
819.2	26183
819.341	26415
819.481	26396
819.622	26511
819.762	26640
819.903	26663
820.043	26594
820.184	26621
820.324	26484
820.465	26480
820.605	26457
820.746	26514
820.886	26294
821.026	26545
821.167	26461
821.307	26434
821.447	26358
821.588	26313
821.728	26115
821.868	25944
822.008	25803
822.149	25791
822.289	25944
822.429	25624
822.569	25628
822.709	25525
822.849	25350
822.99	25270
823.13	25225
823.27	25225
823.41	25240
823.55	25012
823.69	25168
823.83	25213
823.97	25080
824.11	24867
824.25	24783
824.389	25023
824.529	25031
824.669	24947
824.809	25061
824.949	25015
825.089	25046
825.228	25027
825.368	24711
825.508	24741
825.648	24802
825.787	24875
825.927	24753
826.067	24745
826.206	24802
826.346	24970
826.485	24863
826.625	24810
826.765	24875
826.904	24863
827.044	24608
827.183	24623
827.323	24464
827.462	24502
827.601	24631
827.741	24566
827.88	24551
828.02	24498
828.159	24311
828.298	24585
828.437	24574
828.577	24494
828.716	24654
828.855	24418
828.994	24277
829.134	24323
829.273	24171
829.412	24319
829.551	24216
829.69	24213
829.829	24304
829.968	24247
830.107	24445
830.246	24194
830.385	24136
830.524	24098
830.663	24079
830.802	23912
830.941	23866
831.08	23870
831.219	23882
831.357	24011
831.496	24026
831.635	23882
831.774	23707
831.913	23790
832.051	23657
832.19	23752
832.329	23707
832.467	23570
832.606	23535
832.744	23486
832.883	23452
833.022	23421
833.16	23497
833.299	23657
833.437	23600
833.576	23577
833.714	23726
833.852	23619
833.991	23668
834.129	23608
834.267	23649
834.406	23615
834.544	23558
834.682	23615
834.821	23589
834.959	23733
835.097	23543
835.235	23577
835.373	23684
835.511	23554
835.65	23459
835.788	23490
835.926	23303
836.064	23307
836.202	23250
836.34	23406
836.478	23474
836.615	23566
836.753	23288
836.891	23497
837.029	23452
837.167	23368
837.305	23140
837.443	23277
837.58	23174
837.718	23307
837.856	23303
837.993	23162
838.131	23334
838.269	23193
838.406	23208
838.544	23117
838.681	22965
838.819	22927
838.956	22698
839.094	22877
839.231	22786
839.369	22938
839.506	23128
839.643	22889
839.781	22767
839.918	22679
840.055	22744
840.193	22748
840.33	22713
840.467	22679
840.604	22573
840.742	22915
840.879	22500
841.016	22653
841.153	22569
841.29	22691
841.427	22740
841.564	22683
841.701	22554
841.838	22668
841.975	22565
842.112	22497
842.249	22531
842.385	22333
842.522	22596
842.659	22421
842.796	22363
842.933	22455
843.069	22261
843.206	22386
843.343	22382
843.479	22637
843.616	22405
843.752	22196
843.889	22177
844.025	22348
844.162	22143
844.298	22280
844.435	22230
844.571	22131
844.708	22219
844.844	22219
844.98	22284
845.117	22306
845.253	22150
845.389	22105
845.525	22048
845.661	22025
845.798	21956
845.934	22017
846.07	21930
846.206	22074
846.342	22040
846.478	22044
846.614	21675
846.75	21644
846.886	21686
847.022	21747
847.158	21747
847.294	21709
847.429	21789
847.565	21675
847.701	21987
847.837	21382
847.972	21428
848.108	21477
848.244	21511
848.379	21279
848.515	21321
848.65	21241
848.786	21317
848.921	21344
849.057	21424
849.192	21306
849.328	21283
849.463	21203
849.598	21169
849.734	21230
849.869	21150
850.004	20994
850.14	21077
850.275	21093
850.41	20906
850.545	20929
850.68	21089
850.815	21055
850.95	20910
851.085	21203
851.22	21161
851.355	21093
851.49	21066
851.625	21039
851.76	21017
851.895	20937
852.03	21020
852.165	20971
852.299	21161
852.434	21036
852.569	21150
852.703	20990
852.838	20998
852.973	21169
853.107	21157
853.242	21081
853.376	20868
853.511	20769
853.645	20785
853.78	20929
853.914	20861
854.048	20902
854.183	20815
854.317	20872
854.451	21093
854.585	20902
854.72	20834
854.854	20944
854.988	20849
855.122	20861
855.256	20701
855.39	20712
855.524	20781
855.658	20838
855.792	20921
855.926	20956
856.06	20956
856.194	20937
856.327	20746
856.461	20868
856.595	20769
856.729	20853
856.862	20941
856.996	20906
857.13	20883
857.263	20956
857.397	20834
857.53	20853
857.664	20918
857.797	20979
857.931	20933
858.064	20796
858.197	21009
858.331	20906
858.464	20674
858.597	20769
858.731	20830
858.864	20769
858.997	20735
859.13	20895
859.263	20811
859.396	20963
859.529	20830
859.662	20918
859.795	20849
859.928	20918
860.061	21077
860.194	21036
860.327	20838
860.46	20777
860.592	21020
860.725	21013
860.858	21001
860.99	20906
861.123	20735
861.256	20765
861.388	20769
861.521	21420
861.653	20670
861.786	20602
861.918	20735
862.05	20678
862.183	20868
862.315	20842
862.447	20807
862.58	20819
862.712	20522
862.844	20438
862.976	20640
863.108	20609
863.24	21070
863.372	20434
863.504	20514
863.636	20602
863.768	20552
863.9	20564
864.032	20423
864.164	20556
864.296	20579
864.428	20533
864.559	20659
864.691	20560
864.823	20606
864.954	20629
865.086	20602
865.217	20480
865.349	20408
865.48	20492
865.612	20507
865.743	20594
865.875	20434
866.006	20400
866.137	20450
866.269	20393
866.4	20457
866.531	20370
866.662	20404
866.793	20415
866.924	20400
867.055	20351
867.186	20381
867.317	20404
867.448	20374
867.579	20385
867.71	20408
867.841	20427
867.972	20393
868.103	20442
868.233	20366
868.364	20499
868.495	20495
868.625	20541
868.756	20807
868.886	20594
869.017	20530
869.147	20678
869.278	20735
869.408	20705
869.539	20663
869.669	20765
869.799	20686
869.929	20838
870.06	20792
870.19	21005
870.32	20956
870.45	20986
870.58	21074
870.71	21195
870.84	21230
870.97	21070
871.1	21127
871.23	21287
871.36	21332
871.489	21222
871.619	21275
871.749	21233
871.879	21344
872.008	21447
872.138	21245
872.267	21214
872.397	21165
872.526	21081
872.656	21165
872.785	21074
872.915	21230
873.044	21443
873.173	21245
873.303	21321
873.432	21275
873.561	21496
873.69	21298
873.819	21195
873.948	21226
874.077	21348
874.206	21233
874.335	21298
874.464	21287
874.593	21500
874.722	21420
874.851	21542
874.979	21504
875.108	21568
875.237	21336
875.365	21466
875.494	21405
875.623	21694
875.751	21428
875.88	21610
876.008	21698
876.136	21686
876.265	21907
876.393	22070
876.521	21975
876.65	21937
876.778	21899
876.906	21800
877.034	21743
877.162	21888
877.29	21831
877.418	21861
877.546	21831
877.674	21892
877.802	21899
877.93	21945
878.058	21823
878.185	21701
878.313	21888
878.441	21869
878.568	21816
878.696	21743
878.824	21987
878.951	21945
879.079	22188
879.206	22124
879.333	21998
879.461	21880
879.588	21876
879.715	21956
879.842	22169
879.97	21941
880.097	21743
880.224	21701
880.351	21781
880.478	21747
880.605	21694
880.732	21698
880.859	21838
880.986	21694
881.112	21789
881.239	21572
881.366	21428
881.493	21321
881.619	21382
881.746	21325
881.872	21367
881.999	21192
882.125	21043
882.252	21340
882.378	21336
882.505	21424
882.631	21165
882.757	21020
882.883	21096
883.01	21058
883.136	20971
883.262	20880
883.388	20823
883.514	20868
883.64	21100
883.766	20857
883.892	20796
884.018	20823
884.143	20872
884.269	20982
884.395	20785
884.52	20644
884.646	20712
884.772	20587
884.897	20530
885.023	20625
885.148	20708
885.274	20823
885.399	20720
885.524	20613
885.65	20727
885.775	20594
885.9	20583
886.025	20682
886.15	20682
886.275	20537
886.4	20552
886.525	20678
886.65	20575
886.775	20629
886.9	20762
887.025	20701
887.149	20556
887.274	20454
887.399	20328
887.523	20568
887.648	20454
887.773	20377
887.897	20511
888.021	20488
888.146	20362
888.27	20621
888.395	20549
888.519	20541
888.643	20488
888.767	20347
888.891	20233
889.015	20111
889.139	20259
889.263	20214
889.387	20332
889.511	20442
889.635	20286
889.759	20233
889.883	20084
890.006	20161
890.13	20240
890.254	20259
890.377	20164
890.501	19951
890.624	19894
890.748	20050
890.871	19928
890.995	19845
891.118	19913
891.241	19845
891.364	19868
891.488	19909
891.611	19742
891.734	19795
891.857	19830
891.98	19734
892.103	19830
892.226	19811
892.349	19651
892.471	19499
892.594	19799
892.717	19723
892.839	19651
892.962	19769
893.085	19750
893.207	19719
893.33	19594
893.452	19662
893.575	19700
893.697	19643
893.819	19864
893.941	19871
894.064	19875
894.186	19693
894.308	19616
894.43	19765
894.552	19849
894.674	19708
894.796	19590
894.918	19769
895.04	19662
895.161	19841
895.283	19689
895.405	19670
895.526	19624
895.648	19681
895.769	19765
895.891	19704
896.012	19738
896.134	19803
896.255	19772
896.376	19628
896.498	19685
896.619	19830
896.74	19635
896.861	19807
896.982	19993
897.103	20142
897.224	20050
897.345	19947
897.466	19837
897.587	19890
897.708	20008
897.828	19978
897.949	19868
898.07	19837
898.19	19875
898.311	20020
898.431	19799
898.552	19871
898.672	20012
898.792	20016
898.913	20024
899.033	19746
899.153	19715
899.273	19651
899.393	19742
899.513	19590
899.633	19666
899.753	19662
899.873	19651
899.993	19742
900.113	19632
900.232	19556
900.352	19594
900.472	19544
900.591	19537
900.711	19457
900.83	19483
900.95	19533
901.069	19567
901.189	19373
901.308	19126
901.427	18985
901.546	19110
901.665	19126
901.784	19057
901.904	18897
902.023	18719
902.141	18639
902.26	18559
902.379	18616
902.498	18597
902.617	18570
902.735	18616
902.854	18639
902.973	18563
903.091	18304
903.21	18171
903.328	18350
903.446	18201
903.565	18060
903.683	18152
903.801	17984
903.919	18060
904.038	17980
904.156	17851
904.274	17996
904.392	17824
904.51	17802
904.627	17870
904.745	17961
904.863	17901
904.981	17703
905.098	17486
905.216	17493
905.334	17592
905.451	17554
905.569	17448
905.686	17551
905.803	17524
905.921	17303
906.038	17356
906.155	17379
906.272	17162
906.389	17204
906.506	17102
906.623	17132
906.74	17067
906.857	16991
906.974	17025
907.091	17052
907.208	17098
907.324	16938
907.441	16911
907.557	16698
907.674	16653
907.79	16672
907.907	16786
908.023	16748
908.139	16763
908.256	16615
908.372	16516
908.488	16691
908.604	16531
908.72	16421
908.836	16440
908.952	16497
909.068	16508
909.184	16588
909.3	16489
909.415	16611
909.531	16580
909.647	16261
909.762	16265
909.878	16150
909.993	16242
910.108	16185
910.224	16154
910.339	16219
910.454	16124
910.57	16006
910.685	15873
910.8	16223
910.915	16276
911.03	16025
911.145	15861
911.259	15739
911.374	15793
911.489	15652
911.604	15656
911.718	15561
911.833	15519
911.947	15458
912.062	15424
912.176	15545
912.291	15557
912.405	15515
912.519	15644
912.633	15743
912.748	15515
912.862	15485
912.976	15386
913.09	15272
913.204	15306
913.318	15397
913.431	15507
913.545	15321
913.659	15443
913.772	15367
913.886	15195
914	15192
914.113	15272
914.226	15272
914.34	15272
914.453	15077
914.566	15165
914.68	15066
914.793	14895
914.906	14785
915.019	14834
915.132	14682
915.245	14697
915.358	14834
915.47	14788
915.583	14765
915.696	14815
915.809	14918
915.921	14819
916.034	14811
916.146	14602
916.259	14765
916.371	14796
916.483	14689
916.595	14663
916.708	14602
916.82	14621
916.932	14602
917.044	14579
917.156	14488
917.268	14484
917.38	14434
917.491	14484
917.603	14442
917.715	14488
917.826	14476
917.938	14305
918.049	14237
918.161	14320
918.272	14526
918.384	14476
918.495	14351
918.606	14176
918.717	14237
918.828	14252
918.939	14290
919.05	14176
919.161	14271
919.272	14008
919.383	14077
919.494	14134
919.604	14473
919.715	14176
919.826	14145
919.936	14145
920.047	14294
920.157	14233
920.267	14324
920.378	14096
920.488	14191
920.598	14393
920.708	14473
920.818	14343
920.928	14309
921.038	14434
921.148	14336
921.258	14069
921.368	13997
921.477	13906
921.587	13947
921.697	13738
921.806	13902
921.916	13814
922.025	13674
922.134	13518
922.244	13487
922.353	13696
922.462	13441
922.571	13388
922.68	13259
922.789	13145
922.898	13358
923.007	13190
923.116	13304
923.224	13206
923.333	13118
923.442	13160
923.55	13061
923.659	13114
923.767	13072
923.876	13069
923.984	13031
924.092	12958
924.201	13080
924.309	12928
924.417	12962
924.525	12943
924.633	12821
924.741	13814
924.849	12681
924.956	12795
925.064	12665
925.172	12623
925.279	12631
925.387	12711
925.494	12692
925.602	12825
925.709	12673
925.816	12589
925.924	12597
926.031	12715
926.138	12627
926.245	12745
926.352	12483
926.459	12662
926.566	12681
926.673	12582
926.779	12372
926.886	12388
926.993	12247
927.099	12247
927.206	12125
927.312	12121
927.419	12296
927.525	12197
927.631	12315
927.737	12087
927.843	12053
927.95	11980
928.056	12095
928.162	12117
928.267	12110
928.373	12601
928.479	12197
928.585	11813
928.69	12079
928.796	12064
928.901	11954
929.007	11817
929.112	11897
929.218	11950
929.323	11847
929.428	11771
929.533	11832
929.638	11798
929.743	11756
929.848	11805
929.953	11733
930.058	11619
930.163	11505
930.267	11512
930.372	11592
930.477	11497
930.581	11741
930.685	11505
930.79	11372
930.894	11330
930.998	11311
931.103	11535
931.207	11140
931.311	11075
931.415	10991
931.519	10744
931.623	10778
