Data from test_V78500241_3502.txt Node
Date: Fri Mar 25 15:34:14 CST 2022
User: usil
Spectrometer: V785-0024
Trigger mode: 0
Integration Time (sec): 4.000000E-1
Scans to average: 1
Nonlinearity correction enabled: false
Boxcar width: 0
Storing dark spectrum: false
XAxis mode: Wavelengths
Number of Pixels in Spectrum: 1024
>>>>>Begin Spectral Data<<<<<
801.071	27199
801.214	27161
801.356	27020
801.499	26982
801.641	26819
801.783	26796
801.926	26998
802.068	26883
802.211	26811
802.353	26777
802.496	26522
802.638	26495
802.78	26438
802.923	26381
803.065	26431
803.208	26400
803.35	26480
803.492	26693
803.635	26689
803.777	26579
803.919	26636
804.061	26998
804.204	26705
804.346	26762
804.488	26621
804.63	26667
804.773	26473
804.915	26678
805.057	26819
805.199	26693
805.341	26617
805.483	26823
805.626	26667
805.768	26663
805.91	26716
806.052	26769
806.194	26644
806.336	26982
806.478	26629
806.62	26716
806.762	26842
806.904	26948
807.046	27199
807.188	27066
807.33	27367
807.472	27112
807.614	27104
807.756	27146
807.898	26823
808.04	26853
808.182	26975
808.324	27020
808.465	27112
808.607	27230
808.749	27268
808.891	27332
809.033	27492
809.174	27405
809.316	27252
809.458	27370
809.6	27252
809.741	27462
809.883	27485
810.025	27591
810.166	27587
810.308	27492
810.45	27610
810.591	27477
810.733	27378
810.875	27447
811.016	27142
811.158	27332
811.299	27564
811.441	27660
811.582	27393
811.724	27393
811.865	27127
812.007	27386
812.148	27260
812.29	27416
812.431	27545
812.573	27648
812.714	27835
812.855	27812
812.997	27861
813.138	27968
813.279	27842
813.421	27812
813.562	27751
813.703	27652
813.845	27644
813.986	27260
814.127	27142
814.268	26956
814.41	27020
814.551	27017
814.692	27055
814.833	26845
814.974	27013
815.115	26902
815.256	26853
815.397	26967
815.539	26914
815.68	26613
815.821	26754
815.962	26864
816.103	26796
816.244	26587
816.385	26465
816.526	26545
816.666	26351
816.807	26176
816.948	26324
817.089	26332
817.23	26271
817.371	26313
817.512	26202
817.653	26286
817.793	26157
817.934	26164
818.075	26320
818.216	26202
818.356	26206
818.497	26100
818.638	25906
818.778	25974
818.919	25902
819.06	26168
819.2	26290
819.341	26343
819.481	26229
819.622	26366
819.762	26686
819.903	26450
820.043	26450
820.184	26332
820.324	26488
820.465	26347
820.605	26317
820.746	26343
820.886	26267
821.026	26263
821.167	26320
821.307	26225
821.447	26294
821.588	26199
821.728	26069
821.868	25921
822.008	25738
822.149	25791
822.289	25662
822.429	25510
822.569	25441
822.709	25343
822.849	25213
822.99	25312
823.13	25278
823.27	25263
823.41	25015
823.55	24852
823.69	25031
823.83	25046
823.97	24992
824.11	24848
824.25	24817
824.389	24928
824.529	24913
824.669	24928
824.809	24928
824.949	24905
825.089	24966
825.228	24905
825.368	24745
825.508	24616
825.648	24745
825.787	24837
825.927	24886
826.067	24814
826.206	24730
826.346	24779
826.485	24894
826.625	24711
826.765	24787
826.904	24802
827.044	24509
827.183	24433
827.323	24441
827.462	24566
827.601	24452
827.741	24471
827.88	24646
828.02	24296
828.159	24486
828.298	24555
828.437	24422
828.577	24369
828.716	24528
828.855	24372
828.994	24076
829.134	24235
829.273	24228
829.412	24133
829.551	24159
829.69	24243
829.829	24155
829.968	24334
830.107	24148
830.246	24194
830.385	24060
830.524	24098
830.663	23927
830.802	23961
830.941	23859
831.08	23859
831.219	23836
831.357	23817
831.496	24015
831.635	23817
831.774	23764
831.913	23615
832.051	23585
832.19	23512
832.329	23592
832.467	23585
832.606	23387
832.744	23486
832.883	23501
833.022	23459
833.16	23497
833.299	23512
833.437	23444
833.576	23486
833.714	23448
833.852	23684
833.991	23482
834.129	23653
834.267	23653
834.406	23547
834.544	23592
834.682	23535
834.821	23440
834.959	23687
835.097	23497
835.235	23589
835.373	23596
835.511	23444
835.65	23364
835.788	23417
835.926	23124
836.064	23235
836.202	23193
836.34	23387
836.478	23585
836.615	23341
836.753	23452
836.891	23630
837.029	23273
837.167	23376
837.305	23303
837.443	23155
837.58	23025
837.718	23307
837.856	23204
837.993	23132
838.131	23242
838.269	23128
838.406	23216
838.544	23086
838.681	22862
838.819	22801
838.956	22862
839.094	22675
839.231	22812
839.369	22866
839.506	23033
839.643	23014
839.781	22653
839.918	22580
840.055	22702
840.193	22634
840.33	22637
840.467	22645
840.604	22748
840.742	22839
840.879	22485
841.016	22535
841.153	22611
841.29	22771
841.427	22694
841.564	22774
841.701	22611
841.838	22592
841.975	22721
842.112	22687
842.249	22443
842.385	22409
842.522	22710
842.659	22394
842.796	22443
842.933	22451
843.069	22382
843.206	22276
843.343	22470
843.479	22386
843.616	22253
843.752	22215
843.889	22204
844.025	22291
844.162	22169
844.298	22192
844.435	22135
844.571	22025
844.708	22306
844.844	22341
844.98	22299
845.117	22280
845.253	22093
845.389	21903
845.525	22135
845.661	21979
845.798	21987
845.934	21979
846.07	21857
846.206	21960
846.342	22063
846.478	21911
846.614	21694
846.75	21572
846.886	21701
847.022	21762
847.158	21759
847.294	21618
847.429	21686
847.565	21618
847.701	21972
847.837	21405
847.972	21348
848.108	21443
848.244	21500
848.379	21275
848.515	21370
848.65	21218
848.786	21344
848.921	21336
849.057	21447
849.192	21340
849.328	21283
849.463	21233
849.598	21279
849.734	21123
849.869	21169
850.004	21062
850.14	20986
850.275	20994
850.41	21001
850.545	20948
850.68	20990
850.815	21051
850.95	20979
851.085	21252
851.22	21127
851.355	21020
851.49	21047
851.625	20906
851.76	20914
851.895	21013
852.03	20838
852.165	20975
852.299	21005
852.434	21051
852.569	21066
852.703	20982
852.838	21081
852.973	21256
853.107	21055
853.242	20960
853.376	20861
853.511	20693
853.645	20724
853.78	20975
853.914	20902
854.048	20800
854.183	20857
854.317	20845
854.451	21089
854.585	20887
854.72	20872
854.854	21001
854.988	20792
855.122	20979
855.256	20686
855.39	20857
855.524	20891
855.658	20887
855.792	20937
855.926	20895
856.06	20842
856.194	20804
856.327	20868
856.461	20804
856.595	20785
856.729	20746
856.862	20952
856.996	20861
857.13	20845
857.263	20861
857.397	20918
857.53	20895
857.664	20826
857.797	20925
857.931	20937
858.064	20921
858.197	20990
858.331	20910
858.464	20727
858.597	20746
858.731	20929
858.864	20826
858.997	20762
859.13	20868
859.263	20758
859.396	20883
859.529	20792
859.662	20807
859.795	20811
859.928	20883
860.061	20975
860.194	21017
860.327	20918
860.46	20762
860.592	20914
860.725	21066
860.858	20941
860.99	20883
861.123	20735
861.256	20785
861.388	20880
861.521	21477
861.653	20823
861.786	20678
861.918	20678
862.05	20845
862.183	20754
862.315	20891
862.447	20857
862.58	20769
862.712	20640
862.844	20568
862.976	20708
863.108	20651
863.24	21093
863.372	20473
863.504	20583
863.636	20648
863.768	20598
863.9	20625
864.032	20617
864.164	20499
864.296	20720
864.428	20693
864.559	20571
864.691	20564
864.823	20526
864.954	20480
865.086	20594
865.217	20499
865.349	20434
865.48	20480
865.612	20366
865.743	20583
865.875	20495
866.006	20377
866.137	20457
866.269	20476
866.4	20537
866.531	20473
866.662	20298
866.793	20408
866.924	20469
867.055	20355
867.186	20488
867.317	20446
867.448	20298
867.579	20442
867.71	20286
867.841	20294
867.972	20434
868.103	20336
868.233	20495
868.364	20385
868.495	20427
868.625	20522
868.756	20785
868.886	20587
869.017	20670
869.147	20800
869.278	20762
869.408	20712
869.539	20602
869.669	20720
869.799	20689
869.929	20826
870.06	20701
870.19	20967
870.32	20864
870.45	21032
870.58	21043
870.71	21192
870.84	21165
870.97	20971
871.1	21096
871.23	21218
871.36	21184
871.489	21100
871.619	21173
871.749	21192
871.879	21336
872.008	21283
872.138	21249
872.267	21176
872.397	21070
872.526	21055
872.656	20986
872.785	21112
872.915	21188
873.044	21272
873.173	21302
873.303	21351
873.432	21462
873.561	21291
873.69	21252
873.819	21291
873.948	21302
874.077	21393
874.206	21180
874.335	21268
874.464	21454
874.593	21625
874.722	21526
874.851	21466
874.979	21523
875.108	21549
875.237	21553
875.365	21488
875.494	21545
875.623	21686
875.751	21526
875.88	21477
876.008	21648
876.136	21663
876.265	21968
876.393	21960
876.521	22048
876.65	21987
876.778	21945
876.906	21781
877.034	21850
877.162	21873
877.29	21838
877.418	21888
877.546	21888
877.674	21888
877.802	21724
877.93	21759
878.058	21884
878.185	21732
878.313	21679
878.441	21991
878.568	21709
878.696	21808
878.824	21956
878.951	21983
879.079	22070
879.206	22097
879.333	22082
879.461	21854
879.588	21975
879.715	22105
879.842	22029
879.97	21964
880.097	21736
880.224	21690
880.351	21694
880.478	21713
880.605	21614
880.732	21739
880.859	21949
880.986	21660
881.112	21720
881.239	21705
881.366	21424
881.493	21268
881.619	21230
881.746	21310
881.872	21287
881.999	21329
882.125	21214
882.252	21348
882.378	21203
882.505	21382
882.631	21135
882.757	20971
882.883	21070
883.01	21032
883.136	21036
883.262	20864
883.388	20853
883.514	21005
883.64	20944
883.766	20826
883.892	20807
884.018	20788
884.143	20960
884.269	21017
884.395	20625
884.52	20636
884.646	20731
884.772	20579
884.897	20587
885.023	20731
885.148	20678
885.274	20765
885.399	20708
885.524	20663
885.65	20644
885.775	20746
885.9	20609
886.025	20678
886.15	20663
886.275	20587
886.4	20583
886.525	20590
886.65	20393
886.775	20598
886.9	20701
887.025	20861
887.149	20613
887.274	20507
887.399	20351
887.523	20454
887.648	20355
887.773	20366
887.897	20393
888.021	20374
888.146	20336
888.27	20450
888.395	20556
888.519	20355
888.643	20431
888.767	20404
888.891	20202
889.015	20229
889.139	20347
889.263	20218
889.387	20271
889.511	20385
889.635	20377
889.759	20233
889.883	20206
890.006	20202
890.13	20275
890.254	20130
890.377	20092
890.501	20024
890.624	19852
890.748	19955
890.871	19871
890.995	19731
891.118	19708
891.241	19727
891.364	19750
891.488	19780
891.611	19753
891.734	19894
891.857	19902
891.98	19761
892.103	19807
892.226	19830
892.349	19776
892.471	19559
892.594	19590
892.717	19742
892.839	19616
892.962	19689
893.085	19670
893.207	19700
893.33	19552
893.452	19655
893.575	19685
893.697	19620
893.819	19807
893.941	20020
894.064	19799
894.186	19624
894.308	19658
894.43	19784
894.552	19921
894.674	19780
894.796	19556
894.918	19563
895.04	19674
895.161	19852
895.283	19761
895.405	19723
895.526	19689
895.648	19677
895.769	19700
895.891	19708
896.012	19795
896.134	19696
896.255	19613
896.376	19655
896.498	19643
896.619	19731
896.74	19719
896.861	19757
896.982	20111
897.103	20058
897.224	20027
897.345	19909
897.466	19928
897.587	19928
897.708	20027
897.828	20081
897.949	19883
898.07	19784
898.19	19856
898.311	20130
898.431	19959
898.552	20043
898.672	20050
898.792	19925
898.913	20027
899.033	19887
899.153	19700
899.273	19635
899.393	19613
899.513	19662
899.633	19776
899.753	19639
899.873	19666
899.993	19746
900.113	19556
900.232	19689
900.352	19544
900.472	19567
900.591	19514
900.711	19415
900.83	19422
900.95	19563
901.069	19556
901.189	19316
901.308	19076
901.427	19118
901.546	19099
901.665	18973
901.784	18977
901.904	19015
902.023	18882
902.141	18684
902.26	18479
902.379	18669
902.498	18566
902.617	18475
902.735	18506
902.854	18460
902.973	18494
903.091	18125
903.21	18201
903.328	18262
903.446	18258
903.565	18133
903.683	18030
903.801	17889
903.919	17992
904.038	17965
904.156	17878
904.274	17813
904.392	17779
904.51	17760
904.627	17790
904.745	17912
904.863	17904
904.981	17589
905.098	17539
905.216	17467
905.334	17630
905.451	17554
905.569	17539
905.686	17467
905.803	17535
905.921	17417
906.038	17349
906.155	17280
906.272	17113
906.389	17242
906.506	17079
906.623	17041
906.74	17067
906.857	16896
906.974	16877
907.091	16995
907.208	17060
907.324	17045
907.441	16980
907.557	16908
907.674	16759
907.79	16611
907.907	16672
908.023	16820
908.139	16778
908.256	16679
908.372	16626
908.488	16672
908.604	16489
908.72	16500
908.836	16489
908.952	16413
909.068	16478
909.184	16516
909.3	16443
909.415	16538
909.531	16379
909.647	16299
909.762	16246
909.878	16173
909.993	16124
910.108	16086
910.224	16120
910.339	16029
910.454	16036
910.57	15968
910.685	15918
910.8	16177
910.915	16207
911.03	16032
911.145	15835
911.259	15762
911.374	15854
911.489	15637
911.604	15644
911.718	15538
911.833	15637
911.947	15488
912.062	15405
912.176	15431
912.291	15424
912.405	15618
912.519	15690
912.633	15751
912.748	15606
912.862	15549
912.976	15416
913.09	15245
913.204	15355
913.318	15348
913.431	15420
913.545	15420
913.659	15458
913.772	15233
913.886	15161
914	15127
914.113	15169
914.226	15195
914.34	15146
914.453	15074
914.566	15302
914.68	14975
914.793	14975
914.906	14849
915.019	14727
915.132	14762
915.245	14876
915.358	14762
915.47	14765
915.583	14712
915.696	14815
915.809	14861
915.921	14902
916.034	14644
916.146	14724
916.259	14708
916.371	14750
916.483	14629
916.595	14621
916.708	14575
916.82	14598
916.932	14492
917.044	14564
917.156	14526
917.268	14423
917.38	14492
917.491	14419
917.603	14423
917.715	14412
917.826	14530
917.938	14374
918.049	14305
918.161	14450
918.272	14526
918.384	14492
918.495	14328
918.606	14229
918.717	14130
918.828	14225
918.939	14187
919.05	14043
919.161	14244
919.272	14012
919.383	14065
919.494	14195
919.604	14423
919.715	14240
919.826	14130
919.936	14149
920.047	14214
920.157	14191
920.267	14469
920.378	14252
920.488	14157
920.598	14347
920.708	14473
920.818	14415
920.928	14362
921.038	14438
921.148	14351
921.258	14103
921.368	14035
921.477	13932
921.587	13944
921.697	13742
921.806	14001
921.916	13776
922.025	13563
922.134	13628
922.244	13578
922.353	13658
922.462	13487
922.571	13381
922.68	13244
922.789	13244
922.898	13266
923.007	13156
923.116	13274
923.224	13266
923.333	13236
923.442	13114
923.55	12993
923.659	13107
923.767	13194
923.876	12996
923.984	13065
924.092	12954
924.201	13046
924.309	12962
924.417	13004
924.525	12920
924.633	12951
924.741	13639
924.849	12760
924.956	12890
925.064	12760
925.172	12635
925.279	12783
925.387	12795
925.494	12722
925.602	12852
925.709	12703
925.816	12639
925.924	12681
926.031	12753
926.138	12684
926.245	12620
926.352	12479
926.459	12627
926.566	12844
926.673	12631
926.779	12445
926.886	12353
926.993	12327
927.099	12315
927.206	12216
927.312	12224
927.419	12369
927.525	12334
927.631	12254
927.737	12201
927.843	12102
927.95	11958
928.056	12076
928.162	12034
928.267	12167
928.373	12719
928.479	12182
928.585	11980
928.69	11984
928.796	12045
928.901	11992
929.007	11824
929.112	12011
929.218	11889
929.323	11832
929.428	11748
929.533	11893
929.638	11695
929.743	11718
929.848	11866
929.953	11798
930.058	11714
930.163	11524
930.267	11493
930.372	11680
930.477	11497
930.581	11767
930.685	11627
930.79	11452
930.894	11383
930.998	11356
931.103	11509
931.207	11105
931.311	11189
931.415	11083
931.519	10801
931.623	10801
