Data from test_V78500241_3255.txt Node
Date: Fri Mar 25 15:32:31 CST 2022
User: usil
Spectrometer: V785-0024
Trigger mode: 0
Integration Time (sec): 4.000000E-1
Scans to average: 1
Nonlinearity correction enabled: false
Boxcar width: 0
Storing dark spectrum: false
XAxis mode: Wavelengths
Number of Pixels in Spectrum: 1024
>>>>>Begin Spectral Data<<<<<
801.071	27279
801.214	27317
801.356	27074
801.499	27005
801.641	26849
801.783	26800
801.926	26925
802.068	26777
802.211	26773
802.353	26701
802.496	26484
802.638	26511
802.78	26511
802.923	26339
803.065	26336
803.208	26366
803.35	26522
803.492	26541
803.635	26617
803.777	26480
803.919	26594
804.061	26918
804.204	26617
804.346	26640
804.488	26606
804.63	26579
804.773	26499
804.915	26651
805.057	26682
805.199	26583
805.341	26686
805.483	26758
805.626	26796
805.768	26579
805.91	26731
806.052	26697
806.194	26606
806.336	26849
806.478	26727
806.62	26697
806.762	26830
806.904	26906
807.046	27230
807.188	27165
807.33	27157
807.472	27123
807.614	27096
807.756	27233
807.898	26937
808.04	26944
808.182	26868
808.324	26906
808.465	26899
808.607	27188
808.749	27214
808.891	27466
809.033	27610
809.174	27416
809.316	27386
809.458	27237
809.6	27260
809.741	27351
809.883	27439
810.025	27549
810.166	27690
810.308	27488
810.45	27530
810.591	27500
810.733	27389
810.875	27275
811.016	27256
811.158	27233
811.299	27329
811.441	27458
811.582	27401
811.724	27313
811.865	27268
812.007	27203
812.148	27291
812.29	27302
812.431	27526
812.573	27633
812.714	27686
812.855	27850
812.997	27842
813.138	28086
813.279	27880
813.421	27781
813.562	27660
813.703	27648
813.845	27454
813.986	27291
814.127	27127
814.268	27055
814.41	27001
814.551	27017
814.692	26975
814.833	26830
814.974	26750
815.115	26918
815.256	26754
815.397	26830
815.539	26849
815.68	26834
815.821	26617
815.962	26708
816.103	26686
816.244	26720
816.385	26526
816.526	26492
816.666	26336
816.807	26088
816.948	26210
817.089	26347
817.23	26298
817.371	26153
817.512	26244
817.653	26305
817.793	26115
817.934	26339
818.075	26294
818.216	26172
818.356	26343
818.497	26103
818.638	26103
818.778	25902
818.919	25974
819.06	26153
819.2	26176
819.341	26240
819.481	26111
819.622	26377
819.762	26511
819.903	26530
820.043	26480
820.184	26298
820.324	26199
820.465	26355
820.605	26309
820.746	26282
820.886	26180
821.026	26229
821.167	26259
821.307	26271
821.447	26225
821.588	26134
821.728	25989
821.868	25928
822.008	25761
822.149	25712
822.289	25616
822.429	25388
822.569	25415
822.709	25285
822.849	25270
822.99	25244
823.13	25202
823.27	25263
823.41	25034
823.55	24795
823.69	24905
823.83	25027
823.97	24977
824.11	24798
824.25	24837
824.389	24890
824.529	24837
824.669	24848
824.809	24970
824.949	25046
825.089	24840
825.228	24867
825.368	24703
825.508	24661
825.648	24635
825.787	24734
825.927	24719
826.067	24627
826.206	24673
826.346	24673
826.485	24806
826.625	24730
826.765	24837
826.904	24734
827.044	24376
827.183	24547
827.323	24437
827.462	24513
827.601	24441
827.741	24509
827.88	24445
828.02	24277
828.159	24380
828.298	24418
828.437	24429
828.577	24289
828.716	24445
828.855	24289
828.994	24076
829.134	24201
829.273	24144
829.412	24106
829.551	23954
829.69	24060
829.829	24167
829.968	24068
830.107	24209
830.246	24209
830.385	24022
830.524	23961
830.663	23977
830.802	23863
830.941	23775
831.08	23695
831.219	23821
831.357	23741
831.496	23923
831.635	23779
831.774	23627
831.913	23634
832.051	23589
832.19	23425
832.329	23433
832.467	23410
832.606	23280
832.744	23406
832.883	23471
833.022	23387
833.16	23322
833.299	23402
833.437	23463
833.576	23463
833.714	23486
833.852	23554
833.991	23531
834.129	23623
834.267	23570
834.406	23570
834.544	23551
834.682	23570
834.821	23448
834.959	23547
835.097	23425
835.235	23448
835.373	23459
835.511	23596
835.65	23292
835.788	23364
835.926	23208
836.064	23098
836.202	23185
836.34	23433
836.478	23490
836.615	23318
836.753	23417
836.891	23417
837.029	23364
837.167	23170
837.305	23284
837.443	23296
837.58	23121
837.718	23334
837.856	23174
837.993	23216
838.131	23193
838.269	23056
838.406	23250
838.544	23014
838.681	22881
838.819	22850
838.956	22580
839.094	22717
839.231	22816
839.369	22824
839.506	22949
839.643	23067
839.781	22599
839.918	22588
840.055	22664
840.193	22664
840.33	22508
840.467	22607
840.604	22618
840.742	22885
840.879	22478
841.016	22565
841.153	22485
841.29	22599
841.427	22504
841.564	22637
841.701	22478
841.838	22519
841.975	22421
842.112	22512
842.249	22440
842.385	22386
842.522	22649
842.659	22523
842.796	22394
842.933	22390
843.069	22265
843.206	22223
843.343	22436
843.479	22329
843.616	22409
843.752	22150
843.889	22181
844.025	22268
844.162	22112
844.298	22124
844.435	22074
844.571	22150
844.708	22177
844.844	22318
844.98	22154
845.117	22234
845.253	22211
845.389	22025
845.525	22013
845.661	22070
845.798	21846
845.934	21945
846.07	21926
846.206	21869
846.342	22025
846.478	21797
846.614	21694
846.75	21576
846.886	21622
847.022	21622
847.158	21564
847.294	21629
847.429	21686
847.565	21485
847.701	21747
847.837	21374
847.972	21351
848.108	21435
848.244	21367
848.379	21359
848.515	21176
848.65	21203
848.786	21176
848.921	21131
849.057	21283
849.192	21279
849.328	21233
849.463	21214
849.598	21245
849.734	21096
849.869	21070
850.004	20963
850.14	20971
850.275	21036
850.41	20845
850.545	20811
850.68	20872
850.815	20990
850.95	20910
851.085	21077
851.22	21127
851.355	20948
851.49	20956
851.625	20963
851.76	21055
851.895	20788
852.03	20830
852.165	20944
852.299	21013
852.434	21123
852.569	20979
852.703	21028
852.838	21013
852.973	21070
853.107	21055
853.242	20918
853.376	20777
853.511	20701
853.645	20765
853.78	20952
853.914	20804
854.048	20762
854.183	20746
854.317	20819
854.451	20998
854.585	20735
854.72	20724
854.854	20891
854.988	20743
855.122	20708
855.256	20735
855.39	20785
855.524	20864
855.658	20891
855.792	20868
855.926	20868
856.06	20781
856.194	20861
856.327	20739
856.461	20849
856.595	20701
856.729	20773
856.862	20705
856.996	20883
857.13	20800
857.263	20849
857.397	20899
857.53	20765
857.664	20842
857.797	20834
857.931	20933
858.064	20845
858.197	20960
858.331	20804
858.464	20777
858.597	20716
858.731	20750
858.864	20796
858.997	20773
859.13	20785
859.263	20792
859.396	20857
859.529	20750
859.662	20716
859.795	20735
859.928	20918
860.061	21001
860.194	21024
860.327	20796
860.46	20834
860.592	20994
860.725	20891
860.858	20960
860.99	20792
861.123	20804
861.256	20670
861.388	20758
861.521	21386
861.653	20621
861.786	20476
861.918	20579
862.05	20686
862.183	20823
862.315	20716
862.447	20773
862.58	20697
862.712	20560
862.844	20434
862.976	20541
863.108	20629
863.24	21024
863.372	20450
863.504	20450
863.636	20499
863.768	20526
863.9	20560
864.032	20385
864.164	20473
864.296	20484
864.428	20632
864.559	20594
864.691	20644
864.823	20518
864.954	20427
865.086	20526
865.217	20488
865.349	20305
865.48	20438
865.612	20457
865.743	20579
865.875	20499
866.006	20317
866.137	20347
866.269	20336
866.4	20355
866.531	20434
866.662	20332
866.793	20377
866.924	20427
867.055	20434
867.186	20244
867.317	20339
867.448	20313
867.579	20309
867.71	20339
867.841	20332
867.972	20339
868.103	20450
868.233	20370
868.364	20423
868.495	20408
868.625	20545
868.756	20697
868.886	20564
869.017	20598
869.147	20750
869.278	20716
869.408	20526
869.539	20613
869.669	20629
869.799	20693
869.929	20724
870.06	20804
870.19	20853
870.32	20929
870.45	20979
870.58	20902
870.71	21047
870.84	21203
870.97	20967
871.1	21020
871.23	21310
871.36	21180
871.489	21241
871.619	21218
871.749	21195
871.879	21233
872.008	21283
872.138	21218
872.267	21173
872.397	21081
872.526	21058
872.656	21116
872.785	20975
872.915	21176
873.044	21294
873.173	21329
873.303	21237
873.432	21249
873.561	21336
873.69	21135
873.819	21161
873.948	21256
874.077	21256
874.206	21199
874.335	21230
874.464	21355
874.593	21542
874.722	21340
874.851	21473
874.979	21542
875.108	21511
875.237	21458
875.365	21363
875.494	21443
875.623	21485
875.751	21420
875.88	21462
876.008	21622
876.136	21633
876.265	21994
876.393	21907
876.521	21888
876.65	22044
876.778	21880
876.906	21800
877.034	21774
877.162	21827
877.29	21846
877.418	21800
877.546	21747
877.674	21850
877.802	21793
877.93	21819
878.058	21694
878.185	21641
878.313	21819
878.441	21884
878.568	21618
878.696	21819
878.824	21884
878.951	21728
879.079	21930
879.206	22055
879.333	21819
879.461	21816
879.588	21873
879.715	22059
879.842	22162
879.97	21895
880.097	21728
880.224	21648
880.351	21774
880.478	21606
880.605	21599
880.732	21576
880.859	21850
880.986	21618
881.112	21633
881.239	21477
881.366	21405
881.493	21298
881.619	21268
881.746	21325
881.872	21135
881.999	21294
882.125	21150
882.252	21249
882.378	21070
882.505	21469
882.631	21138
882.757	20906
882.883	21051
883.01	20948
883.136	20887
883.262	20864
883.388	20712
883.514	20941
883.64	20937
883.766	20944
883.892	20716
884.018	20720
884.143	20967
884.269	20963
884.395	20693
884.52	20499
884.646	20682
884.772	20545
884.897	20431
885.023	20606
885.148	20720
885.274	20758
885.399	20701
885.524	20549
885.65	20560
885.775	20613
885.9	20495
886.025	20651
886.15	20503
886.275	20606
886.4	20526
886.525	20552
886.65	20533
886.775	20393
886.9	20678
887.025	20864
887.149	20495
887.274	20431
887.399	20317
887.523	20286
887.648	20237
887.773	20263
887.897	20412
888.021	20408
888.146	20244
888.27	20434
888.395	20423
888.519	20473
888.643	20423
888.767	20336
888.891	20275
889.015	20126
889.139	20233
889.263	20195
889.387	20374
889.511	20332
889.635	20221
889.759	20043
889.883	20065
890.006	20172
890.13	20298
890.254	20062
890.377	20043
890.501	19947
890.624	19875
890.748	19890
890.871	19841
890.995	19712
891.118	19715
891.241	19826
891.364	19765
891.488	19856
891.611	19765
891.734	19693
891.857	19807
891.98	19788
892.103	19864
892.226	19738
892.349	19624
892.471	19483
892.594	19582
892.717	19864
892.839	19552
892.962	19761
893.085	19715
893.207	19628
893.33	19510
893.452	19597
893.575	19761
893.697	19769
893.819	19860
893.941	19833
894.064	19780
894.186	19639
894.308	19571
894.43	19750
894.552	19674
894.674	19696
894.796	19662
894.918	19693
895.04	19597
895.161	19685
895.283	19597
895.405	19635
895.526	19731
895.648	19791
895.769	19696
895.891	19719
896.012	19578
896.134	19643
896.255	19670
896.376	19525
896.498	19655
896.619	19704
896.74	19674
896.861	19757
896.982	19921
897.103	20065
897.224	19887
897.345	19852
897.466	19708
897.587	19890
897.708	19993
897.828	19845
897.949	19803
898.07	19784
898.19	19799
898.311	19902
898.431	19913
898.552	19909
898.672	19898
898.792	20005
898.913	19845
899.033	19719
899.153	19715
899.273	19655
899.393	19677
899.513	19689
899.633	19651
899.753	19578
899.873	19400
899.993	19643
900.113	19556
900.232	19537
900.352	19594
900.472	19594
900.591	19434
900.711	19365
900.83	19419
900.95	19529
901.069	19575
901.189	19278
901.308	19031
901.427	19019
901.546	19061
901.665	19019
901.784	19061
901.904	18825
902.023	18722
902.141	18654
902.26	18528
902.379	18642
902.498	18517
902.617	18483
902.735	18563
902.854	18509
902.973	18429
903.091	18232
903.21	18159
903.328	18216
903.446	18148
903.565	17923
903.683	18007
903.801	18041
903.919	17931
904.038	17946
904.156	17809
904.274	17859
904.392	17745
904.51	17737
904.627	17809
904.745	17843
904.863	17885
904.981	17581
905.098	17444
905.216	17524
905.334	17566
905.451	17471
905.569	17501
905.686	17383
905.803	17425
905.921	17277
906.038	17246
906.155	17299
906.272	17155
906.389	17113
906.506	16972
906.623	16911
906.74	17006
906.857	16847
906.974	16801
907.091	17033
907.208	17022
907.324	17109
907.441	16752
907.557	16763
907.674	16828
907.79	16698
907.907	16668
908.023	16812
908.139	16771
908.256	16694
908.372	16668
908.488	16580
908.604	16436
908.72	16424
908.836	16478
908.952	16436
909.068	16459
909.184	16546
909.3	16523
909.415	16462
909.531	16382
909.647	16154
909.762	16150
909.878	16124
909.993	16177
910.108	16154
910.224	16078
910.339	16051
910.454	16032
910.57	15956
910.685	15861
910.8	16135
910.915	16071
911.03	15895
911.145	15789
911.259	15709
911.374	15701
911.489	15671
911.604	15739
911.718	15450
911.833	15545
911.947	15412
912.062	15389
912.176	15507
912.291	15408
912.405	15580
912.519	15698
912.633	15633
912.748	15572
912.862	15515
912.976	15302
913.09	15192
913.204	15203
913.318	15317
913.431	15428
913.545	15268
913.659	15401
913.772	15245
913.886	15062
914	14998
914.113	15218
914.226	15226
914.34	15135
914.453	15028
914.566	15112
914.68	15005
914.793	14963
914.906	14876
915.019	14880
915.132	14735
915.245	14731
915.358	14788
915.47	14720
915.583	14849
915.696	14727
915.809	14743
915.921	14891
916.034	14686
916.146	14621
916.259	14708
916.371	14689
916.483	14564
916.595	14518
916.708	14552
916.82	14488
916.932	14583
917.044	14579
917.156	14465
917.268	14374
917.38	14476
917.491	14415
917.603	14450
917.715	14514
917.826	14499
917.938	14446
918.049	14206
918.161	14332
918.272	14415
918.384	14412
918.495	14438
918.606	14187
918.717	14115
918.828	14221
918.939	14195
919.05	14065
919.161	14096
919.272	13932
919.383	14065
919.494	14195
919.604	14286
919.715	14050
919.826	14008
919.936	14138
920.047	14210
920.157	14035
920.267	14396
920.378	14153
920.488	14062
920.598	14298
920.708	14434
920.818	14282
920.928	14252
921.038	14431
921.148	14298
921.258	14062
921.368	13978
921.477	13890
921.587	13906
921.697	13708
921.806	13868
921.916	13719
922.025	13567
922.134	13559
922.244	13533
922.353	13670
922.462	13426
922.571	13350
922.68	13225
922.789	13164
922.898	13122
923.007	13202
923.116	13247
923.224	13156
923.333	13141
923.442	13133
923.55	12985
923.659	12920
923.767	13122
923.876	12939
923.984	13072
924.092	12890
924.201	12977
924.309	12958
924.417	13019
924.525	12878
924.633	12924
924.741	13742
924.849	12711
924.956	12787
925.064	12681
925.172	12597
925.279	12673
925.387	12677
925.494	12639
925.602	12791
925.709	12734
925.816	12597
925.924	12513
926.031	12662
926.138	12627
926.245	12623
926.352	12456
926.459	12662
926.566	12616
926.673	12540
926.779	12426
926.886	12338
926.993	12220
927.099	12243
927.206	12190
927.312	12186
927.419	12235
927.525	12121
927.631	12247
927.737	12155
927.843	12117
927.95	11942
928.056	12022
928.162	12083
928.267	12003
928.373	12650
928.479	12121
928.585	12003
928.69	11988
928.796	11977
928.901	11885
929.007	11756
929.112	11912
929.218	11840
929.323	11786
929.428	11703
929.533	11794
929.638	11710
929.743	11748
929.848	11714
929.953	11653
930.058	11638
930.163	11429
930.267	11478
930.372	11623
930.477	11414
930.581	11684
930.685	11493
930.79	11398
930.894	11315
930.998	11364
931.103	11463
931.207	11094
931.311	11060
931.415	10908
931.519	10744
931.623	10744
