Data from test_V78500241_2077.txt Node
Date: Fri Mar 25 15:24:19 CST 2022
User: usil
Spectrometer: V785-0024
Trigger mode: 0
Integration Time (sec): 4.000000E-1
Scans to average: 1
Nonlinearity correction enabled: false
Boxcar width: 0
Storing dark spectrum: false
XAxis mode: Wavelengths
Number of Pixels in Spectrum: 1024
>>>>>Begin Spectral Data<<<<<
801.071	27812
801.214	27709
801.356	27424
801.499	27504
801.641	27466
801.783	27397
801.926	27348
802.068	27405
802.211	27348
802.353	27325
802.496	27161
802.638	26990
802.78	26948
802.923	26899
803.065	26910
803.208	26921
803.35	27089
803.492	27161
803.635	27104
803.777	27036
803.919	27104
804.061	27389
804.204	27272
804.346	27157
804.488	27055
804.63	27116
804.773	27131
804.915	27188
805.057	27310
805.199	27119
805.341	27230
805.483	27321
805.626	27351
805.768	27089
805.91	27264
806.052	27310
806.194	27199
806.336	27519
806.478	27272
806.62	27378
806.762	27511
806.904	27629
807.046	27838
807.188	27705
807.33	27720
807.472	27800
807.614	27701
807.756	27709
807.898	27526
808.04	27485
808.182	27564
808.324	27568
808.465	27679
808.607	27850
808.749	27994
808.891	28185
809.033	27922
809.174	28051
809.316	27926
809.458	27892
809.6	27892
809.741	27937
809.883	28063
810.025	28234
810.166	28230
810.308	28257
810.45	28257
810.591	28105
810.733	27899
810.875	27816
811.016	27884
811.158	27941
811.299	27994
811.441	28086
811.582	28135
811.724	27888
811.865	27934
812.007	27762
812.148	27975
812.29	27945
812.431	28040
812.573	28341
812.714	28363
812.855	28401
812.997	28459
813.138	28660
813.279	28546
813.421	28401
813.562	28356
813.703	28341
813.845	28086
813.986	27914
814.127	27701
814.268	27606
814.41	27679
814.551	27743
814.692	27785
814.833	27720
814.974	27595
815.115	27610
815.256	27427
815.397	27606
815.539	27504
815.68	27340
815.821	27302
815.962	27382
816.103	27241
816.244	27252
816.385	27294
816.526	27051
816.666	26998
816.807	27024
816.948	26940
817.089	26982
817.23	26826
817.371	26689
817.512	26887
817.653	26883
817.793	27024
817.934	26804
818.075	27074
818.216	26933
818.356	26830
818.497	26648
818.638	26716
818.778	26621
818.919	26731
819.06	26735
819.2	26712
819.341	26948
819.481	26868
819.622	26994
819.762	27245
819.903	27207
820.043	27028
820.184	27093
820.324	27009
820.465	27020
820.605	26971
820.746	27036
820.886	26864
821.026	26963
821.167	27081
821.307	27020
821.447	26880
821.588	26689
821.728	26636
821.868	26594
822.008	26400
822.149	26366
822.289	26355
822.429	26088
822.569	26054
822.709	26069
822.849	25947
822.99	25887
823.13	25868
823.27	25830
823.41	25753
823.55	25521
823.69	25727
823.83	25837
823.97	25719
824.11	25483
824.25	25365
824.389	25483
824.529	25548
824.669	25320
824.809	25559
824.949	25632
825.089	25499
825.228	25609
825.368	25255
825.508	25426
825.648	25377
825.787	25422
825.927	25464
826.067	25335
826.206	25282
826.346	25369
826.485	25441
826.625	25259
826.765	25533
826.904	25445
827.044	25088
827.183	25122
827.323	25133
827.462	25031
827.601	25190
827.741	25107
827.88	25152
828.02	24981
828.159	25107
828.298	25076
828.437	25103
828.577	25198
828.716	25213
828.855	24962
828.994	24681
829.134	24734
829.273	24760
829.412	24696
829.551	24681
829.69	24791
829.829	24791
829.968	24867
830.107	24795
830.246	24711
830.385	24787
830.524	24707
830.663	24566
830.802	24388
830.941	24330
831.08	24342
831.219	24479
831.357	24388
831.496	24604
831.635	24342
831.774	24380
831.913	24178
832.051	24114
832.19	24121
832.329	24213
832.467	24121
832.606	24068
832.744	24015
832.883	24133
833.022	23961
833.16	24057
833.299	24079
833.437	24049
833.576	24163
833.714	24114
833.852	24015
833.991	24083
834.129	24216
834.267	24232
834.406	24026
834.544	24125
834.682	24163
834.821	24148
834.959	24323
835.097	24053
835.235	24251
835.373	24057
835.511	24079
835.65	23977
835.788	23961
835.926	24053
836.064	23748
836.202	23794
836.34	23912
836.478	24148
836.615	23885
836.753	24079
836.891	24076
837.029	24007
837.167	23851
837.305	23798
837.443	23767
837.58	23687
837.718	23961
837.856	23859
837.993	23684
838.131	23798
838.269	23794
838.406	23665
838.544	23718
838.681	23535
838.819	23444
838.956	23223
839.094	23292
839.231	23311
839.369	23410
839.506	23786
839.643	23551
839.781	23318
839.918	23128
840.055	23231
840.193	23193
840.33	23086
840.467	23124
840.604	23254
840.742	23349
840.879	23052
841.016	23098
841.153	23079
841.29	23212
841.427	23299
841.564	23273
841.701	23094
841.838	22968
841.975	23014
842.112	23094
842.249	22961
842.385	22862
842.522	23098
842.659	22900
842.796	22991
842.933	22892
843.069	22873
843.206	22877
843.343	22968
843.479	23010
843.616	22972
843.752	22828
843.889	22782
844.025	22812
844.162	22694
844.298	22660
844.435	22664
844.571	22691
844.708	22729
844.844	22793
844.98	22763
845.117	22752
845.253	22675
845.389	22592
845.525	22641
845.661	22588
845.798	22329
845.934	22557
846.07	22367
846.206	22451
846.342	22584
846.478	22333
846.614	22280
846.75	22029
846.886	22238
847.022	22306
847.158	22249
847.294	22097
847.429	22337
847.565	22128
847.701	22421
847.837	21865
847.972	21747
848.108	22002
848.244	22010
848.379	21850
848.515	21739
848.65	21759
848.786	21720
848.921	21793
849.057	21876
849.192	21895
849.328	21724
849.463	21766
849.598	21838
849.734	21618
849.869	21660
850.004	21538
850.14	21583
850.275	21660
850.41	21443
850.545	21462
850.68	21485
850.815	21557
850.95	21523
851.085	21724
851.22	21671
851.355	21481
851.49	21511
851.625	21481
851.76	21610
851.895	21374
852.03	21325
852.165	21481
852.299	21511
852.434	21644
852.569	21561
852.703	21481
852.838	21576
852.973	21583
853.107	21564
853.242	21298
853.376	21355
853.511	21245
853.645	21397
853.78	21408
853.914	21378
854.048	21222
854.183	21348
854.317	21355
854.451	21523
854.585	21363
854.72	21211
854.854	21325
854.988	21275
855.122	21351
855.256	21184
855.39	21241
855.524	21435
855.658	21340
855.792	21367
855.926	21386
856.06	21397
856.194	21431
856.327	21370
856.461	21173
856.595	21302
856.729	21332
856.862	21397
856.996	21450
857.13	21336
857.263	21466
857.397	21473
857.53	21294
857.664	21359
857.797	21393
857.931	21561
858.064	21325
858.197	21477
858.331	21325
858.464	21382
858.597	21268
858.731	21359
858.864	21291
858.997	21192
859.13	21348
859.263	21477
859.396	21496
859.529	21374
859.662	21245
859.795	21214
859.928	21313
860.061	21435
860.194	21549
860.327	21416
860.46	21332
860.592	21325
860.725	21424
860.858	21583
860.99	21332
861.123	21294
861.256	21355
861.388	21397
861.521	21998
861.653	21207
861.786	21104
861.918	21127
862.05	21241
862.183	21294
862.315	21214
862.447	21344
862.58	21199
862.712	21032
862.844	21127
862.976	21180
863.108	21116
863.24	21298
863.372	20952
863.504	21081
863.636	20918
863.768	21058
863.9	21051
864.032	20944
864.164	21070
864.296	21161
864.428	21161
864.559	21119
864.691	21188
864.823	21036
864.954	21017
865.086	21154
865.217	21032
865.349	20849
865.48	20933
865.612	21077
865.743	21001
865.875	20960
866.006	20815
866.137	21074
866.269	20868
866.4	20971
866.531	20807
866.662	20899
866.793	20944
866.924	20899
867.055	20781
867.186	20830
867.317	20838
867.448	20788
867.579	20823
867.71	20701
867.841	20861
867.972	20830
868.103	20861
868.233	20796
868.364	20853
868.495	20998
868.625	21089
868.756	21203
868.886	21032
869.017	21173
869.147	21199
869.278	21195
869.408	21184
869.539	20990
869.669	21214
869.799	21119
869.929	21165
870.06	21329
870.19	21367
870.32	21389
870.45	21382
870.58	21367
870.71	21682
870.84	21622
870.97	21500
871.1	21496
871.23	21743
871.36	21743
871.489	21614
871.619	21663
871.749	21705
871.879	21793
872.008	21720
872.138	21736
872.267	21728
872.397	21618
872.526	21557
872.656	21538
872.785	21526
872.915	21880
873.044	21679
873.173	21793
873.303	21854
873.432	21766
873.561	21819
873.69	21823
873.819	21732
873.948	21717
874.077	21705
874.206	21568
874.335	21614
874.464	21846
874.593	21972
874.722	21998
874.851	21899
874.979	21915
875.108	21991
875.237	21842
875.365	21785
875.494	21899
875.623	22029
875.751	21915
875.88	21953
876.008	22177
876.136	22230
876.265	22272
876.393	22481
876.521	22519
876.65	22440
876.778	22295
876.906	22306
877.034	22337
877.162	22246
877.29	22173
877.418	22375
877.546	22329
877.674	22207
877.802	22185
877.93	22226
878.058	22333
878.185	22185
878.313	22223
878.441	22276
878.568	22200
878.696	22322
878.824	22230
878.951	22440
879.079	22508
879.206	22535
879.333	22421
879.461	22394
879.588	22386
879.715	22363
879.842	22508
879.97	22489
880.097	22166
880.224	22086
880.351	22181
880.478	22207
880.605	22154
880.732	22063
880.859	22382
880.986	22105
881.112	22150
881.239	21998
881.366	21823
881.493	21797
881.619	21720
881.746	21606
881.872	21785
881.999	21671
882.125	21701
882.252	21686
882.378	21633
882.505	21751
882.631	21603
882.757	21378
882.883	21466
883.01	21408
883.136	21317
883.262	21306
883.388	21138
883.514	21363
883.64	21344
883.766	21272
883.892	21150
884.018	21291
884.143	21348
884.269	21294
884.395	21123
884.52	21047
884.646	21039
884.772	20937
884.897	20872
885.023	21039
885.148	21085
885.274	21138
885.399	21203
885.524	21100
885.65	21108
885.775	21005
885.9	20925
886.025	21119
886.15	21116
886.275	21051
886.4	21024
886.525	20963
886.65	21020
886.775	21005
886.9	21085
887.025	21233
887.149	20929
887.274	20914
887.399	20781
887.523	20777
887.648	20716
887.773	20785
887.897	20960
888.021	20864
888.146	20819
888.27	20883
888.395	20895
888.519	20781
888.643	20899
888.767	20861
888.891	20804
889.015	20682
889.139	20571
889.263	20674
889.387	20678
889.511	20743
889.635	20625
889.759	20636
889.883	20552
890.006	20640
890.13	20720
890.254	20507
890.377	20507
890.501	20339
890.624	20332
890.748	20309
890.871	20305
890.995	20206
891.118	20157
891.241	20252
891.364	20172
891.488	20317
891.611	20195
891.734	20267
891.857	20317
891.98	20252
892.103	20248
892.226	20202
892.349	20031
892.471	20024
892.594	19883
892.717	20187
892.839	20161
892.962	20138
893.085	20168
893.207	20062
893.33	19940
893.452	19894
893.575	20172
893.697	20058
893.819	20313
893.941	20313
894.064	20244
894.186	20058
894.308	19906
894.43	20130
894.552	20157
894.674	20122
894.796	19963
894.918	20031
895.04	19932
895.161	20092
895.283	20119
895.405	20092
895.526	20050
895.648	20142
895.769	20122
895.891	20058
896.012	20187
896.134	20149
896.255	19993
896.376	20046
896.498	20073
896.619	20054
896.74	20119
896.861	20103
896.982	20393
897.103	20533
897.224	20343
897.345	20275
897.466	20259
897.587	20358
897.708	20385
897.828	20408
897.949	20237
898.07	20282
898.19	20195
898.311	20271
898.431	20248
898.552	20229
898.672	20370
898.792	20408
898.913	20240
899.033	20180
899.153	20020
899.273	20065
899.393	20065
899.513	20088
899.633	20016
899.753	20096
899.873	19940
899.993	20035
900.113	19955
900.232	20016
900.352	19906
900.472	19925
900.591	19822
900.711	19837
900.83	19833
900.95	19932
901.069	19944
901.189	19791
901.308	19457
901.427	19392
901.546	19339
901.665	19411
901.784	19460
901.904	19301
902.023	19148
902.141	18932
902.26	18932
902.379	19065
902.498	18958
902.617	18745
902.735	18905
902.854	18989
902.973	18878
903.091	18544
903.21	18559
903.328	18559
903.446	18486
903.565	18376
903.683	18433
903.801	18281
903.919	18361
904.038	18479
904.156	18136
904.274	18197
904.392	18285
904.51	18102
904.627	18114
904.745	18213
904.863	18167
904.981	18026
905.098	17767
905.216	17809
905.334	17851
905.451	17824
905.569	17798
905.686	17813
905.803	17786
905.921	17611
906.038	17627
906.155	17600
906.272	17509
906.389	17596
906.506	17455
906.623	17429
906.74	17391
906.857	17299
906.974	17254
907.091	17406
907.208	17402
907.324	17410
907.441	17151
907.557	17098
907.674	17132
907.79	17094
907.907	17037
908.023	17136
908.139	17018
908.256	16934
908.372	16968
908.488	16835
908.604	16843
908.72	16664
908.836	16790
908.952	16949
909.068	16733
909.184	16915
909.3	16736
909.415	16892
909.531	16763
909.647	16542
909.762	16512
909.878	16577
909.993	16485
910.108	16485
910.224	16390
910.339	16451
910.454	16402
910.57	16356
910.685	16265
910.8	16554
910.915	16481
911.03	16284
911.145	16124
911.259	16040
911.374	16139
911.489	16029
911.604	16029
911.718	15819
911.833	15937
911.947	15698
912.062	15652
912.176	15797
912.291	15831
912.405	15888
912.519	16010
912.633	16185
912.748	15888
912.862	15892
912.976	15778
913.09	15462
913.204	15690
913.318	15694
913.431	15705
913.545	15804
913.659	15766
913.772	15595
913.886	15553
914	15424
914.113	15606
914.226	15507
914.34	15587
914.453	15306
914.566	15504
914.68	15268
914.793	15378
914.906	15184
915.019	14998
915.132	15047
915.245	15032
915.358	15036
915.47	14971
915.583	15116
915.696	15077
915.809	15036
915.921	15138
916.034	15005
916.146	14956
916.259	14937
916.371	15020
916.483	14986
916.595	14918
916.708	14876
916.82	14933
916.932	14868
917.044	14849
917.156	14868
917.268	14773
917.38	14701
917.491	14697
917.603	14769
917.715	14686
917.826	14815
917.938	14617
918.049	14590
918.161	14697
918.272	14857
918.384	14834
918.495	14617
918.606	14560
918.717	14431
918.828	14480
918.939	14636
919.05	14427
919.161	14469
919.272	14259
919.383	14259
919.494	14552
919.604	14663
919.715	14511
919.826	14370
919.936	14457
920.047	14454
920.157	14556
920.267	14667
920.378	14549
920.488	14351
920.598	14712
920.708	14746
920.818	14575
920.928	14632
921.038	14739
921.148	14617
921.258	14457
921.368	14377
921.477	14263
921.587	14123
921.697	14050
921.806	14233
921.916	13978
922.025	13932
922.134	13856
922.244	13791
922.353	13841
922.462	13757
922.571	13696
922.68	13499
922.789	13552
922.898	13445
923.007	13403
923.116	13567
923.224	13426
923.333	13540
923.442	13369
923.55	13278
923.659	13244
923.767	13457
923.876	13282
923.984	13282
924.092	13240
924.201	13225
924.309	13194
924.417	13187
924.525	13114
924.633	13141
924.741	13860
924.849	12909
924.956	13069
925.064	12973
925.172	12901
925.279	12852
925.387	12920
925.494	12817
925.602	12985
925.709	12958
925.816	12772
925.924	12791
926.031	12958
926.138	12867
926.245	12875
926.352	12795
926.459	12966
926.566	12981
926.673	12776
926.779	12681
926.886	12696
926.993	12544
927.099	12475
927.206	12388
927.312	12407
927.419	12521
927.525	12380
927.631	12433
927.737	12277
927.843	12220
927.95	12155
928.056	12285
928.162	12277
928.267	12418
928.373	12932
928.479	12471
928.585	12083
928.69	12281
928.796	12239
928.901	12186
929.007	12034
929.112	12136
929.218	12144
929.323	12098
929.428	11958
929.533	12129
929.638	11904
929.743	11999
929.848	12091
929.953	12011
930.058	11855
930.163	11714
930.267	11821
930.372	11737
930.477	11699
930.581	11843
930.685	11733
930.79	11585
930.894	11577
930.998	11573
931.103	11570
931.207	11315
931.311	11322
931.415	11189
931.519	11048
931.623	10976
