Data from test_V78500241_3111.txt Node
Date: Fri Mar 25 15:31:31 CST 2022
User: usil
Spectrometer: V785-0024
Trigger mode: 0
Integration Time (sec): 4.000000E-1
Scans to average: 1
Nonlinearity correction enabled: false
Boxcar width: 0
Storing dark spectrum: false
XAxis mode: Wavelengths
Number of Pixels in Spectrum: 1024
>>>>>Begin Spectral Data<<<<<
801.071	26693
801.214	26446
801.356	26381
801.499	26282
801.641	26073
801.783	26157
801.926	26145
802.068	26195
802.211	25989
802.353	26016
802.496	25868
802.638	25814
802.78	25620
802.923	25578
803.065	25681
803.208	25658
803.35	25742
803.492	25894
803.635	25982
803.777	25704
803.919	26081
804.061	26336
804.204	25978
804.346	25776
804.488	25776
804.63	25951
804.773	25856
804.915	25902
805.057	26016
805.199	25913
805.341	25871
805.483	25966
805.626	25993
805.768	25807
805.91	26020
806.052	25974
806.194	25997
806.336	26088
806.478	26012
806.62	25902
806.762	26115
806.904	26176
807.046	26473
807.188	26415
807.33	26408
807.472	26526
807.614	26320
807.756	26351
807.898	26282
808.04	26180
808.182	26298
808.324	26298
808.465	26145
808.607	26393
808.749	26518
808.891	26663
809.033	26826
809.174	26667
809.316	26476
809.458	26579
809.6	26514
809.741	26640
809.883	26609
810.025	26937
810.166	26727
810.308	26777
810.45	26731
810.591	26792
810.733	26552
810.875	26503
811.016	26450
811.158	26465
811.299	26636
811.441	26792
811.582	26731
811.724	26526
811.865	26396
812.007	26495
812.148	26377
812.29	26632
812.431	26533
812.573	26712
812.714	26857
812.855	27017
812.997	27192
813.138	27230
813.279	27226
813.421	27085
813.562	26880
813.703	26861
813.845	26674
813.986	26374
814.127	26317
814.268	26263
814.41	26164
814.551	26046
814.692	26248
814.833	26134
814.974	26164
815.115	26130
815.256	26168
815.397	26096
815.539	26054
815.68	25799
815.821	25837
815.962	26096
816.103	25909
816.244	25731
816.385	25780
816.526	25594
816.666	25544
816.807	25373
816.948	25441
817.089	25518
817.23	25510
817.371	25396
817.512	25316
817.653	25354
817.793	25244
817.934	25415
818.075	25544
818.216	25377
818.356	25354
818.497	25297
818.638	25289
818.778	25160
818.919	25114
819.06	25164
819.2	25297
819.341	25213
819.481	25369
819.622	25586
819.762	25674
819.903	25632
820.043	25674
820.184	25487
820.324	25567
820.465	25441
820.605	25460
820.746	25438
820.886	25285
821.026	25460
821.167	25346
821.307	25578
821.447	25441
821.588	25270
821.728	25202
821.868	25031
822.008	24935
822.149	24928
822.289	24973
822.429	24692
822.569	24677
822.709	24505
822.849	24395
822.99	24448
823.13	24456
823.27	24201
823.41	24201
823.55	24041
823.69	24167
823.83	24209
823.97	24152
824.11	24068
824.25	23965
824.389	24003
824.529	24114
824.669	24034
824.809	24106
824.949	24076
825.089	24007
825.228	24030
825.368	23832
825.508	23912
825.648	23889
825.787	23882
825.927	23847
826.067	23756
826.206	23859
826.346	23931
826.485	23946
826.625	23771
826.765	24091
826.904	24034
827.044	23551
827.183	23554
827.323	23471
827.462	23619
827.601	23543
827.741	23535
827.88	23535
828.02	23391
828.159	23433
828.298	23562
828.437	23490
828.577	23547
828.716	23748
828.855	23486
828.994	23246
829.134	23200
829.273	23303
829.412	23227
829.551	23155
829.69	23212
829.829	23364
829.968	23315
830.107	23406
830.246	23330
830.385	23193
830.524	23170
830.663	23094
830.802	23025
830.941	22801
831.08	22805
831.219	22980
831.357	23048
831.496	23067
831.635	22892
831.774	22797
831.913	22755
832.051	22626
832.19	22740
832.329	22675
832.467	22569
832.606	22443
832.744	22443
832.883	22607
833.022	22481
833.16	22618
833.299	22565
833.437	22538
833.576	22596
833.714	22512
833.852	22565
833.991	22626
834.129	22725
834.267	22702
834.406	22637
834.544	22672
834.682	22554
834.821	22523
834.959	22824
835.097	22561
835.235	22653
835.373	22478
835.511	22596
835.65	22538
835.788	22474
835.926	22299
836.064	22215
836.202	22234
836.34	22504
836.478	22432
836.615	22409
836.753	22424
836.891	22455
837.029	22443
837.167	22390
837.305	22390
837.443	22432
837.58	22257
837.718	22455
837.856	22299
837.993	22265
838.131	22280
838.269	22169
838.406	22188
838.544	22196
838.681	22048
838.819	21937
838.956	21720
839.094	21812
839.231	21907
839.369	21956
839.506	22226
839.643	22074
839.781	21766
839.918	21857
840.055	21774
840.193	21827
840.33	21717
840.467	21838
840.604	21789
840.742	22090
840.879	21652
841.016	21747
841.153	21564
841.29	21804
841.427	21728
841.564	21774
841.701	21732
841.838	21686
841.975	21800
842.112	21762
842.249	21587
842.385	21618
842.522	21789
842.659	21591
842.796	21564
842.933	21545
843.069	21485
843.206	21439
843.343	21496
843.479	21511
843.616	21481
843.752	21302
843.889	21260
844.025	21458
844.162	21169
844.298	21336
844.435	21317
844.571	21287
844.708	21435
844.844	21481
844.98	21321
845.117	21351
845.253	21142
845.389	21176
845.525	21150
845.661	21169
845.798	21070
845.934	21142
846.07	21074
846.206	21085
846.342	21211
846.478	21051
846.614	20800
846.75	20667
846.886	20754
847.022	20895
847.158	20823
847.294	20674
847.429	20845
847.565	20849
847.701	20971
847.837	20480
847.972	20370
848.108	20545
848.244	20556
848.379	20339
848.515	20313
848.65	20313
848.786	20404
848.921	20309
849.057	20442
849.192	20324
849.328	20404
849.463	20336
849.598	20336
849.734	20263
849.869	20286
850.004	20130
850.14	20115
850.275	20130
850.41	20115
850.545	20073
850.68	20039
850.815	20191
850.95	20043
851.085	20393
851.22	20233
851.355	20065
851.49	20005
851.625	20157
851.76	20149
851.895	20039
852.03	19989
852.165	20134
852.299	20149
852.434	20149
852.569	20050
852.703	20081
852.838	20122
852.973	20282
853.107	20275
853.242	20039
853.376	20027
853.511	19811
853.645	19822
853.78	20054
853.914	20024
854.048	19849
854.183	19970
854.317	20043
854.451	20244
854.585	19959
854.72	20020
854.854	19986
854.988	19849
855.122	19928
855.256	19723
855.39	20024
855.524	20084
855.658	19909
855.792	19917
855.926	19898
856.06	19894
856.194	20050
856.327	19894
856.461	19826
856.595	19849
856.729	19898
856.862	20077
856.996	19989
857.13	20020
857.263	20096
857.397	20012
857.53	19921
857.664	20024
857.797	20096
857.931	20001
858.064	20027
858.197	20100
858.331	19978
858.464	19928
858.597	19780
858.731	19898
858.864	19928
858.997	19795
859.13	19947
859.263	19955
859.396	19970
859.529	19944
859.662	19902
859.795	19917
859.928	19864
860.061	20122
860.194	20111
860.327	19970
860.46	19917
860.592	20065
860.725	20138
860.858	20122
860.99	20043
861.123	19887
861.256	19765
861.388	20012
861.521	20427
861.653	19814
861.786	19849
861.918	19795
862.05	19841
862.183	19944
862.315	19921
862.447	19947
862.58	19765
862.712	19594
862.844	19635
862.976	19822
863.108	19788
863.24	20016
863.372	19681
863.504	19670
863.636	19556
863.768	19674
863.9	19655
864.032	19643
864.164	19689
864.296	19689
864.428	19597
864.559	19807
864.691	19715
864.823	19651
864.954	19776
865.086	19655
865.217	19700
865.349	19544
865.48	19525
865.612	19563
865.743	19746
865.875	19518
866.006	19544
866.137	19567
866.269	19548
866.4	19563
866.531	19556
866.662	19362
866.793	19601
866.924	19552
867.055	19548
867.186	19537
867.317	19460
867.448	19392
867.579	19483
867.71	19472
867.841	19407
867.972	19480
868.103	19487
868.233	19445
868.364	19582
868.495	19670
868.625	19734
868.756	19845
868.886	19639
869.017	19719
869.147	19925
869.278	19909
869.408	19875
869.539	19731
869.669	19982
869.799	19837
869.929	19879
870.06	19894
870.19	20062
870.32	20069
870.45	20100
870.58	20282
870.71	20294
870.84	20218
870.97	20145
871.1	20218
871.23	20294
871.36	20301
871.489	20256
871.619	20381
871.749	20290
871.879	20305
872.008	20381
872.138	20423
872.267	20355
872.397	20172
872.526	20214
872.656	20218
872.785	20282
872.915	20480
873.044	20400
873.173	20438
873.303	20465
873.432	20389
873.561	20412
873.69	20431
873.819	20385
873.948	20484
874.077	20339
874.206	20476
874.335	20393
874.464	20644
874.593	20640
874.722	20579
874.851	20716
874.979	20708
875.108	20682
875.237	20526
875.365	20579
875.494	20590
875.623	20686
875.751	20495
875.88	20754
876.008	20830
876.136	20925
876.265	21222
876.393	21180
876.521	21233
876.65	21108
876.778	21131
876.906	21051
877.034	21036
877.162	21047
877.29	20975
877.418	21100
877.546	21005
877.674	21039
877.802	21013
877.93	21123
878.058	20906
878.185	20910
878.313	21032
878.441	21024
878.568	20895
878.696	20982
878.824	20956
878.951	21138
879.079	21184
879.206	21279
879.333	21184
879.461	20975
879.588	21161
879.715	21214
879.842	21218
879.97	21123
880.097	20887
880.224	20777
880.351	20918
880.478	20765
880.605	20880
880.732	20899
880.859	21013
880.986	20975
881.112	20845
881.239	20697
881.366	20602
881.493	20537
881.619	20499
881.746	20450
881.872	20393
881.999	20343
882.125	20355
882.252	20495
882.378	20408
882.505	20564
882.631	20358
882.757	20210
882.883	20199
883.01	20187
883.136	20103
883.262	19993
883.388	20031
883.514	20153
883.64	20206
883.766	20107
883.892	19921
884.018	20005
884.143	20153
884.269	20130
884.395	20016
884.52	19845
884.646	19731
884.772	19632
884.897	19757
885.023	19841
885.148	19841
885.274	19982
885.399	19917
885.524	19750
885.65	19860
885.775	19852
885.9	19723
886.025	19898
886.15	19902
886.275	19799
886.4	19704
886.525	19723
886.65	19784
886.775	19822
886.9	20005
887.025	20039
887.149	19769
887.274	19655
887.399	19757
887.523	19624
887.648	19567
887.773	19521
887.897	19552
888.021	19643
888.146	19609
888.27	19647
888.395	19742
888.519	19605
888.643	19601
888.767	19681
888.891	19491
889.015	19422
889.139	19434
889.263	19358
889.387	19594
889.511	19590
889.635	19578
889.759	19510
889.883	19396
890.006	19540
890.13	19540
890.254	19312
890.377	19266
890.501	19145
890.624	19156
890.748	19232
890.871	19107
890.995	18939
891.118	18894
891.241	19084
891.364	19057
891.488	19084
891.611	18977
891.734	18970
891.857	19046
891.98	19019
892.103	19061
892.226	19065
892.349	18894
892.471	18798
892.594	18913
892.717	18939
892.839	18833
892.962	18954
893.085	18856
893.207	18947
893.33	18875
893.452	18935
893.575	19012
893.697	18779
893.819	19076
893.941	19148
894.064	19038
894.186	18863
894.308	18848
894.43	18954
894.552	19133
894.674	19065
894.796	18886
894.918	18890
895.04	19023
895.161	19057
895.283	18981
895.405	18886
895.526	18878
895.648	18947
895.769	18958
895.891	19008
896.012	18970
896.134	18996
896.255	19000
896.376	18916
896.498	18973
896.619	18996
896.74	18844
896.861	18939
896.982	19293
897.103	19453
897.224	19232
897.345	19164
897.466	19015
897.587	19179
897.708	19377
897.828	19168
897.949	19156
898.07	19042
898.19	19244
898.311	19270
898.431	19057
898.552	19228
898.672	19232
898.792	19320
898.913	19263
899.033	19019
899.153	19031
899.273	18859
899.393	18939
899.513	19080
899.633	18943
899.753	18996
899.873	18920
899.993	18954
900.113	18886
900.232	18947
900.352	18840
900.472	18890
900.591	18700
900.711	18806
900.83	18650
900.95	18859
901.069	18852
901.189	18627
901.308	18479
901.427	18308
901.546	18350
901.665	18441
901.784	18319
901.904	18281
902.023	18114
902.141	17904
902.26	17954
902.379	17904
902.498	17870
902.617	17885
902.735	17893
902.854	17927
902.973	17805
903.091	17585
903.21	17524
903.328	17528
903.446	17425
903.565	17292
903.683	17433
903.801	17318
903.919	17261
904.038	17254
904.156	17064
904.274	17322
904.392	17052
904.51	17151
904.627	17166
904.745	17193
904.863	17162
904.981	16991
905.098	16839
905.216	16835
905.334	16881
905.451	16892
905.569	16850
905.686	16850
905.803	16835
905.921	16596
906.038	16763
906.155	16634
906.272	16466
906.389	16516
906.506	16261
906.623	16344
906.74	16322
906.857	16382
906.974	16287
907.091	16466
907.208	16504
907.324	16268
907.441	16234
907.557	16048
907.674	16048
907.79	16093
907.907	15998
908.023	16067
908.139	16086
908.256	16112
908.372	15956
908.488	15884
908.604	15892
908.72	15827
908.836	15861
908.952	15831
909.068	15880
909.184	15930
909.3	15895
909.415	15892
909.531	15816
909.647	15553
909.762	15648
909.878	15622
909.993	15507
910.108	15549
910.224	15450
910.339	15587
910.454	15363
910.57	15416
910.685	15207
910.8	15545
910.915	15488
911.03	15382
911.145	15260
911.259	15123
911.374	15169
911.489	15135
911.604	15085
911.718	14941
911.833	14910
911.947	14765
912.062	14765
912.176	14925
912.291	14956
912.405	14956
912.519	15108
912.633	15112
912.748	15013
912.862	14948
912.976	14792
913.09	14651
913.204	14697
913.318	14724
913.431	14834
913.545	14765
913.659	14857
913.772	14636
913.886	14590
914	14583
914.113	14629
914.226	14682
914.34	14541
914.453	14495
914.566	14522
914.68	14514
914.793	14370
914.906	14282
915.019	14111
915.132	14138
915.245	14202
915.358	14195
915.47	14271
915.583	14259
915.696	14153
915.809	14240
915.921	14343
916.034	14046
916.146	14103
916.259	14103
916.371	14183
916.483	14103
916.595	13989
916.708	14046
916.82	14050
916.932	13986
917.044	13986
917.156	14058
917.268	13860
917.38	13890
917.491	13860
917.603	13852
917.715	13921
917.826	13970
917.938	13818
918.049	13693
918.161	13776
918.272	13921
918.384	14050
918.495	13936
918.606	13681
918.717	13639
918.828	13681
918.939	13700
919.05	13556
919.161	13571
919.272	13460
919.383	13616
919.494	13704
919.604	13883
919.715	13590
919.826	13544
919.936	13552
920.047	13769
920.157	13674
920.267	13811
920.378	13685
920.488	13616
920.598	13742
920.708	13871
920.818	13746
920.928	13742
921.038	13921
921.148	13776
921.258	13601
921.368	13521
921.477	13464
921.587	13354
921.697	13251
921.806	13377
921.916	13285
922.025	13129
922.134	12993
922.244	13164
922.353	13027
922.462	12882
922.571	12802
922.68	12692
922.789	12745
922.898	12764
923.007	12620
923.116	12738
923.224	12620
923.333	12711
923.442	12563
923.55	12502
923.659	12623
923.767	12669
923.876	12471
923.984	12582
924.092	12460
924.201	12395
924.309	12479
924.417	12403
924.525	12422
924.633	12319
924.741	13278
924.849	12266
924.956	12334
925.064	12117
925.172	12095
925.279	12194
925.387	12178
925.494	12121
925.602	12254
925.709	12281
925.816	12045
925.924	12117
926.031	12201
926.138	12140
926.245	12144
926.352	12011
926.459	12194
926.566	12186
926.673	12087
926.779	11988
926.886	11923
926.993	11885
927.099	11756
927.206	11714
927.312	11726
927.419	11779
927.525	11741
927.631	11726
927.737	11737
927.843	11585
927.95	11539
928.056	11562
928.162	11665
928.267	11672
928.373	12205
928.479	11649
928.585	11520
928.69	11600
928.796	11551
928.901	11490
929.007	11353
929.112	11528
929.218	11505
929.323	11410
929.428	11383
929.533	11501
929.638	11311
929.743	11318
929.848	11345
929.953	11315
930.058	11246
930.163	11071
930.267	11094
930.372	11235
930.477	11060
930.581	11326
930.685	11075
930.79	10980
930.894	10987
930.998	10968
931.103	11136
931.207	10763
931.311	10645
931.415	10618
931.519	10459
931.623	10417
