Data from test_V78500241_1318.txt Node
Date: Fri Mar 25 15:19:01 CST 2022
User: usil
Spectrometer: V785-0024
Trigger mode: 0
Integration Time (sec): 4.000000E-1
Scans to average: 1
Nonlinearity correction enabled: false
Boxcar width: 0
Storing dark spectrum: false
XAxis mode: Wavelengths
Number of Pixels in Spectrum: 1024
>>>>>Begin Spectral Data<<<<<
801.071	28010
801.214	27876
801.356	27778
801.499	27648
801.641	27462
801.783	27564
801.926	27580
802.068	27481
802.211	27424
802.353	27412
802.496	27161
802.638	27188
802.78	27214
802.923	27043
803.065	26979
803.208	27100
803.35	27176
803.492	27211
803.635	27359
803.777	27272
803.919	27549
804.061	27675
804.204	27294
804.346	27218
804.488	27264
804.63	27401
804.773	27195
804.915	27310
805.057	27599
805.199	27325
805.341	27507
805.483	27606
805.626	27542
805.768	27507
805.91	27416
806.052	27450
806.194	27500
806.336	27595
806.478	27568
806.62	27595
806.762	27724
806.904	27800
807.046	27991
807.188	27880
807.33	27964
807.472	28002
807.614	27873
807.756	27827
807.898	27914
808.04	27850
808.182	27846
808.324	27774
808.465	27785
808.607	27903
808.749	28135
808.891	28268
809.033	28287
809.174	28272
809.316	28192
809.458	28242
809.6	28173
809.741	28268
809.883	28333
810.025	28474
810.166	28481
810.308	28401
810.45	28405
810.591	28500
810.733	28249
810.875	28207
811.016	28101
811.158	28086
811.299	28299
811.441	28329
811.582	28428
811.724	28120
811.865	28131
812.007	28268
812.148	28147
812.29	28322
812.431	28306
812.573	28440
812.714	28523
812.855	28755
812.997	28824
813.138	28995
813.279	28733
813.421	28793
813.562	28603
813.703	28527
813.845	28386
813.986	28166
814.127	28021
814.268	27808
814.41	27850
814.551	27679
814.692	28017
814.833	27842
814.974	27895
815.115	27888
815.256	27774
815.397	27728
815.539	27846
815.68	27698
815.821	27599
815.962	27713
816.103	27610
816.244	27523
816.385	27538
816.526	27462
816.666	27256
816.807	27157
816.948	27237
817.089	27218
817.23	27214
817.371	27127
817.512	27146
817.653	27218
817.793	27039
817.934	27146
818.075	27203
818.216	27119
818.356	27077
818.497	27169
818.638	26762
818.778	26933
818.919	26830
819.06	27001
819.2	27001
819.341	27245
819.481	27173
819.622	27348
819.762	27431
819.903	27382
820.043	27275
820.184	27424
820.324	27268
820.465	27348
820.605	27329
820.746	27275
820.886	27112
821.026	27298
821.167	27325
821.307	27389
821.447	27116
821.588	27005
821.728	27112
821.868	26781
822.008	26621
822.149	26609
822.289	26434
822.429	26298
822.569	26339
822.709	26237
822.849	26058
822.99	26183
823.13	26138
823.27	26096
823.41	25997
823.55	25868
823.69	25928
823.83	25959
823.97	25959
824.11	25727
824.25	25681
824.389	25715
824.529	25833
824.669	25795
824.809	25906
824.949	25814
825.089	25894
825.228	25856
825.368	25658
825.508	25632
825.648	25635
825.787	25578
825.927	25765
826.067	25643
826.206	25586
826.346	25643
826.485	25731
826.625	25624
826.765	25830
826.904	25746
827.044	25449
827.183	25518
827.323	25476
827.462	25483
827.601	25384
827.741	25335
827.88	25445
828.02	25327
828.159	25335
828.298	25438
828.437	25411
828.577	25263
828.716	25415
828.855	25316
828.994	25171
829.134	25080
829.273	25156
829.412	25019
829.551	24958
829.69	25118
829.829	25156
829.968	25126
830.107	25088
830.246	25065
830.385	24981
830.524	24947
830.663	24882
830.802	24696
830.941	24661
831.08	24673
831.219	24802
831.357	24779
831.496	24875
831.635	24665
831.774	24639
831.913	24574
832.051	24456
832.19	24429
832.329	24551
832.467	24346
832.606	24391
832.744	24395
832.883	24266
833.022	24300
833.16	24357
833.299	24464
833.437	24315
833.576	24467
833.714	24372
833.852	24437
833.991	24551
834.129	24467
834.267	24464
834.406	24509
834.544	24403
834.682	24483
834.821	24380
834.959	24551
835.097	24361
835.235	24433
835.373	24338
835.511	24448
835.65	24285
835.788	24292
835.926	24182
836.064	24133
836.202	24136
836.34	24300
836.478	24247
836.615	24235
836.753	24224
836.891	24433
837.029	24346
837.167	24334
837.305	24254
837.443	24079
837.58	24087
837.718	24235
837.856	24152
837.993	24049
838.131	24136
838.269	24076
838.406	23980
838.544	23984
838.681	23668
838.819	23684
838.956	23554
839.094	23505
839.231	23630
839.369	23695
839.506	24030
839.643	23813
839.781	23611
839.918	23547
840.055	23562
840.193	23619
840.33	23372
840.467	23539
840.604	23490
840.742	23741
840.879	23208
841.016	23414
841.153	23353
841.29	23627
841.427	23429
841.564	23596
841.701	23455
841.838	23467
841.975	23261
842.112	23284
842.249	23353
842.385	23265
842.522	23379
842.659	23311
842.796	23178
842.933	23265
843.069	23197
843.206	23132
843.343	23181
843.479	23273
843.616	23242
843.752	23010
843.889	22987
844.025	23147
844.162	22976
844.298	23178
844.435	22972
844.571	23022
844.708	22942
844.844	23147
844.98	23162
845.117	23121
845.253	22957
845.389	22835
845.525	22881
845.661	22900
845.798	22744
845.934	22809
846.07	22546
846.206	22816
846.342	22987
846.478	22694
846.614	22447
846.75	22329
846.886	22470
847.022	22508
847.158	22538
847.294	22531
847.429	22516
847.565	22310
847.701	22641
847.837	22120
847.972	22200
848.108	22371
848.244	22257
848.379	22147
848.515	22055
848.65	22036
848.786	22093
848.921	22162
849.057	22226
849.192	22181
849.328	22169
849.463	22006
849.598	22013
849.734	21994
849.869	21983
850.004	21827
850.14	21903
850.275	21899
850.41	21713
850.545	21701
850.68	21869
850.815	21819
850.95	21831
851.085	21998
851.22	21759
851.355	21907
851.49	21846
851.625	21755
851.76	21728
851.895	21675
852.03	21698
852.165	21823
852.299	21797
852.434	21918
852.569	21831
852.703	21808
852.838	21831
852.973	21842
853.107	21911
853.242	21724
853.376	21561
853.511	21507
853.645	21572
853.78	21766
853.914	21629
854.048	21572
854.183	21477
854.317	21728
854.451	21694
854.585	21747
854.72	21675
854.854	21762
854.988	21572
855.122	21587
855.256	21477
855.39	21545
855.524	21652
855.658	21644
855.792	21568
855.926	21694
856.06	21637
856.194	21781
856.327	21633
856.461	21595
856.595	21625
856.729	21610
856.862	21804
856.996	21629
857.13	21774
857.263	21663
857.397	21720
857.53	21698
857.664	21595
857.797	21686
857.931	21861
858.064	21633
858.197	21698
858.331	21698
858.464	21526
858.597	21511
858.731	21549
858.864	21690
858.997	21618
859.13	21686
859.263	21633
859.396	21622
859.529	21557
859.662	21591
859.795	21542
859.928	21629
860.061	21747
860.194	21778
860.327	21762
860.46	21618
860.592	21618
860.725	21778
860.858	21766
860.99	21705
861.123	21599
861.256	21553
861.388	21606
861.521	22246
861.653	21447
861.786	21488
861.918	21458
862.05	21511
862.183	21587
862.315	21542
862.447	21595
862.58	21530
862.712	21386
862.844	21298
862.976	21389
863.108	21405
863.24	21663
863.372	21272
863.504	21287
863.636	21408
863.768	21507
863.9	21336
864.032	21207
864.164	21161
864.296	21306
864.428	21450
864.559	21386
864.691	21336
864.823	21287
864.954	21245
865.086	21294
865.217	21237
865.349	21176
865.48	21310
865.612	21180
865.743	21355
865.875	21313
866.006	21173
866.137	21287
866.269	21294
866.4	21100
866.531	21108
866.662	21165
866.793	21226
866.924	21211
867.055	21085
867.186	21123
867.317	21207
867.448	21058
867.579	21089
867.71	21055
867.841	20967
867.972	21161
868.103	21077
868.233	21104
868.364	21135
868.495	21298
868.625	21336
868.756	21374
868.886	21370
869.017	21393
869.147	21485
869.278	21488
869.408	21454
869.539	21431
869.669	21488
869.799	21473
869.929	21492
870.06	21492
870.19	21595
870.32	21724
870.45	21549
870.58	21656
870.71	21797
870.84	21888
870.97	21850
871.1	21854
871.23	21865
871.36	22025
871.489	21899
871.619	22032
871.749	21880
871.879	21964
872.008	22044
872.138	22086
872.267	22116
872.397	21793
872.526	21842
872.656	21812
872.785	21812
872.915	21922
873.044	22166
873.173	22055
873.303	22067
873.432	22040
873.561	22128
873.69	22006
873.819	22097
873.948	22044
874.077	22120
874.206	21865
874.335	22021
874.464	22173
874.593	22238
874.722	22082
874.851	22215
874.979	22230
875.108	22169
875.237	22105
875.365	22116
875.494	22230
875.623	22223
875.751	22086
875.88	22181
876.008	22432
876.136	22318
876.265	22588
876.393	22717
876.521	22664
876.65	22759
876.778	22607
876.906	22500
877.034	22436
877.162	22626
877.29	22554
877.418	22641
877.546	22641
877.674	22725
877.802	22500
877.93	22645
878.058	22493
878.185	22405
878.313	22485
878.441	22535
878.568	22421
878.696	22405
878.824	22618
878.951	22698
879.079	22675
879.206	22889
879.333	22656
879.461	22554
879.588	22752
879.715	22710
879.842	22790
879.97	22615
880.097	22299
880.224	22421
880.351	22417
880.478	22447
880.605	22367
880.732	22291
880.859	22580
880.986	22557
881.112	22405
881.239	22226
881.366	22143
881.493	22017
881.619	22048
881.746	21987
881.872	22013
881.999	21979
882.125	21884
882.252	21960
882.378	21991
882.505	22082
882.631	21903
882.757	21648
882.883	21614
883.01	21747
883.136	21656
883.262	21507
883.388	21557
883.514	21682
883.64	21713
883.766	21599
883.892	21545
884.018	21561
884.143	21736
884.269	21717
884.395	21405
884.52	21249
884.646	21420
884.772	21211
884.897	21214
885.023	21378
885.148	21351
885.274	21428
885.399	21348
885.524	21317
885.65	21287
885.775	21321
885.9	21230
886.025	21298
886.15	21405
886.275	21264
886.4	21256
886.525	21161
886.65	21310
886.775	21222
886.9	21462
887.025	21466
887.149	21275
887.274	21173
887.399	21108
887.523	21222
887.648	21009
887.773	20998
887.897	21123
888.021	21188
888.146	21081
888.27	21150
888.395	21176
888.519	21089
888.643	21154
888.767	21089
888.891	21135
889.015	20925
889.139	20990
889.263	20906
889.387	21150
889.511	21112
889.635	20963
889.759	20876
889.883	20823
890.006	20948
890.13	20956
890.254	20724
890.377	20750
890.501	20659
890.624	20617
890.748	20632
890.871	20328
890.995	20431
891.118	20389
891.241	20484
891.364	20408
891.488	20568
891.611	20556
891.734	20575
891.857	20537
891.98	20355
892.103	20530
892.226	20415
892.349	20355
892.471	20221
892.594	20419
892.717	20393
892.839	20362
892.962	20275
893.085	20404
893.207	20355
893.33	20278
893.452	20290
893.575	20514
893.697	20259
893.819	20476
893.941	20587
894.064	20434
894.186	20237
894.308	20259
894.43	20415
894.552	20552
894.674	20298
894.796	20157
894.918	20343
895.04	20351
895.161	20454
895.283	20389
895.405	20202
895.526	20221
895.648	20271
895.769	20381
895.891	20332
896.012	20530
896.134	20358
896.255	20290
896.376	20400
896.498	20305
896.619	20396
896.74	20358
896.861	20374
896.982	20655
897.103	20682
897.224	20568
897.345	20575
897.466	20423
897.587	20545
897.708	20609
897.828	20533
897.949	20495
898.07	20393
898.19	20438
898.311	20678
898.431	20499
898.552	20530
898.672	20609
898.792	20667
898.913	20526
899.033	20381
899.153	20332
899.273	20195
899.393	20206
899.513	20301
899.633	20328
899.753	20313
899.873	20229
899.993	20324
900.113	20111
900.232	20294
900.352	20278
900.472	20043
900.591	19986
900.711	20115
900.83	20024
900.95	20195
901.069	20145
901.189	19963
901.308	19639
901.427	19613
901.546	19677
901.665	19624
901.784	19674
901.904	19514
902.023	19487
902.141	19221
902.26	19190
902.379	19320
902.498	19168
902.617	19114
902.735	19263
902.854	19206
902.973	19107
903.091	18783
903.21	18863
903.328	18821
903.446	18776
903.565	18665
903.683	18719
903.801	18445
903.919	18460
904.038	18627
904.156	18506
904.274	18448
904.392	18471
904.51	18376
904.627	18388
904.745	18426
904.863	18384
904.981	18220
905.098	18083
905.216	18041
905.334	18015
905.451	18095
905.569	18049
905.686	18076
905.803	18106
905.921	17863
906.038	17942
906.155	17935
906.272	17764
906.389	17878
906.506	17634
906.623	17619
906.74	17577
906.857	17387
906.974	17509
907.091	17695
907.208	17630
907.324	17630
907.441	17581
907.557	17322
907.674	17288
907.79	17193
907.907	17178
908.023	17368
908.139	17356
908.256	17345
908.372	17254
908.488	17288
908.604	16995
908.72	17052
908.836	17052
908.952	16965
909.068	17056
909.184	17094
909.3	17014
909.415	17117
909.531	17090
909.647	16816
909.762	16721
909.878	16748
909.993	16660
910.108	16618
910.224	16744
910.339	16675
910.454	16577
910.57	16580
910.685	16485
910.8	16782
910.915	16630
911.03	16622
911.145	16409
911.259	16356
911.374	16257
911.489	16322
911.604	16261
911.718	15975
911.833	16048
911.947	16006
912.062	15934
912.176	16097
912.291	16128
912.405	16029
912.519	16139
912.633	16219
912.748	16192
912.862	16086
912.976	15903
913.09	15812
913.204	15770
913.318	15857
913.431	15949
913.545	15922
913.659	16040
913.772	15800
913.886	15800
914	15720
914.113	15800
914.226	15903
914.34	15637
914.453	15584
914.566	15576
914.68	15481
914.793	15500
914.906	15408
915.019	15283
915.132	15260
915.245	15230
915.358	15298
915.47	15291
915.583	15336
915.696	15245
915.809	15450
915.921	15348
916.034	15207
916.146	15260
916.259	15184
916.371	15287
916.483	15283
916.595	15123
916.708	15116
916.82	15100
916.932	14975
917.044	15058
917.156	15020
917.268	14963
917.38	14963
917.491	14956
917.603	14921
917.715	14941
917.826	14918
917.938	14887
918.049	14754
918.161	14895
918.272	15058
918.384	14952
918.495	14819
918.606	14689
918.717	14636
918.828	14720
918.939	14674
919.05	14571
919.161	14621
919.272	14518
919.383	14587
919.494	14724
919.604	14880
919.715	14648
919.826	14564
919.936	14575
920.047	14640
920.157	14602
920.267	14842
920.378	14720
920.488	14606
920.598	14735
920.708	14956
920.818	14819
920.928	14762
921.038	14914
921.148	14849
921.258	14602
921.368	14583
921.477	14381
921.587	14332
921.697	14206
921.806	14415
921.916	14221
922.025	14119
922.134	14065
922.244	13989
922.353	14031
922.462	13963
922.571	13879
922.68	13700
922.789	13715
922.898	13689
923.007	13590
923.116	13696
923.224	13582
923.333	13643
923.442	13491
923.55	13514
923.659	13525
923.767	13616
923.876	13506
923.984	13499
924.092	13426
924.201	13480
924.309	13362
924.417	13377
924.525	13278
924.633	13278
924.741	14244
924.849	13107
924.956	13324
925.064	13076
925.172	12970
925.279	13012
925.387	13080
925.494	13122
925.602	13145
925.709	13061
925.816	12958
925.924	12924
926.031	13118
926.138	13015
926.245	13095
926.352	12993
926.459	12924
926.566	13019
926.673	12954
926.779	12772
926.886	12825
926.993	12745
927.099	12620
927.206	12601
927.312	12486
927.419	12700
927.525	12620
927.631	12703
927.737	12448
927.843	12445
927.95	12304
928.056	12395
928.162	12506
928.267	12486
928.373	13095
928.479	12498
928.585	12285
928.69	12350
928.796	12479
928.901	12304
929.007	12102
929.112	12277
929.218	12327
929.323	12216
929.428	12068
929.533	12209
929.638	12072
929.743	12133
929.848	12148
929.953	12110
930.058	12045
930.163	11859
930.267	11889
930.372	11954
930.477	11863
930.581	12011
930.685	11866
930.79	11726
930.894	11726
930.998	11695
931.103	11809
931.207	11608
931.311	11414
931.415	11356
931.519	11105
931.623	11067
