Data from test_V78500241_548.txt Node
Date: Fri Mar 25 15:13:40 CST 2022
User: usil
Spectrometer: V785-0024
Trigger mode: 0
Integration Time (sec): 4.000000E-1
Scans to average: 1
Nonlinearity correction enabled: false
Boxcar width: 0
Storing dark spectrum: false
XAxis mode: Wavelengths
Number of Pixels in Spectrum: 1024
>>>>>Begin Spectral Data<<<<<
801.071	27001
801.214	27013
801.356	26876
801.499	26815
801.641	26659
801.783	26712
801.926	26598
802.068	26575
802.211	26545
802.353	26385
802.496	26210
802.638	26153
802.78	26218
802.923	26237
803.065	26031
803.208	26077
803.35	26237
803.492	26240
803.635	26347
803.777	26229
803.919	26377
804.061	26648
804.204	26385
804.346	26172
804.488	26176
804.63	26385
804.773	26214
804.915	26324
805.057	26434
805.199	26324
805.341	26374
805.483	26446
805.626	26423
805.768	26431
805.91	26362
806.052	26442
806.194	26396
806.336	26739
806.478	26480
806.62	26301
806.762	26537
806.904	26746
807.046	27039
807.188	26880
807.33	26754
807.472	26933
807.614	26693
807.756	26883
807.898	26743
808.04	26632
808.182	26651
808.324	26765
808.465	26727
808.607	26963
808.749	26937
808.891	26986
809.033	27108
809.174	27154
809.316	27039
809.458	27150
809.6	27127
809.741	27291
809.883	27032
810.025	27302
810.166	27173
810.308	27469
810.45	27382
810.591	27325
810.733	27066
810.875	27074
811.016	26842
811.158	27005
811.299	27127
811.441	27142
811.582	27017
811.724	27135
811.865	26963
812.007	27036
812.148	26902
812.29	27066
812.431	27233
812.573	27412
812.714	27488
812.855	27488
812.997	27709
813.138	27869
813.279	27797
813.421	27622
813.562	27515
813.703	27344
813.845	27241
813.986	27017
814.127	26758
814.268	26708
814.41	26750
814.551	26712
814.692	26686
814.833	26609
814.974	26579
815.115	26788
815.256	26693
815.397	26594
815.539	26659
815.68	26480
815.821	26507
815.962	26415
816.103	26495
816.244	26377
816.385	26381
816.526	26256
816.666	25978
816.807	25898
816.948	25917
817.089	26263
817.23	26016
817.371	26001
817.512	26001
817.653	26016
817.793	25947
817.934	26024
818.075	25986
818.216	25917
818.356	25906
818.497	25966
818.638	25742
818.778	25757
818.919	25761
819.06	25567
819.2	25837
819.341	26005
819.481	25940
819.622	26058
819.762	26153
819.903	26229
820.043	26172
820.184	26073
820.324	25955
820.465	26153
820.605	26058
820.746	26073
820.886	25955
821.026	26062
821.167	25947
821.307	26138
821.447	26043
821.588	25875
821.728	25864
821.868	25571
822.008	25358
822.149	25479
822.289	25335
822.429	25076
822.569	25209
822.709	25171
822.849	24875
822.99	24981
823.13	24875
823.27	24909
823.41	24806
823.55	24593
823.69	24837
823.83	24833
823.97	24604
824.11	24479
824.25	24509
824.389	24490
824.529	24639
824.669	24555
824.809	24639
824.949	24635
825.089	24795
825.228	24635
825.368	24407
825.508	24429
825.648	24464
825.787	24505
825.927	24426
826.067	24410
826.206	24403
826.346	24399
826.485	24456
826.625	24327
826.765	24681
826.904	24445
827.044	24258
827.183	24117
827.323	24057
827.462	24258
827.601	24136
827.741	24102
827.88	24201
828.02	24087
828.159	24155
828.298	24178
828.437	24304
828.577	24034
828.716	24194
828.855	24098
828.994	23866
829.134	23942
829.273	24038
829.412	23847
829.551	23752
829.69	23916
829.829	23726
829.968	23923
830.107	23980
830.246	23912
830.385	23843
830.524	23623
830.663	23638
830.802	23589
830.941	23509
831.08	23387
831.219	23539
831.357	23585
831.496	23676
831.635	23474
831.774	23341
831.913	23474
832.051	23379
832.19	23311
832.329	23303
832.467	23090
832.606	23025
832.744	23098
832.883	23143
833.022	23204
833.16	22976
833.299	23117
833.437	23227
833.576	23181
833.714	23090
833.852	23280
833.991	23261
834.129	23303
834.267	23334
834.406	23216
834.544	23330
834.682	23200
834.821	23185
834.959	23387
835.097	23052
835.235	23223
835.373	23124
835.511	23246
835.65	23014
835.788	22991
835.926	22889
836.064	22858
836.202	23014
836.34	23124
836.478	23025
836.615	22965
836.753	22949
836.891	22915
837.029	23064
837.167	23037
837.305	23044
837.443	23003
837.58	22927
837.718	22961
837.856	22896
837.993	22824
838.131	22927
838.269	22786
838.406	22850
838.544	22847
838.681	22729
838.819	22508
838.956	22478
839.094	22402
839.231	22459
839.369	22588
839.506	22915
839.643	22733
839.781	22337
839.918	22341
840.055	22417
840.193	22314
840.33	22284
840.467	22337
840.604	22390
840.742	22626
840.879	22211
841.016	22314
841.153	22158
841.29	22185
841.427	22325
841.564	22382
841.701	22325
841.838	22257
841.975	22219
842.112	22219
842.249	22086
842.385	22135
842.522	22276
842.659	22150
842.796	22086
842.933	22162
843.069	21964
843.206	21945
843.343	22082
843.479	22109
843.616	22109
843.752	21975
843.889	21850
844.025	22017
844.162	21816
844.298	21922
844.435	21759
844.571	21827
844.708	21876
844.844	21975
844.98	22090
845.117	21968
845.253	21812
845.389	21675
845.525	21625
845.661	21641
845.798	21720
845.934	21690
846.07	21534
846.206	21583
846.342	21568
846.478	21633
846.614	21378
846.75	21412
846.886	21241
847.022	21321
847.158	21336
847.294	21378
847.429	21386
847.565	21329
847.701	21507
847.837	21119
847.972	20971
848.108	21157
848.244	21138
848.379	21005
848.515	20887
848.65	21017
848.786	20891
848.921	20960
849.057	21074
849.192	21036
849.328	20880
849.463	20834
849.598	20834
849.734	20804
849.869	20754
850.004	20651
850.14	20678
850.275	20746
850.41	20514
850.545	20644
850.68	20800
850.815	20754
850.95	20655
851.085	20914
851.22	20857
851.355	20705
851.49	20807
851.625	20590
851.76	20606
851.895	20469
852.03	20613
852.165	20636
852.299	20727
852.434	20792
852.569	20830
852.703	20773
852.838	20762
852.973	20902
853.107	20880
853.242	20587
853.376	20667
853.511	20415
853.645	20480
853.78	20526
853.914	20495
854.048	20552
854.183	20339
854.317	20469
854.451	20716
854.585	20530
854.72	20469
854.854	20522
854.988	20400
855.122	20545
855.256	20358
855.39	20404
855.524	20617
855.658	20682
855.792	20571
855.926	20499
856.06	20594
856.194	20609
856.327	20522
856.461	20492
856.595	20556
856.729	20564
856.862	20533
856.996	20560
857.13	20644
857.263	20640
857.397	20613
857.53	20530
857.664	20602
857.797	20583
857.931	20632
858.064	20480
858.197	20526
858.331	20514
858.464	20427
858.597	20347
858.731	20514
858.864	20484
858.997	20457
859.13	20480
859.263	20454
859.396	20492
859.529	20518
859.662	20431
859.795	20537
859.928	20537
860.061	20697
860.194	20689
860.327	20579
860.46	20454
860.592	20602
860.725	20651
860.858	20648
860.99	20533
861.123	20431
861.256	20423
861.388	20507
861.521	21127
861.653	20256
861.786	20320
861.918	20351
862.05	20381
862.183	20484
862.315	20556
862.447	20583
862.58	20374
862.712	20278
862.844	20237
862.976	20442
863.108	20225
863.24	20568
863.372	20149
863.504	20256
863.636	20115
863.768	20233
863.9	20221
864.032	20229
864.164	20149
864.296	20199
864.428	20202
864.559	20256
864.691	20298
864.823	20256
864.954	20218
865.086	20168
865.217	20248
865.349	20153
865.48	20081
865.612	20267
865.743	20267
865.875	20149
866.006	20077
866.137	20111
866.269	20111
866.4	20073
866.531	20111
866.662	19982
866.793	20130
866.924	20050
867.055	20115
867.186	20084
867.317	20050
867.448	20024
867.579	20084
867.71	19925
867.841	19909
867.972	20088
868.103	20073
868.233	19997
868.364	20092
868.495	20271
868.625	20225
868.756	20454
868.886	20294
869.017	20374
869.147	20465
869.278	20396
869.408	20301
869.539	20305
869.669	20328
869.799	20290
869.929	20507
870.06	20457
870.19	20484
870.32	20579
870.45	20667
870.58	20689
870.71	20857
870.84	20777
870.97	20701
871.1	20556
871.23	20864
871.36	20948
871.489	20868
871.619	20895
871.749	20933
871.879	20952
872.008	21119
872.138	20929
872.267	20788
872.397	20819
872.526	20724
872.656	20617
872.785	20720
872.915	20910
873.044	21032
873.173	20887
873.303	20994
873.432	21089
873.561	21096
873.69	21032
873.819	21017
873.948	21028
874.077	20906
874.206	20883
874.335	21093
874.464	20967
874.593	21119
874.722	21104
874.851	21294
874.979	21241
875.108	21173
875.237	21157
875.365	21176
875.494	21127
875.623	21211
875.751	21135
875.88	21264
876.008	21256
876.136	21302
876.265	21576
876.393	21720
876.521	21663
876.65	21587
876.778	21587
876.906	21488
877.034	21523
877.162	21500
877.29	21469
877.418	21466
877.546	21530
877.674	21591
877.802	21625
877.93	21500
878.058	21481
878.185	21359
878.313	21595
878.441	21485
878.568	21306
878.696	21435
878.824	21507
878.951	21641
879.079	21648
879.206	21781
879.333	21682
879.461	21622
879.588	21652
879.715	21705
879.842	21835
879.97	21557
880.097	21443
880.224	21272
880.351	21348
880.478	21351
880.605	21302
880.732	21355
880.859	21447
880.986	21386
881.112	21340
881.239	21249
881.366	21135
881.493	20982
881.619	20937
881.746	20899
881.872	20941
881.999	20918
882.125	20845
882.252	21001
882.378	20826
882.505	21074
882.631	20857
882.757	20701
882.883	20804
883.01	20583
883.136	20735
883.262	20484
883.388	20347
883.514	20781
883.64	20773
883.766	20549
883.892	20412
884.018	20507
884.143	20484
884.269	20667
884.395	20511
884.52	20256
884.646	20385
884.772	20111
884.897	20248
885.023	20252
885.148	20469
885.274	20358
885.399	20381
885.524	20332
885.65	20252
885.775	20248
885.9	20259
886.025	20480
886.15	20362
886.275	20229
886.4	20100
886.525	20248
886.65	20298
886.775	20218
886.9	20339
887.025	20579
887.149	20290
887.274	20142
887.399	20073
887.523	20145
887.648	19989
887.773	19883
887.897	20229
888.021	19982
888.146	20096
888.27	20031
888.395	20199
888.519	19967
888.643	20168
888.767	20168
888.891	19909
889.015	19837
889.139	20065
889.263	19864
889.387	19986
889.511	20054
889.635	20016
889.759	19811
889.883	19833
890.006	19967
890.13	19932
890.254	19906
890.377	19833
890.501	19609
890.624	19685
890.748	19635
890.871	19544
890.995	19312
891.118	19339
891.241	19377
891.364	19521
891.488	19586
891.611	19434
891.734	19457
891.857	19506
891.98	19521
892.103	19438
892.226	19438
892.349	19335
892.471	19263
892.594	19441
892.717	19293
892.839	19396
892.962	19396
893.085	19472
893.207	19346
893.33	19289
893.452	19354
893.575	19449
893.697	19331
893.819	19575
893.941	19544
894.064	19407
894.186	19335
894.308	19320
894.43	19476
894.552	19480
894.674	19480
894.796	19270
894.918	19392
895.04	19362
895.161	19457
895.283	19324
895.405	19274
895.526	19434
895.648	19354
895.769	19396
895.891	19369
896.012	19339
896.134	19453
896.255	19384
896.376	19438
896.498	19396
896.619	19426
896.74	19453
896.861	19529
896.982	19753
897.103	19921
897.224	19731
897.345	19586
897.466	19624
897.587	19643
897.708	19788
897.828	19647
897.949	19571
898.07	19449
898.19	19620
898.311	19586
898.431	19556
898.552	19567
898.672	19635
898.792	19635
898.913	19685
899.033	19563
899.153	19457
899.273	19407
899.393	19422
899.513	19514
899.633	19335
899.753	19441
899.873	19289
899.993	19441
900.113	19362
900.232	19308
900.352	19377
900.472	19289
900.591	19129
900.711	19164
900.83	19053
900.95	19282
901.069	19377
901.189	19110
901.308	18833
901.427	18741
901.546	18783
901.665	18814
901.784	18745
901.904	18722
902.023	18517
902.141	18369
902.26	18285
902.379	18330
902.498	18372
902.617	18228
902.735	18338
902.854	18182
902.973	18190
903.091	18038
903.21	17977
903.328	17946
903.446	17821
903.565	17729
903.683	17817
903.801	17691
903.919	17714
904.038	17817
904.156	17566
904.274	17638
904.392	17547
904.51	17562
904.627	17592
904.745	17604
904.863	17672
904.981	17254
905.098	17166
905.216	17231
905.334	17296
905.451	17193
905.569	17231
905.686	17284
905.803	17147
905.921	17079
906.038	17109
906.155	17052
906.272	16972
906.389	17052
906.506	16778
906.623	16850
906.74	16763
906.857	16660
906.974	16660
907.091	16847
907.208	16828
907.324	16713
907.441	16713
907.557	16466
907.674	16481
907.79	16379
907.907	16447
908.023	16592
908.139	16497
908.256	16363
908.372	16352
908.488	16394
908.604	16303
908.72	16166
908.836	16196
908.952	16116
909.068	16211
909.184	16348
909.3	16154
909.415	16139
909.531	16154
909.647	15987
909.762	15922
909.878	15960
909.993	15975
910.108	15930
910.224	15903
910.339	15812
910.454	15869
910.57	15838
910.685	15606
910.8	16010
910.915	15892
911.03	15800
911.145	15622
911.259	15526
911.374	15629
911.489	15496
911.604	15443
911.718	15260
911.833	15260
911.947	15306
912.062	15116
912.176	15207
912.291	15370
912.405	15211
912.519	15386
912.633	15488
912.748	15348
912.862	15283
912.976	15192
913.09	14941
913.204	15070
913.318	15062
913.431	15142
913.545	15173
913.659	15245
913.772	15013
913.886	15001
914	14785
914.113	15028
914.226	14952
914.34	14952
914.453	14857
914.566	14998
914.68	14880
914.793	14800
914.906	14564
915.019	14564
915.132	14495
915.245	14499
915.358	14530
915.47	14461
915.583	14663
915.696	14590
915.809	14632
915.921	14682
916.034	14465
916.146	14461
916.259	14393
916.371	14537
916.483	14469
916.595	14366
916.708	14423
916.82	14298
916.932	14347
917.044	14309
917.156	14275
917.268	14202
917.38	14240
917.491	14275
917.603	14282
917.715	14263
917.826	14370
917.938	14244
918.049	14077
918.161	14161
918.272	14301
918.384	14229
918.495	14103
918.606	14043
918.717	13921
918.828	13986
918.939	14096
919.05	13811
919.161	14050
919.272	13723
919.383	13719
919.494	14035
919.604	14202
919.715	14001
919.826	13864
919.936	13860
920.047	13963
920.157	14012
920.267	14149
920.378	13978
920.488	13963
920.598	14050
920.708	14153
920.818	14126
920.928	14164
921.038	14290
921.148	14221
921.258	13951
921.368	13841
921.477	13685
921.587	13689
921.697	13571
921.806	13731
921.916	13563
922.025	13384
922.134	13354
922.244	13304
922.353	13324
922.462	13373
922.571	13137
922.68	13080
922.789	13057
922.898	12962
923.007	12962
923.116	13038
923.224	12935
923.333	12954
923.442	12905
923.55	12829
923.659	12837
923.767	12920
923.876	12829
923.984	12814
924.092	12639
924.201	12715
924.309	12753
924.417	12757
924.525	12677
924.633	12707
924.741	13464
924.849	12566
924.956	12654
925.064	12532
925.172	12441
925.279	12460
925.387	12532
925.494	12517
925.602	12547
925.709	12498
925.816	12376
925.924	12380
926.031	12525
926.138	12323
926.245	12494
926.352	12315
926.459	12509
926.566	12513
926.673	12357
926.779	12251
926.886	12140
926.993	12175
927.099	11984
927.206	12049
927.312	12038
927.419	12041
927.525	12072
927.631	12129
927.737	11950
927.843	11923
927.95	11703
928.056	11840
928.162	11935
928.267	11927
928.373	12376
928.479	11927
928.585	11775
928.69	11779
928.796	11999
928.901	11707
929.007	11638
929.112	11779
929.218	11733
929.323	11592
929.428	11630
929.533	11691
929.638	11573
929.743	11551
929.848	11562
929.953	11547
930.058	11486
930.163	11296
930.267	11383
930.372	11474
930.477	11242
930.581	11448
930.685	11379
930.79	11246
930.894	11216
930.998	11185
931.103	11261
931.207	10976
931.311	10908
931.415	10790
931.519	10672
931.623	10611
