Data from test_V78500241_2927.txt Node
Date: Fri Mar 25 15:30:14 CST 2022
User: usil
Spectrometer: V785-0024
Trigger mode: 0
Integration Time (sec): 4.000000E-1
Scans to average: 1
Nonlinearity correction enabled: false
Boxcar width: 0
Storing dark spectrum: false
XAxis mode: Wavelengths
Number of Pixels in Spectrum: 1024
>>>>>Begin Spectral Data<<<<<
801.071	27165
801.214	27055
801.356	26937
801.499	26940
801.641	26842
801.783	26705
801.926	26925
802.068	26868
802.211	26712
802.353	26720
802.496	26568
802.638	26465
802.78	26434
802.923	26400
803.065	26423
803.208	26252
803.35	26514
803.492	26625
803.635	26560
803.777	26473
803.919	26579
804.061	26899
804.204	26716
804.346	26613
804.488	26526
804.63	26518
804.773	26450
804.915	26670
805.057	26682
805.199	26514
805.341	26655
805.483	26708
805.626	26712
805.768	26590
805.91	26739
806.052	26682
806.194	26602
806.336	26902
806.478	26712
806.62	26625
806.762	26765
806.904	26960
807.046	27211
807.188	26979
807.33	27351
807.472	27154
807.614	26986
807.756	26967
807.898	26952
808.04	26937
808.182	26899
808.324	26906
808.465	26998
808.607	27199
808.749	27351
808.891	27485
809.033	27523
809.174	27401
809.316	27325
809.458	27481
809.6	27298
809.741	27321
809.883	27473
810.025	27637
810.166	27530
810.308	27641
810.45	27568
810.591	27671
810.733	27348
810.875	27462
811.016	27150
811.158	27313
811.299	27431
811.441	27500
811.582	27557
811.724	27336
811.865	27382
812.007	27241
812.148	27329
812.29	27374
812.431	27401
812.573	27447
812.714	27789
812.855	27743
812.997	27903
813.138	28067
813.279	27914
813.421	27827
813.562	27660
813.703	27739
813.845	27599
813.986	27222
814.127	27146
814.268	26880
814.41	26975
814.551	26975
814.692	27001
814.833	26868
814.974	26872
815.115	26967
815.256	26754
815.397	26811
815.539	26842
815.68	26769
815.821	26689
815.962	26735
816.103	26788
816.244	26655
816.385	26564
816.526	26511
816.666	26206
816.807	26244
816.948	26214
817.089	26271
817.23	26240
817.371	26309
817.512	26145
817.653	26252
817.793	26271
817.934	26206
818.075	26050
818.216	26317
818.356	26168
818.497	26081
818.638	26046
818.778	25966
818.919	25940
819.06	26069
819.2	25944
819.341	26107
819.481	26210
819.622	26355
819.762	26686
819.903	26507
820.043	26328
820.184	26355
820.324	26263
820.465	26237
820.605	26240
820.746	26343
820.886	26126
821.026	26324
821.167	26263
821.307	26431
821.447	26298
821.588	26153
821.728	26050
821.868	25928
822.008	25681
822.149	25647
822.289	25651
822.429	25304
822.569	25453
822.709	25381
822.849	25285
822.99	25183
823.13	25213
823.27	25118
823.41	25091
823.55	24882
823.69	25057
823.83	24951
823.97	24878
824.11	24783
824.25	24814
824.389	24696
824.529	24935
824.669	24829
824.809	24768
824.949	24894
825.089	24863
825.228	24977
825.368	24741
825.508	24665
825.648	24612
825.787	24738
825.927	24669
826.067	24703
826.206	24681
826.346	24760
826.485	24741
826.625	24646
826.765	24707
826.904	24722
827.044	24563
827.183	24570
827.323	24395
827.462	24350
827.601	24262
827.741	24330
827.88	24505
828.02	24365
828.159	24308
828.298	24357
828.437	24407
828.577	24346
828.716	24498
828.855	24311
828.994	24144
829.134	24011
829.273	24140
829.412	23973
829.551	23954
829.69	24133
829.829	24007
829.968	24011
830.107	24159
830.246	24144
830.385	24041
830.524	23980
830.663	23904
830.802	23764
830.941	23722
831.08	23642
831.219	23630
831.357	23767
831.496	23999
831.635	23786
831.774	23581
831.913	23684
832.051	23528
832.19	23436
832.329	23562
832.467	23455
832.606	23223
832.744	23318
832.883	23284
833.022	23273
833.16	23299
833.299	23315
833.437	23410
833.576	23425
833.714	23539
833.852	23421
833.991	23349
834.129	23410
834.267	23448
834.406	23414
834.544	23360
834.682	23406
834.821	23429
834.959	23490
835.097	23349
835.235	23486
835.373	23505
835.511	23299
835.65	23231
835.788	23235
835.926	23159
836.064	23086
836.202	23006
836.34	23185
836.478	23299
836.615	23185
836.753	23250
836.891	23311
837.029	23185
837.167	23132
837.305	23140
837.443	23174
837.58	23117
837.718	23079
837.856	23037
837.993	22946
838.131	23155
838.269	23025
838.406	22869
838.544	22934
838.681	22717
838.819	22675
838.956	22504
839.094	22607
839.231	22622
839.369	22736
839.506	22965
839.643	22767
839.781	22698
839.918	22333
840.055	22618
840.193	22474
840.33	22489
840.467	22436
840.604	22485
840.742	22771
840.879	22424
841.016	22512
841.153	22337
841.29	22519
841.427	22344
841.564	22519
841.701	22451
841.838	22447
841.975	22474
842.112	22371
842.249	22284
842.385	22306
842.522	22504
842.659	22360
842.796	22268
842.933	22230
843.069	22379
843.206	22177
843.343	22223
843.479	22287
843.616	22363
843.752	22032
843.889	22082
844.025	22154
844.162	21998
844.298	22070
844.435	21960
844.571	22021
844.708	22086
844.844	22044
844.98	22128
845.117	22105
845.253	21968
845.389	21926
845.525	21941
845.661	21880
845.798	21751
845.934	21774
846.07	21701
846.206	21884
846.342	21861
846.478	21797
846.614	21473
846.75	21435
846.886	21412
847.022	21466
847.158	21568
847.294	21519
847.429	21553
847.565	21416
847.701	21701
847.837	21294
847.972	21184
848.108	21256
848.244	21336
848.379	21104
848.515	21032
848.65	21055
848.786	21180
848.921	21192
849.057	21230
849.192	21176
849.328	21070
849.463	21135
849.598	21146
849.734	21047
849.869	20929
850.004	20971
850.14	20842
850.275	20845
850.41	20834
850.545	20788
850.68	20811
850.815	20864
850.95	20800
851.085	21058
851.22	20861
851.355	20796
851.49	20876
851.625	20834
851.76	20800
851.895	20785
852.03	20743
852.165	20727
852.299	20872
852.434	20899
852.569	20823
852.703	20868
852.838	20921
852.973	21051
853.107	21009
853.242	20762
853.376	20583
853.511	20545
853.645	20644
853.78	20655
853.914	20682
854.048	20667
854.183	20629
854.317	20735
854.451	20823
854.585	20667
854.72	20621
854.854	20716
854.988	20689
855.122	20678
855.256	20476
855.39	20735
855.524	20758
855.658	20720
855.792	20682
855.926	20644
856.06	20667
856.194	20739
856.327	20594
856.461	20511
856.595	20480
856.729	20632
856.862	20731
856.996	20689
857.13	20746
857.263	20826
857.397	20765
857.53	20648
857.664	20598
857.797	20765
857.931	20785
858.064	20720
858.197	20800
858.331	20667
858.464	20625
858.597	20606
858.731	20609
858.864	20514
858.997	20587
859.13	20811
859.263	20758
859.396	20724
859.529	20621
859.662	20541
859.795	20651
859.928	20629
860.061	20727
860.194	20861
860.327	20625
860.46	20716
860.592	20712
860.725	20876
860.858	20864
860.99	20697
861.123	20606
861.256	20514
861.388	20659
861.521	21294
861.653	20454
861.786	20370
861.918	20423
862.05	20526
862.183	20518
862.315	20689
862.447	20648
862.58	20663
862.712	20339
862.844	20396
862.976	20590
863.108	20598
863.24	20918
863.372	20389
863.504	20419
863.636	20408
863.768	20415
863.9	20374
864.032	20377
864.164	20317
864.296	20374
864.428	20427
864.559	20446
864.691	20339
864.823	20473
864.954	20290
865.086	20317
865.217	20320
865.349	20183
865.48	20267
865.612	20355
865.743	20377
865.875	20309
866.006	20229
866.137	20286
866.269	20221
866.4	20419
866.531	20225
866.662	20237
866.793	20298
866.924	20199
867.055	20214
867.186	20248
867.317	20282
867.448	20142
867.579	20172
867.71	20183
867.841	20100
867.972	20130
868.103	20157
868.233	20294
868.364	20282
868.495	20328
868.625	20419
868.756	20579
868.886	20408
869.017	20469
869.147	20632
869.278	20632
869.408	20457
869.539	20427
869.669	20556
869.799	20518
869.929	20594
870.06	20644
870.19	20845
870.32	20697
870.45	20800
870.58	20792
870.71	20941
870.84	21001
870.97	20982
871.1	20842
871.23	21024
871.36	21119
871.489	20971
871.619	21085
871.749	21032
871.879	21211
872.008	21233
872.138	21116
872.267	21119
872.397	21001
872.526	20819
872.656	20967
872.785	20929
872.915	21055
873.044	21207
873.173	21074
873.303	21013
873.432	21233
873.561	21233
873.69	21188
873.819	21043
873.948	21150
874.077	21077
874.206	21077
874.335	20960
874.464	21268
874.593	21389
874.722	21233
874.851	21336
874.979	21348
875.108	21443
875.237	21355
875.365	21298
875.494	21389
875.623	21287
875.751	21321
875.88	21241
876.008	21500
876.136	21431
876.265	21690
876.393	21903
876.521	21785
876.65	21857
876.778	21686
876.906	21709
877.034	21736
877.162	21652
877.29	21644
877.418	21739
877.546	21705
877.674	21675
877.802	21591
877.93	21652
878.058	21564
878.185	21591
878.313	21568
878.441	21625
878.568	21401
878.696	21644
878.824	21781
878.951	21751
879.079	21880
879.206	22006
879.333	21736
879.461	21762
879.588	21899
879.715	21861
879.842	21831
879.97	21705
880.097	21587
880.224	21538
880.351	21542
880.478	21603
880.605	21454
880.732	21561
880.859	21701
880.986	21724
881.112	21606
881.239	21237
881.366	21344
881.493	21123
881.619	21100
881.746	21184
881.872	21066
881.999	21020
882.125	20979
882.252	21192
882.378	21009
882.505	21123
882.631	20982
882.757	20750
882.883	20842
883.01	20743
883.136	20826
883.262	20613
883.388	20629
883.514	20842
883.64	20838
883.766	20735
883.892	20575
884.018	20636
884.143	20701
884.269	20815
884.395	20598
884.52	20358
884.646	20431
884.772	20415
884.897	20370
885.023	20400
885.148	20552
885.274	20617
885.399	20579
885.524	20446
885.65	20488
885.775	20514
885.9	20423
886.025	20442
886.15	20613
886.275	20434
886.4	20393
886.525	20301
886.65	20336
886.775	20313
886.9	20492
887.025	20667
887.149	20339
887.274	20275
887.399	20313
887.523	20202
887.648	20107
887.773	20138
887.897	20267
888.021	20282
888.146	20233
888.27	20332
888.395	20275
888.519	20259
888.643	20328
888.767	20248
888.891	20225
889.015	20016
889.139	20180
889.263	20024
889.387	20161
889.511	20195
889.635	20187
889.759	19860
889.883	19902
890.006	20058
890.13	20027
890.254	19947
890.377	19913
890.501	19765
890.624	19761
890.748	19898
890.871	19780
890.995	19548
891.118	19575
891.241	19480
891.364	19643
891.488	19696
891.611	19681
891.734	19567
891.857	19677
891.98	19597
892.103	19582
892.226	19575
892.349	19533
892.471	19293
892.594	19586
892.717	19616
892.839	19464
892.962	19544
893.085	19430
893.207	19624
893.33	19422
893.452	19453
893.575	19556
893.697	19556
893.819	19670
893.941	19765
894.064	19696
894.186	19441
894.308	19460
894.43	19559
894.552	19670
894.674	19647
894.796	19499
894.918	19563
895.04	19495
895.161	19529
895.283	19590
895.405	19400
895.526	19521
895.648	19571
895.769	19563
895.891	19537
896.012	19548
896.134	19575
896.255	19609
896.376	19540
896.498	19521
896.619	19563
896.74	19548
896.861	19655
896.982	19970
897.103	19986
897.224	19833
897.345	19784
897.466	19750
897.587	19689
897.708	19936
897.828	19883
897.949	19769
898.07	19647
898.19	19731
898.311	19871
898.431	19685
898.552	19753
898.672	19799
898.792	19883
898.913	19852
899.033	19731
899.153	19605
899.273	19590
899.393	19586
899.513	19559
899.633	19609
899.753	19419
899.873	19525
899.993	19472
900.113	19563
900.232	19464
900.352	19506
900.472	19354
900.591	19381
900.711	19358
900.83	19331
900.95	19499
901.069	19419
901.189	19293
901.308	18958
901.427	19031
901.546	19050
901.665	18993
901.784	19038
901.904	18837
902.023	18795
902.141	18540
902.26	18467
902.379	18547
902.498	18422
902.617	18429
902.735	18544
902.854	18460
902.973	18369
903.091	18167
903.21	18167
903.328	18133
903.446	18125
903.565	17942
903.683	18011
903.801	17893
903.919	17847
904.038	17901
904.156	17695
904.274	17843
904.392	17642
904.51	17608
904.627	17710
904.745	17783
904.863	17661
904.981	17516
905.098	17383
905.216	17398
905.334	17520
905.451	17376
905.569	17410
905.686	17463
905.803	17414
905.921	17220
906.038	17277
906.155	17265
906.272	17018
906.389	17208
906.506	16942
906.623	16987
906.74	16930
906.857	16999
906.974	16793
907.091	17022
907.208	17067
907.324	16927
907.441	16790
907.557	16710
907.674	16580
907.79	16554
907.907	16634
908.023	16702
908.139	16637
908.256	16584
908.372	16519
908.488	16485
908.604	16367
908.72	16394
908.836	16382
908.952	16413
909.068	16443
909.184	16485
909.3	16310
909.415	16451
909.531	16318
909.647	16185
909.762	16147
909.878	16040
909.993	16097
910.108	16006
910.224	16059
910.339	16109
910.454	15964
910.57	15899
910.685	15797
910.8	16082
910.915	16044
911.03	15895
911.145	15804
911.259	15679
911.374	15618
911.489	15603
911.604	15553
911.718	15431
911.833	15466
911.947	15386
912.062	15245
912.176	15439
912.291	15393
912.405	15576
912.519	15587
912.633	15549
912.748	15492
912.862	15401
912.976	15325
913.09	15077
913.204	15298
913.318	15340
913.431	15359
913.545	15294
913.659	15344
913.772	15237
913.886	15135
914	15005
914.113	15100
914.226	15188
914.34	15138
914.453	14998
914.566	15112
914.68	14933
914.793	14834
914.906	14746
915.019	14689
915.132	14659
915.245	14644
915.358	14804
915.47	14640
915.583	14743
915.696	14617
915.809	14788
915.921	14796
916.034	14705
916.146	14644
916.259	14613
916.371	14735
916.483	14587
916.595	14446
916.708	14560
916.82	14381
916.932	14473
917.044	14476
917.156	14480
917.268	14442
917.38	14400
917.491	14275
917.603	14324
917.715	14339
917.826	14473
917.938	14290
918.049	14202
918.161	14275
918.272	14438
918.384	14537
918.495	14396
918.606	14157
918.717	14180
918.828	14088
918.939	14221
919.05	14031
919.161	14039
919.272	13936
919.383	13879
919.494	14161
919.604	14313
919.715	14153
919.826	14001
919.936	14077
920.047	14183
920.157	14107
920.267	14256
920.378	14111
920.488	14020
920.598	14221
920.708	14370
920.818	14168
920.928	14176
921.038	14336
921.148	14374
921.258	14073
921.368	13879
921.477	13833
921.587	13906
921.697	13662
921.806	13791
921.916	13795
922.025	13499
922.134	13540
922.244	13453
922.353	13540
922.462	13346
922.571	13202
922.68	13133
922.789	13080
922.898	13171
923.007	13057
923.116	13084
923.224	13084
923.333	12996
923.442	12985
923.55	12920
923.659	12981
923.767	13053
923.876	12878
923.984	12989
924.092	12856
924.201	12909
924.309	12878
924.417	12897
924.525	12753
924.633	12783
924.741	13727
924.849	12585
924.956	12749
925.064	12658
925.172	12521
925.279	12551
925.387	12623
925.494	12547
925.602	12707
925.709	12673
925.816	12502
925.924	12582
926.031	12658
926.138	12521
926.245	12563
926.352	12452
926.459	12471
926.566	12566
926.673	12486
926.779	12338
926.886	12361
926.993	12232
927.099	12155
927.206	12117
927.312	12167
927.419	12144
927.525	12152
927.631	12205
927.737	12060
927.843	12038
927.95	11920
928.056	11996
928.162	12072
928.267	11984
928.373	12700
928.479	12026
928.585	11863
928.69	11961
928.796	11980
928.901	11851
929.007	11775
929.112	11889
929.218	11809
929.323	11771
929.428	11688
929.533	11817
929.638	11642
929.743	11672
929.848	11691
929.953	11668
930.058	11611
930.163	11337
930.267	11391
930.372	11490
930.477	11421
930.581	11547
930.685	11486
930.79	11326
930.894	11265
930.998	11254
931.103	11505
931.207	11014
931.311	10987
931.415	10949
931.519	10668
931.623	10740
