Data from test_V78500241_279.txt Node
Date: Fri Mar 25 15:11:48 CST 2022
User: usil
Spectrometer: V785-0024
Trigger mode: 0
Integration Time (sec): 4.000000E-1
Scans to average: 1
Nonlinearity correction enabled: false
Boxcar width: 0
Storing dark spectrum: false
XAxis mode: Wavelengths
Number of Pixels in Spectrum: 1024
>>>>>Begin Spectral Data<<<<<
801.071	27648
801.214	27580
801.356	27306
801.499	27393
801.641	27154
801.783	27237
801.926	27214
802.068	27096
802.211	27135
802.353	27036
802.496	26857
802.638	26838
802.78	26815
802.923	26796
803.065	26678
803.208	26727
803.35	26815
803.492	26906
803.635	26994
803.777	26895
803.919	26899
804.061	27108
804.204	26998
804.346	26948
804.488	26830
804.63	26826
804.773	26769
804.915	26887
805.057	26948
805.199	26834
805.341	27039
805.483	27096
805.626	26971
805.768	26921
805.91	26937
806.052	27112
806.194	26864
806.336	27173
806.478	27051
806.62	27043
806.762	27032
806.904	27222
807.046	27515
807.188	27313
807.33	27416
807.472	27416
807.614	27302
807.756	27359
807.898	27093
808.04	27233
808.182	27233
808.324	27260
808.465	27268
808.607	27412
808.749	27462
808.891	27629
809.033	27785
809.174	27709
809.316	27485
809.458	27523
809.6	27519
809.741	27671
809.883	27671
810.025	27804
810.166	27854
810.308	27846
810.45	27861
810.591	27793
810.733	27523
810.875	27523
811.016	27439
811.158	27526
811.299	27439
811.441	27667
811.582	27679
811.724	27435
811.865	27515
812.007	27622
812.148	27534
812.29	27386
812.431	27561
812.573	27835
812.714	27934
812.855	27911
812.997	28090
813.138	28287
813.279	28154
813.421	28131
813.562	27979
813.703	27876
813.845	27637
813.986	27424
814.127	27302
814.268	27108
814.41	27096
814.551	27169
814.692	27241
814.833	27161
814.974	27123
815.115	27260
815.256	27077
815.397	26937
815.539	26952
815.68	26979
815.821	26883
815.962	27009
816.103	26963
816.244	26720
816.385	26773
816.526	26640
816.666	26545
816.807	26355
816.948	26366
817.089	26484
817.23	26526
817.371	26252
817.512	26469
817.653	26332
817.793	26328
817.934	26438
818.075	26328
818.216	26355
818.356	26256
818.497	26214
818.638	26016
818.778	26115
818.919	26035
819.06	26145
819.2	26195
819.341	26263
819.481	26225
819.622	26438
819.762	26583
819.903	26575
820.043	26511
820.184	26537
820.324	26339
820.465	26347
820.605	26298
820.746	26408
820.886	26263
821.026	26526
821.167	26480
821.307	26415
821.447	26309
821.588	26252
821.728	26157
821.868	25986
822.008	25826
822.149	25795
822.289	25689
822.429	25537
822.569	25502
822.709	25502
822.849	25358
822.99	25221
823.13	25297
823.27	25244
823.41	25008
823.55	25046
823.69	25038
823.83	25046
823.97	25053
824.11	24989
824.25	24821
824.389	24833
824.529	24958
824.669	24958
824.809	24947
824.949	24913
825.089	24924
825.228	24913
825.368	24620
825.508	24650
825.648	24646
825.787	24669
825.927	24810
826.067	24707
826.206	24833
826.346	24802
826.485	24871
826.625	24817
826.765	24760
826.904	24665
827.044	24494
827.183	24582
827.323	24353
827.462	24350
827.601	24376
827.741	24350
827.88	24315
828.02	24330
828.159	24391
828.298	24403
828.437	24372
828.577	24315
828.716	24486
828.855	24228
828.994	24190
829.134	24254
829.273	24205
829.412	24060
829.551	24133
829.69	24205
829.829	23954
829.968	24190
830.107	24148
830.246	24167
830.385	24015
830.524	24011
830.663	23836
830.802	23809
830.941	23771
831.08	23581
831.219	23748
831.357	23779
831.496	23901
831.635	23665
831.774	23520
831.913	23505
832.051	23391
832.19	23547
832.329	23505
832.467	23455
832.606	23410
832.744	23379
832.883	23326
833.022	23414
833.16	23364
833.299	23410
833.437	23322
833.576	23368
833.714	23414
833.852	23398
833.991	23402
834.129	23436
834.267	23474
834.406	23414
834.544	23490
834.682	23497
834.821	23330
834.959	23543
835.097	23379
835.235	23452
835.373	23341
835.511	23326
835.65	23246
835.788	23318
835.926	23140
836.064	23037
836.202	23079
836.34	23128
836.478	23296
836.615	23155
836.753	23200
836.891	23387
837.029	23261
837.167	23258
837.305	23094
837.443	23189
837.58	23098
837.718	23105
837.856	23071
837.993	23060
838.131	23014
838.269	23041
838.406	22968
838.544	22930
838.681	22824
838.819	22736
838.956	22554
839.094	22561
839.231	22634
839.369	22725
839.506	23022
839.643	22725
839.781	22485
839.918	22470
840.055	22569
840.193	22497
840.33	22417
840.467	22459
840.604	22382
840.742	22672
840.879	22215
841.016	22417
841.153	22382
841.29	22546
841.427	22451
841.564	22504
841.701	22421
841.838	22462
841.975	22466
842.112	22329
842.249	22234
842.385	22086
842.522	22443
842.659	22230
842.796	22120
842.933	22299
843.069	22257
843.206	22097
843.343	22249
843.479	22135
843.616	22154
843.752	21991
843.889	21994
844.025	22097
844.162	21926
844.298	22013
844.435	21934
844.571	21991
844.708	21991
844.844	22223
844.98	22093
845.117	22109
845.253	21880
845.389	21865
845.525	21903
845.661	21842
845.798	21739
845.934	21698
846.07	21705
846.206	21652
846.342	21880
846.478	21774
846.614	21492
846.75	21359
846.886	21374
847.022	21511
847.158	21389
847.294	21553
847.429	21431
847.565	21359
847.701	21629
847.837	21184
847.972	21203
848.108	21237
848.244	21249
848.379	21066
848.515	20990
848.65	21005
848.786	20941
848.921	20990
849.057	21093
849.192	21058
849.328	21001
849.463	20998
849.598	20899
849.734	20906
849.869	20910
850.004	20720
850.14	20743
850.275	20765
850.41	20708
850.545	20739
850.68	20792
850.815	20678
850.95	20762
851.085	20887
851.22	20823
851.355	20902
851.49	20735
851.625	20727
851.76	20701
851.895	20632
852.03	20796
852.165	20648
852.299	20765
852.434	20857
852.569	20785
852.703	20807
852.838	20800
852.973	20868
853.107	20838
853.242	20617
853.376	20636
853.511	20499
853.645	20518
853.78	20724
853.914	20625
854.048	20541
854.183	20598
854.317	20651
854.451	20750
854.585	20575
854.72	20526
854.854	20636
854.988	20533
855.122	20438
855.256	20385
855.39	20526
855.524	20583
855.658	20575
855.792	20571
855.926	20560
856.06	20503
856.194	20617
856.327	20495
856.461	20476
856.595	20385
856.729	20427
856.862	20594
856.996	20507
857.13	20571
857.263	20617
857.397	20514
857.53	20514
857.664	20640
857.797	20727
857.931	20674
858.064	20594
858.197	20693
858.331	20549
858.464	20522
858.597	20461
858.731	20488
858.864	20473
858.997	20552
859.13	20488
859.263	20598
859.396	20674
859.529	20549
859.662	20431
859.795	20442
859.928	20533
860.061	20594
860.194	20686
860.327	20716
860.46	20484
860.592	20644
860.725	20613
860.858	20617
860.99	20457
861.123	20343
861.256	20393
861.388	20552
861.521	21036
861.653	20415
861.786	20267
861.918	20362
862.05	20507
862.183	20492
862.315	20480
862.447	20648
862.58	20412
862.712	20252
862.844	20237
862.976	20229
863.108	20202
863.24	20613
863.372	20191
863.504	20252
863.636	20237
863.768	20259
863.9	20240
864.032	20050
864.164	20069
864.296	20305
864.428	20366
864.559	20263
864.691	20199
864.823	20305
864.954	20313
865.086	20138
865.217	20149
865.349	20119
865.48	20237
865.612	20195
865.743	20298
865.875	20225
866.006	20119
866.137	20176
866.269	20149
866.4	20130
866.531	20043
866.662	19955
866.793	20084
866.924	20134
867.055	20134
867.186	20065
867.317	19913
867.448	19890
867.579	20062
867.71	19955
867.841	19993
867.972	20092
868.103	20069
868.233	20142
868.364	20138
868.495	20130
868.625	20237
868.756	20366
868.886	20252
869.017	20286
869.147	20408
869.278	20495
869.408	20362
869.539	20233
869.669	20415
869.799	20351
869.929	20446
870.06	20442
870.19	20663
870.32	20651
870.45	20800
870.58	20621
870.71	20883
870.84	20781
870.97	20674
871.1	20781
871.23	20864
871.36	20891
871.489	20777
871.619	20921
871.749	20921
871.879	20883
872.008	21001
872.138	20902
872.267	20868
872.397	20796
872.526	20765
872.656	20716
872.785	20800
872.915	20979
873.044	21009
873.173	20986
873.303	20994
873.432	20872
873.561	21150
873.69	20887
873.819	21013
873.948	20982
874.077	20960
874.206	20807
874.335	20998
874.464	21001
874.593	21123
874.722	21055
874.851	21173
874.979	21313
875.108	21142
875.237	21127
875.365	21207
875.494	21020
875.623	21211
875.751	21256
875.88	21176
876.008	21264
876.136	21306
876.265	21530
876.393	21690
876.521	21610
876.65	21698
876.778	21572
876.906	21450
877.034	21435
877.162	21603
877.29	21469
877.418	21583
877.546	21488
877.674	21553
877.802	21526
877.93	21458
878.058	21519
878.185	21344
878.313	21599
878.441	21504
878.568	21386
878.696	21443
878.824	21466
878.951	21694
879.079	21724
879.206	21842
879.333	21736
879.461	21500
879.588	21595
879.715	21701
879.842	21789
879.97	21583
880.097	21264
880.224	21348
880.351	21389
880.478	21329
880.605	21154
880.732	21370
880.859	21606
880.986	21336
881.112	21450
881.239	21214
881.366	21169
881.493	20994
881.619	21001
881.746	21013
881.872	20982
881.999	20918
882.125	20800
882.252	21001
882.378	20933
882.505	21104
882.631	20819
882.757	20609
882.883	20655
883.01	20655
883.136	20644
883.262	20423
883.388	20434
883.514	20682
883.64	20678
883.766	20575
883.892	20484
884.018	20408
884.143	20644
884.269	20674
884.395	20408
884.52	20263
884.646	20237
884.772	20039
884.897	20259
885.023	20267
885.148	20389
885.274	20469
885.399	20324
885.524	20343
885.65	20244
885.775	20214
885.9	20183
886.025	20370
886.15	20446
886.275	20229
886.4	20111
886.525	20206
886.65	20225
886.775	20271
886.9	20355
887.025	20434
887.149	20191
887.274	20096
887.399	20157
887.523	20145
887.648	20054
887.773	19967
887.897	20172
888.021	20092
888.146	20069
888.27	20199
888.395	20218
888.519	20176
888.643	20111
888.767	20069
888.891	20012
889.015	19982
889.139	19906
889.263	19753
889.387	19925
889.511	20050
889.635	20050
889.759	19807
889.883	19830
890.006	19932
890.13	19970
890.254	19753
890.377	19791
890.501	19632
890.624	19529
890.748	19655
890.871	19468
890.995	19339
891.118	19388
891.241	19472
891.364	19460
891.488	19514
891.611	19464
891.734	19438
891.857	19559
891.98	19438
892.103	19502
892.226	19460
892.349	19396
892.471	19308
892.594	19434
892.717	19460
892.839	19354
892.962	19457
893.085	19384
893.207	19289
893.33	19221
893.452	19255
893.575	19430
893.697	19247
893.819	19468
893.941	19472
894.064	19514
894.186	19335
894.308	19331
894.43	19422
894.552	19476
894.674	19426
894.796	19369
894.918	19308
895.04	19335
895.161	19354
895.283	19525
895.405	19438
895.526	19339
895.648	19343
895.769	19362
895.891	19396
896.012	19438
896.134	19407
896.255	19312
896.376	19392
896.498	19396
896.619	19441
896.74	19438
896.861	19384
896.982	19674
897.103	19913
897.224	19731
897.345	19620
897.466	19521
897.587	19476
897.708	19780
897.828	19689
897.949	19571
898.07	19480
898.19	19460
898.311	19658
898.431	19586
898.552	19655
898.672	19586
898.792	19655
898.913	19556
899.033	19419
899.153	19438
899.273	19266
899.393	19259
899.513	19324
899.633	19362
899.753	19411
899.873	19335
899.993	19320
900.113	19304
900.232	19403
900.352	19190
900.472	19225
900.591	19019
900.711	19122
900.83	19069
900.95	19206
901.069	19213
901.189	19012
901.308	18814
901.427	18700
901.546	18700
901.665	18817
901.784	18753
901.904	18570
902.023	18612
902.141	18391
902.26	18228
902.379	18403
902.498	18216
902.617	18197
902.735	18289
902.854	18171
902.973	18197
903.091	18053
903.21	17870
903.328	17866
903.446	17813
903.565	17756
903.683	17733
903.801	17687
903.919	17566
904.038	17653
904.156	17406
904.274	17608
904.392	17486
904.51	17459
904.627	17467
904.745	17535
904.863	17558
904.981	17330
905.098	17242
905.216	17189
905.334	17128
905.451	17231
905.569	17113
905.686	17223
905.803	17235
905.921	17014
906.038	16984
906.155	16999
906.272	16797
906.389	16900
906.506	16797
906.623	16713
906.74	16702
906.857	16599
906.974	16736
907.091	16759
907.208	16828
907.324	16713
907.441	16580
907.557	16462
907.674	16455
907.79	16322
907.907	16402
908.023	16470
908.139	16382
908.256	16310
908.372	16356
908.488	16352
908.604	16295
908.72	16071
908.836	16253
908.952	16059
909.068	16120
909.184	16284
909.3	16105
909.415	16329
909.531	16188
909.647	15895
909.762	15869
909.878	15808
909.993	15827
910.108	15812
910.224	15774
910.339	15736
910.454	15736
910.57	15637
910.685	15755
910.8	15793
910.915	15747
911.03	15648
911.145	15469
911.259	15477
911.374	15523
911.489	15336
911.604	15313
911.718	15203
911.833	15184
911.947	15135
912.062	15032
912.176	15131
912.291	15218
912.405	15249
912.519	15294
912.633	15332
912.748	15184
912.862	15173
912.976	15085
913.09	14838
913.204	15062
913.318	15055
913.431	15077
913.545	14990
913.659	15043
913.772	14933
913.886	14880
914	14861
914.113	14956
914.226	14975
914.34	14910
914.453	14762
914.566	14921
914.68	14705
914.793	14651
914.906	14571
915.019	14476
915.132	14454
915.245	14434
915.358	14412
915.47	14434
915.583	14499
915.696	14552
915.809	14568
915.921	14667
916.034	14385
916.146	14412
916.259	14358
916.371	14400
916.483	14305
916.595	14301
916.708	14290
916.82	14336
916.932	14271
917.044	14305
917.156	14206
917.268	14187
917.38	14183
917.491	14176
917.603	14119
917.715	14176
917.826	14267
917.938	14069
918.049	13913
918.161	14031
918.272	14107
918.384	14187
918.495	14130
918.606	13940
918.717	13841
918.828	13932
918.939	13970
919.05	13811
919.161	13902
919.272	13594
919.383	13734
919.494	13906
919.604	14111
919.715	13928
919.826	13852
919.936	13811
920.047	13989
920.157	13970
920.267	14103
920.378	13887
920.488	13944
920.598	14024
920.708	14119
920.818	13986
920.928	13947
921.038	14195
921.148	14107
921.258	13887
921.368	13738
921.477	13658
921.587	13590
921.697	13552
921.806	13674
921.916	13491
922.025	13392
922.134	13297
922.244	13171
922.353	13289
922.462	13141
922.571	13072
922.68	12981
922.789	12939
922.898	12856
923.007	12882
923.116	13012
923.224	12924
923.333	12905
923.442	12692
923.55	12726
923.659	12741
923.767	12719
923.876	12669
923.984	12768
924.092	12528
924.201	12700
924.309	12627
924.417	12616
924.525	12642
924.633	12650
924.741	13346
924.849	12388
924.956	12506
925.064	12273
925.172	12205
925.279	12281
925.387	12254
925.494	12338
925.602	12559
925.709	12422
925.816	12243
925.924	12254
926.031	12414
926.138	12270
926.245	12334
926.352	12338
926.459	12357
926.566	12388
926.673	12311
926.779	12087
926.886	12152
926.993	11961
927.099	11897
927.206	11897
927.312	11901
927.419	11927
927.525	11969
927.631	11958
927.737	11767
927.843	11741
927.95	11634
928.056	11726
928.162	11840
928.267	11836
928.373	12277
928.479	11885
928.585	11691
928.69	11855
928.796	11821
928.901	11699
929.007	11429
929.112	11688
929.218	11562
929.323	11535
929.428	11493
929.533	11680
929.638	11406
929.743	11524
929.848	11493
929.953	11532
930.058	11455
930.163	11185
930.267	11246
930.372	11387
930.477	11208
930.581	11379
930.685	11155
930.79	11102
930.894	11102
930.998	11029
931.103	11299
931.207	10892
931.311	10793
931.415	10687
931.519	10546
931.623	10569
