Data from test_V78500241_40.txt Node
Date: Fri Mar 25 15:10:08 CST 2022
User: usil
Spectrometer: V785-0024
Trigger mode: 0
Integration Time (sec): 4.000000E-1
Scans to average: 1
Nonlinearity correction enabled: false
Boxcar width: 0
Storing dark spectrum: false
XAxis mode: Wavelengths
Number of Pixels in Spectrum: 1024
>>>>>Begin Spectral Data<<<<<
801.071	28816
801.214	28786
801.356	28592
801.499	28432
801.641	28348
801.783	28287
801.926	28398
802.068	28390
802.211	28226
802.353	28322
802.496	28048
802.638	27983
802.78	27975
802.923	27816
803.065	27835
803.208	27876
803.35	27823
803.492	28059
803.635	28120
803.777	28059
803.919	28196
804.061	28394
804.204	27972
804.346	28059
804.488	27941
804.63	27998
804.773	27819
804.915	27975
805.057	28109
805.199	27854
805.341	27972
805.483	28181
805.626	28192
805.768	27941
805.91	28048
806.052	28029
806.194	28002
806.336	28181
806.478	28029
806.62	28029
806.762	28135
806.904	28242
807.046	28626
807.188	28485
807.33	28367
807.472	28401
807.614	28333
807.756	28554
807.898	28185
808.04	28128
808.182	28276
808.324	28242
808.465	28188
808.607	28413
808.749	28390
808.891	28622
809.033	28767
809.174	28622
809.316	28565
809.458	28531
809.6	28554
809.741	28664
809.883	28698
810.025	28713
810.166	28694
810.308	28786
810.45	28706
810.591	28721
810.733	28500
810.875	28462
811.016	28356
811.158	28352
811.299	28538
811.441	28493
811.582	28626
811.724	28356
811.865	28436
812.007	28584
812.148	28474
812.29	28504
812.431	28721
812.573	28660
812.714	28812
812.855	28923
812.997	29033
813.138	29269
813.279	29159
813.421	28885
813.562	28885
813.703	28778
813.845	28694
813.986	28306
814.127	28215
814.268	28204
814.41	28044
814.551	28017
814.692	28101
814.833	27911
814.974	27945
815.115	28086
815.256	27819
815.397	27865
815.539	27850
815.68	27724
815.821	27895
815.962	27827
816.103	27675
816.244	27648
816.385	27519
816.526	27481
816.666	27241
816.807	27260
816.948	27294
817.089	27332
817.23	27199
817.371	27173
817.512	27230
817.653	27135
817.793	27207
817.934	27055
818.075	27085
818.216	27176
818.356	27051
818.497	26990
818.638	26902
818.778	26940
818.919	26838
819.06	26899
819.2	26864
819.341	26940
819.481	27028
819.622	27237
819.762	27222
819.903	27450
820.043	27199
820.184	27089
820.324	27070
820.465	27237
820.605	27291
820.746	27150
820.886	26937
821.026	27127
821.167	27013
821.307	27127
821.447	26906
821.588	27013
821.728	26735
821.868	26720
822.008	26518
822.149	26480
822.289	26594
822.429	26374
822.569	26176
822.709	26267
822.849	26027
822.99	26058
823.13	26024
823.27	25974
823.41	25780
823.55	25632
823.69	25788
823.83	25841
823.97	25750
824.11	25582
824.25	25396
824.389	25567
824.529	25529
824.669	25510
824.809	25628
824.949	25548
825.089	25685
825.228	25563
825.368	25384
825.508	25255
825.648	25304
825.787	25487
825.927	25270
826.067	25331
826.206	25285
826.346	25445
826.485	25312
826.625	25270
826.765	25533
826.904	25369
827.044	25031
827.183	25053
827.323	24977
827.462	25038
827.601	24894
827.741	25038
827.88	25023
828.02	24878
828.159	24970
828.298	24943
828.437	24958
828.577	24863
828.716	25187
828.855	24894
828.994	24837
829.134	24711
829.273	24681
829.412	24631
829.551	24578
829.69	24688
829.829	24715
829.968	24650
830.107	24604
830.246	24597
830.385	24589
830.524	24475
830.663	24407
830.802	24395
830.941	24281
831.08	24194
831.219	24262
831.357	24213
831.496	24323
831.635	24117
831.774	24034
831.913	24060
832.051	24079
832.19	23908
832.329	23931
832.467	23851
832.606	23813
832.744	23695
832.883	23840
833.022	23912
833.16	23836
833.299	23813
833.437	23775
833.576	23870
833.714	23805
833.852	23866
833.991	23878
834.129	23779
834.267	23942
834.406	23821
834.544	23927
834.682	23977
834.821	23935
834.959	23961
835.097	23684
835.235	23703
835.373	23802
835.511	23718
835.65	23649
835.788	23733
835.926	23505
836.064	23421
836.202	23368
836.34	23570
836.478	23718
836.615	23509
836.753	23577
836.891	23737
837.029	23615
837.167	23516
837.305	23452
837.443	23452
837.58	23387
837.718	23516
837.856	23395
837.993	23334
838.131	23436
838.269	23284
838.406	23398
838.544	23356
838.681	23060
838.819	23094
838.956	22843
839.094	22892
839.231	22995
839.369	23041
839.506	23151
839.643	23071
839.781	22854
839.918	22809
840.055	22934
840.193	22809
840.33	22733
840.467	22778
840.604	22797
840.742	22889
840.879	22717
841.016	22630
841.153	22550
841.29	22911
841.427	22698
841.564	22725
841.701	22793
841.838	22615
841.975	22588
842.112	22611
842.249	22459
842.385	22485
842.522	22691
842.659	22447
842.796	22402
842.933	22462
843.069	22504
843.206	22386
843.343	22413
843.479	22337
843.616	22337
843.752	22150
843.889	22284
844.025	22261
844.162	22223
844.298	22192
844.435	22017
844.571	22337
844.708	22143
844.844	22325
844.98	22295
845.117	22253
845.253	22097
845.389	21979
845.525	22029
845.661	22025
845.798	21945
845.934	22002
846.07	21797
846.206	21835
846.342	22097
846.478	21793
846.614	21633
846.75	21641
846.886	21576
847.022	21778
847.158	21648
847.294	21557
847.429	21568
847.565	21492
847.701	21724
847.837	21355
847.972	21245
848.108	21401
848.244	21298
848.379	21146
848.515	21226
848.65	21161
848.786	21176
848.921	21195
849.057	21264
849.192	21207
849.328	21116
849.463	21104
849.598	20998
849.734	21028
849.869	20979
850.004	20952
850.14	20986
850.275	20910
850.41	20830
850.545	20792
850.68	20823
850.815	20891
850.95	20834
851.085	20948
851.22	20994
851.355	20891
851.49	20800
851.625	20921
851.76	20792
851.895	20743
852.03	20792
852.165	20724
852.299	20902
852.434	20880
852.569	20834
852.703	20872
852.838	20845
852.973	21104
853.107	20853
853.242	20826
853.376	20655
853.511	20575
853.645	20640
853.78	20910
853.914	20743
854.048	20598
854.183	20655
854.317	20621
854.451	20720
854.585	20571
854.72	20629
854.854	20785
854.988	20537
855.122	20621
855.256	20457
855.39	20530
855.524	20743
855.658	20648
855.792	20746
855.926	20667
856.06	20735
856.194	20731
856.327	20697
856.461	20648
856.595	20499
856.729	20575
856.862	20701
856.996	20655
857.13	20629
857.263	20716
857.397	20651
857.53	20587
857.664	20724
857.797	20705
857.931	20708
858.064	20667
858.197	20670
858.331	20541
858.464	20492
858.597	20366
858.731	20579
858.864	20473
858.997	20526
859.13	20564
859.263	20613
859.396	20781
859.529	20526
859.662	20507
859.795	20549
859.928	20503
860.061	20670
860.194	20606
860.327	20651
860.46	20571
860.592	20587
860.725	20659
860.858	20549
860.99	20450
861.123	20469
861.256	20560
861.388	20571
861.521	21119
861.653	20537
861.786	20362
861.918	20442
862.05	20530
862.183	20606
862.315	20530
862.447	20682
862.58	20484
862.712	20408
862.844	20358
862.976	20256
863.108	20381
863.24	20781
863.372	20199
863.504	20271
863.636	20202
863.768	20301
863.9	20259
864.032	20172
864.164	20138
864.296	20313
864.428	20275
864.559	20237
864.691	20259
864.823	20168
864.954	20328
865.086	20244
865.217	20134
865.349	20065
865.48	20172
865.612	20191
865.743	20240
865.875	20138
866.006	20164
866.137	20202
866.269	20149
866.4	20088
866.531	20035
866.662	20058
866.793	19928
866.924	20107
867.055	20161
867.186	20081
867.317	19993
867.448	19944
867.579	20115
867.71	19959
867.841	20024
867.972	20077
868.103	19906
868.233	20107
868.364	20031
868.495	20214
868.625	20195
868.756	20351
868.886	20275
869.017	20275
869.147	20385
869.278	20347
869.408	20214
869.539	20366
869.669	20305
869.799	20309
869.929	20396
870.06	20476
870.19	20667
870.32	20644
870.45	20545
870.58	20651
870.71	20777
870.84	20800
870.97	20663
871.1	20651
871.23	20872
871.36	20849
871.489	20792
871.619	20845
871.749	20956
871.879	20895
872.008	20971
872.138	20857
872.267	20918
872.397	20796
872.526	20724
872.656	20731
872.785	20762
872.915	20819
873.044	20982
873.173	20800
873.303	21020
873.432	20986
873.561	20998
873.69	20921
873.819	20910
873.948	21013
874.077	20960
874.206	20899
874.335	20956
874.464	21032
874.593	21173
874.722	21161
874.851	21275
874.979	21211
875.108	21180
875.237	21176
875.365	21013
875.494	21192
875.623	21195
875.751	21104
875.88	21260
876.008	21359
876.136	21367
876.265	21485
876.393	21652
876.521	21564
876.65	21587
876.778	21515
876.906	21542
877.034	21435
877.162	21534
877.29	21553
877.418	21412
877.546	21481
877.674	21599
877.802	21557
877.93	21572
878.058	21523
878.185	21336
878.313	21428
878.441	21443
878.568	21294
878.696	21466
878.824	21557
878.951	21637
879.079	21766
879.206	21789
879.333	21686
879.461	21477
879.588	21652
879.715	21698
879.842	21747
879.97	21428
880.097	21386
880.224	21310
880.351	21351
880.478	21363
880.605	21214
880.732	21291
880.859	21511
880.986	21431
881.112	21386
881.239	21291
881.366	21017
881.493	21043
881.619	20853
881.746	20948
881.872	20796
881.999	20826
882.125	20906
882.252	20838
882.378	20887
882.505	20967
882.631	20804
882.757	20640
882.883	20701
883.01	20670
883.136	20667
883.262	20556
883.388	20431
883.514	20724
883.64	20705
883.766	20552
883.892	20484
884.018	20541
884.143	20705
884.269	20678
884.395	20507
884.52	20320
884.646	20343
884.772	20202
884.897	20263
885.023	20408
885.148	20415
885.274	20454
885.399	20488
885.524	20332
885.65	20336
885.775	20423
885.9	20324
886.025	20400
886.15	20587
886.275	20298
886.4	20278
886.525	20290
886.65	20271
886.775	20134
886.9	20385
887.025	20358
887.149	20267
887.274	20161
887.399	20096
887.523	20001
887.648	19982
887.773	19932
887.897	20103
888.021	20100
888.146	20012
888.27	20229
888.395	20183
888.519	20164
888.643	20202
888.767	20142
888.891	19928
889.015	19902
889.139	19951
889.263	19814
889.387	19986
889.511	19982
889.635	20027
889.759	19883
889.883	19875
890.006	19856
890.13	19898
890.254	19887
890.377	19704
890.501	19540
890.624	19655
890.748	19658
890.871	19487
890.995	19480
891.118	19384
891.241	19445
891.364	19415
891.488	19571
891.611	19434
891.734	19525
891.857	19491
891.98	19540
892.103	19586
892.226	19460
892.349	19480
892.471	19289
892.594	19381
892.717	19339
892.839	19289
892.962	19327
893.085	19480
893.207	19396
893.33	19335
893.452	19263
893.575	19426
893.697	19293
893.819	19441
893.941	19613
894.064	19411
894.186	19335
894.308	19304
894.43	19430
894.552	19514
894.674	19460
894.796	19251
894.918	19362
895.04	19327
895.161	19525
895.283	19476
895.405	19247
895.526	19346
895.648	19285
895.769	19403
895.891	19403
896.012	19514
896.134	19521
896.255	19472
896.376	19419
896.498	19480
896.619	19514
896.74	19430
896.861	19464
896.982	19818
897.103	19860
897.224	19776
897.345	19658
897.466	19731
897.587	19708
897.708	19811
897.828	19708
897.949	19445
898.07	19480
898.19	19647
898.311	19658
898.431	19666
898.552	19594
898.672	19696
898.792	19681
898.913	19571
899.033	19426
899.153	19483
899.273	19335
899.393	19289
899.513	19312
899.633	19247
899.753	19384
899.873	19228
899.993	19270
900.113	19228
900.232	19316
900.352	19327
900.472	19118
900.591	19164
900.711	19091
900.83	19175
900.95	19171
901.069	19282
901.189	19038
901.308	18852
901.427	18711
901.546	18700
901.665	18798
901.784	18711
901.904	18559
902.023	18517
902.141	18353
902.26	18300
902.379	18323
902.498	18174
902.617	18163
902.735	18205
902.854	18182
902.973	18167
903.091	18030
903.21	17866
903.328	17904
903.446	17745
903.565	17680
903.683	17687
903.801	17596
903.919	17748
904.038	17672
904.156	17383
904.274	17596
904.392	17482
904.51	17478
904.627	17474
904.745	17615
904.863	17425
904.981	17322
905.098	17151
905.216	17250
905.334	17140
905.451	17162
905.569	17094
905.686	17178
905.803	17242
905.921	16904
906.038	17029
906.155	16915
906.272	16774
906.389	16980
906.506	16698
906.623	16698
906.74	16831
906.857	16558
906.974	16596
907.091	16668
907.208	16733
907.324	16672
907.441	16538
907.557	16341
907.674	16382
907.79	16287
907.907	16295
908.023	16314
908.139	16325
908.256	16310
908.372	16230
908.488	16261
908.604	16101
908.72	16006
908.836	16139
908.952	16051
909.068	16029
909.184	16116
909.3	15907
909.415	16128
909.531	15994
909.647	15861
909.762	15686
909.878	15720
909.993	15709
910.108	15717
910.224	15701
910.339	15793
910.454	15656
910.57	15603
910.685	15542
910.8	15656
910.915	15728
911.03	15587
911.145	15378
911.259	15370
911.374	15355
911.489	15313
911.604	15142
911.718	15097
911.833	15062
911.947	15043
912.062	14857
912.176	15024
912.291	15123
912.405	15062
912.519	15241
912.633	15226
912.748	15116
912.862	14990
912.976	14876
913.09	14849
913.204	14735
913.318	14864
913.431	14937
913.545	14990
913.659	14971
913.772	14891
913.886	14670
914	14682
914.113	14773
914.226	14864
914.34	14739
914.453	14507
914.566	14792
914.68	14610
914.793	14625
914.906	14408
915.019	14355
915.132	14271
915.245	14412
915.358	14362
915.47	14412
915.583	14454
915.696	14431
915.809	14492
915.921	14427
916.034	14324
916.146	14263
916.259	14278
916.371	14358
916.483	14191
916.595	14191
916.708	14191
916.82	14168
916.932	14153
917.044	14237
917.156	14168
917.268	13967
917.38	14058
917.491	14024
917.603	14024
917.715	14020
917.826	14115
917.938	13974
918.049	13906
918.161	13982
918.272	14176
918.384	14069
918.495	14008
918.606	13814
918.717	13776
918.828	13826
918.939	13879
919.05	13616
919.161	13750
919.272	13590
919.383	13689
919.494	13746
919.604	13970
919.715	13696
919.826	13556
919.936	13727
920.047	13811
920.157	13791
920.267	13993
920.378	13807
920.488	13776
920.598	13894
920.708	14073
920.818	13883
920.928	13814
921.038	14027
921.148	13932
921.258	13609
921.368	13731
921.477	13430
921.587	13491
921.697	13415
921.806	13544
921.916	13266
922.025	13152
922.134	13183
922.244	13171
922.353	13194
922.462	13015
922.571	12905
922.68	12844
922.789	12779
922.898	12783
923.007	12650
923.116	12776
923.224	12741
923.333	12741
923.442	12585
923.55	12517
923.659	12585
923.767	12677
923.876	12570
923.984	12608
924.092	12578
924.201	12521
924.309	12490
924.417	12540
924.525	12403
924.633	12445
924.741	13217
924.849	12220
924.956	12361
925.064	12300
925.172	12163
925.279	12209
925.387	12167
925.494	12262
925.602	12372
925.709	12285
925.816	12125
925.924	12247
926.031	12243
926.138	12216
926.245	12213
926.352	12125
926.459	12243
926.566	12205
926.673	12106
926.779	12007
926.886	12045
926.993	11859
927.099	11821
927.206	11718
927.312	11851
927.419	11836
927.525	11802
927.631	11840
927.737	11684
927.843	11691
927.95	11585
928.056	11577
928.162	11699
928.267	11695
928.373	12311
928.479	11764
928.585	11551
928.69	11630
928.796	11684
928.901	11509
929.007	11356
929.112	11520
929.218	11493
929.323	11444
929.428	11429
929.533	11497
929.638	11330
929.743	11269
929.848	11345
929.953	11326
930.058	11216
930.163	11124
930.267	11170
930.372	11159
930.477	11014
930.581	11299
930.685	11124
930.79	11025
930.894	11010
930.998	10942
931.103	11083
931.207	10679
931.311	10588
931.415	10558
931.519	10318
931.623	10348
