Data from test_V78500241_2304.txt Node
Date: Fri Mar 25 15:25:54 CST 2022
User: usil
Spectrometer: V785-0024
Trigger mode: 0
Integration Time (sec): 4.000000E-1
Scans to average: 1
Nonlinearity correction enabled: false
Boxcar width: 0
Storing dark spectrum: false
XAxis mode: Wavelengths
Number of Pixels in Spectrum: 1024
>>>>>Begin Spectral Data<<<<<
801.071	27553
801.214	27408
801.356	27192
801.499	27161
801.641	27119
801.783	27066
801.926	27074
802.068	27043
802.211	26948
802.353	26826
802.496	26773
802.638	26781
802.78	26724
802.923	26663
803.065	26583
803.208	26762
803.35	26655
803.492	26735
803.635	26902
803.777	26796
803.919	26876
804.061	27093
804.204	26895
804.346	26758
804.488	26804
804.63	26861
804.773	26807
804.915	26880
805.057	27009
805.199	26826
805.341	26899
805.483	27211
805.626	27131
805.768	26956
805.91	26895
806.052	27017
806.194	26925
806.336	27157
806.478	26998
806.62	26910
806.762	27093
806.904	27287
807.046	27492
807.188	27336
807.33	27359
807.472	27530
807.614	27504
807.756	27389
807.898	27249
808.04	27005
808.182	27154
808.324	27321
808.465	27321
808.607	27435
808.749	27568
808.891	27743
809.033	27717
809.174	27781
809.316	27572
809.458	27644
809.6	27561
809.741	27739
809.883	27701
810.025	27785
810.166	27781
810.308	27869
810.45	27762
810.591	27732
810.733	27663
810.875	27553
811.016	27325
811.158	27606
811.299	27485
811.441	27739
811.582	27675
811.724	27534
811.865	27504
812.007	27583
812.148	27671
812.29	27443
812.431	27789
812.573	27945
812.714	27804
812.855	28017
812.997	28173
813.138	28333
813.279	28265
813.421	28067
813.562	27968
813.703	27698
813.845	27686
813.986	27519
814.127	27401
814.268	27241
814.41	27275
814.551	27199
814.692	27374
814.833	27203
814.974	27275
815.115	27264
815.256	27123
815.397	27036
815.539	27093
815.68	27036
815.821	27028
815.962	27173
816.103	26921
816.244	26986
816.385	26891
816.526	26739
816.666	26648
816.807	26461
816.948	26518
817.089	26617
817.23	26575
817.371	26442
817.512	26495
817.653	26473
817.793	26419
817.934	26438
818.075	26453
818.216	26583
818.356	26412
818.497	26404
818.638	26183
818.778	26225
818.919	26229
819.06	26385
819.2	26419
819.341	26549
819.481	26518
819.622	26678
819.762	26914
819.903	26765
820.043	26693
820.184	26632
820.324	26583
820.465	26594
820.605	26590
820.746	26545
820.886	26434
821.026	26518
821.167	26533
821.307	26571
821.447	26648
821.588	26438
821.728	26374
821.868	26084
822.008	25966
822.149	26020
822.289	25868
822.429	25799
822.569	25571
822.709	25639
822.849	25514
822.99	25468
823.13	25537
823.27	25552
823.41	25324
823.55	25244
823.69	25301
823.83	25346
823.97	25247
824.11	25118
824.25	25065
824.389	25133
824.529	25171
824.669	25175
824.809	25194
824.949	25099
825.089	25107
825.228	25190
825.368	25012
825.508	25008
825.648	24977
825.787	24932
825.927	25088
826.067	25110
826.206	24913
826.346	25027
826.485	25015
826.625	24985
826.765	25080
826.904	25072
827.044	24825
827.183	24673
827.323	24658
827.462	24852
827.601	24688
827.741	24684
827.88	24753
828.02	24646
828.159	24627
828.298	24745
828.437	24669
828.577	24661
828.716	24875
828.855	24566
828.994	24403
829.134	24384
829.273	24513
829.412	24319
829.551	24437
829.69	24388
829.829	24391
829.968	24528
830.107	24464
830.246	24369
830.385	24330
830.524	24247
830.663	24247
830.802	24034
830.941	23969
831.08	24091
831.219	23965
831.357	24159
831.496	24102
831.635	23969
831.774	23874
831.913	23794
832.051	23783
832.19	23764
832.329	23752
832.467	23672
832.606	23630
832.744	23695
832.883	23718
833.022	23672
833.16	23764
833.299	23756
833.437	23764
833.576	23752
833.714	23775
833.852	23764
833.991	23687
834.129	23752
834.267	23863
834.406	23680
834.544	23843
834.682	23722
834.821	23695
834.959	23923
835.097	23585
835.235	23783
835.373	23832
835.511	23638
835.65	23573
835.788	23600
835.926	23440
836.064	23478
836.202	23398
836.34	23627
836.478	23726
836.615	23551
836.753	23528
836.891	23531
837.029	23551
837.167	23577
837.305	23372
837.443	23303
837.58	23368
837.718	23337
837.856	23368
837.993	23189
838.131	23334
838.269	23265
838.406	23383
838.544	23265
838.681	23098
838.819	22995
838.956	22934
839.094	22835
839.231	22938
839.369	23132
839.506	23299
839.643	23102
839.781	22927
839.918	22885
840.055	22885
840.193	22801
840.33	22656
840.467	22892
840.604	22805
840.742	23029
840.879	22805
841.016	22736
841.153	22854
841.29	22896
841.427	22843
841.564	22873
841.701	22835
841.838	22729
841.975	22683
842.112	22698
842.249	22660
842.385	22561
842.522	22740
842.659	22535
842.796	22504
842.933	22546
843.069	22573
843.206	22664
843.343	22645
843.479	22607
843.616	22508
843.752	22394
843.889	22375
844.025	22535
844.162	22356
844.298	22428
844.435	22291
844.571	22257
844.708	22211
844.844	22447
844.98	22394
845.117	22333
845.253	22333
845.389	22226
845.525	22303
845.661	22219
845.798	22025
845.934	22261
846.07	22044
846.206	22010
846.342	22223
846.478	21991
846.614	21850
846.75	21709
846.886	21778
847.022	21842
847.158	21781
847.294	21964
847.429	21930
847.565	21823
847.701	21987
847.837	21454
847.972	21545
848.108	21580
848.244	21591
848.379	21450
848.515	21420
848.65	21291
848.786	21382
848.921	21306
849.057	21572
849.192	21530
849.328	21412
849.463	21428
849.598	21355
849.734	21374
849.869	21329
850.004	21165
850.14	21207
850.275	21237
850.41	21039
850.545	21032
850.68	21055
850.815	21138
850.95	21142
851.085	21268
851.22	21230
851.355	21214
851.49	21096
851.625	21127
851.76	21085
851.895	21039
852.03	21051
852.165	21062
852.299	21135
852.434	21233
852.569	21146
852.703	21233
852.838	21275
852.973	21294
853.107	21298
853.242	21074
853.376	21036
853.511	20823
853.645	20986
853.78	21009
853.914	20998
854.048	20925
854.183	20952
854.317	21089
854.451	21214
854.585	20929
854.72	21024
854.854	20925
854.988	20914
855.122	20937
855.256	20769
855.39	20899
855.524	20971
855.658	21005
855.792	21047
855.926	20929
856.06	21096
856.194	21108
856.327	20998
856.461	20929
856.595	20895
856.729	20994
856.862	21180
856.996	21009
857.13	21154
857.263	20971
857.397	20921
857.53	21024
857.664	20906
857.797	21001
857.931	21085
858.064	20906
858.197	21055
858.331	20933
858.464	20956
858.597	20857
858.731	20933
858.864	21047
858.997	20918
859.13	21047
859.263	20933
859.396	21028
859.529	20986
859.662	20998
859.795	20956
859.928	20967
860.061	21081
860.194	21104
860.327	21047
860.46	20937
860.592	21180
860.725	21081
860.858	21024
860.99	20937
861.123	21036
861.256	20895
861.388	21062
861.521	21713
861.653	20941
861.786	20796
861.918	20815
862.05	20872
862.183	20864
862.315	20902
862.447	21017
862.58	20941
862.712	20720
862.844	20617
862.976	20697
863.108	20758
863.24	21173
863.372	20682
863.504	20689
863.636	20670
863.768	20708
863.9	20693
864.032	20590
864.164	20670
864.296	20792
864.428	20826
864.559	20701
864.691	20857
864.823	20720
864.954	20617
865.086	20693
865.217	20667
865.349	20530
865.48	20545
865.612	20640
865.743	20743
865.875	20636
866.006	20488
866.137	20469
866.269	20575
866.4	20625
866.531	20514
866.662	20526
866.793	20526
866.924	20537
867.055	20450
867.186	20556
867.317	20507
867.448	20480
867.579	20434
867.71	20412
867.841	20389
867.972	20609
868.103	20473
868.233	20537
868.364	20499
868.495	20705
868.625	20811
868.756	20777
868.886	20716
869.017	20811
869.147	20804
869.278	20853
869.408	20857
869.539	20762
869.669	20758
869.799	20887
869.929	20804
870.06	20842
870.19	21131
870.32	21093
870.45	21024
870.58	21138
870.71	21116
870.84	21226
870.97	21161
871.1	21131
871.23	21226
871.36	21469
871.489	21218
871.619	21351
871.749	21336
871.879	21370
872.008	21454
872.138	21386
872.267	21313
872.397	21245
872.526	21195
872.656	21249
872.785	21180
872.915	21500
873.044	21363
873.173	21298
873.303	21386
873.432	21393
873.561	21553
873.69	21389
873.819	21340
873.948	21485
874.077	21412
874.206	21408
874.335	21355
874.464	21492
874.593	21606
874.722	21660
874.851	21606
874.979	21671
875.108	21751
875.237	21583
875.365	21481
875.494	21629
875.623	21717
875.751	21644
875.88	21671
876.008	21774
876.136	21762
876.265	22200
876.393	22090
876.521	21956
876.65	22147
876.778	22078
876.906	21983
877.034	21899
877.162	22040
877.29	21915
877.418	22029
877.546	22101
877.674	22013
877.802	21934
877.93	21975
878.058	21964
878.185	21861
878.313	21972
878.441	21873
878.568	21800
878.696	21937
878.824	21991
878.951	22032
879.079	22192
879.206	22150
879.333	22124
879.461	21960
879.588	22097
879.715	22200
879.842	22173
879.97	21956
880.097	21743
880.224	21812
880.351	21895
880.478	21747
880.605	21667
880.732	21934
880.859	22070
880.986	21846
881.112	21789
881.239	21595
881.366	21576
881.493	21401
881.619	21306
881.746	21287
881.872	21382
881.999	21405
882.125	21310
882.252	21416
882.378	21268
882.505	21428
882.631	21184
882.757	21131
882.883	21127
883.01	21039
883.136	21043
883.262	21020
883.388	20902
883.514	21047
883.64	21062
883.766	20979
883.892	20819
884.018	20826
884.143	21017
884.269	21131
884.395	20815
884.52	20712
884.646	20724
884.772	20674
884.897	20655
885.023	20758
885.148	20906
885.274	20842
885.399	20777
885.524	20712
885.65	20819
885.775	20716
885.9	20686
886.025	20842
886.15	20762
886.275	20629
886.4	20705
886.525	20648
886.65	20636
886.775	20575
886.9	20792
887.025	20929
887.149	20701
887.274	20507
887.399	20514
887.523	20469
887.648	20374
887.773	20545
887.897	20571
888.021	20476
888.146	20374
888.27	20408
888.395	20617
888.519	20537
888.643	20473
888.767	20541
888.891	20214
889.015	20415
889.139	20404
889.263	20457
889.387	20366
889.511	20606
889.635	20575
889.759	20259
889.883	20244
890.006	20313
890.13	20358
890.254	20191
890.377	20202
890.501	20081
890.624	20157
890.748	20111
890.871	19963
890.995	19822
891.118	19826
891.241	19849
891.364	19849
891.488	19982
891.611	19928
891.734	19879
891.857	19978
891.98	19811
892.103	19902
892.226	19909
892.349	19841
892.471	19647
892.594	19776
892.717	19788
892.839	19746
892.962	19799
893.085	19951
893.207	19811
893.33	19746
893.452	19772
893.575	19837
893.697	19750
893.819	19898
893.941	19947
894.064	19947
894.186	19727
894.308	19830
894.43	19788
894.552	19909
894.674	19902
894.796	19582
894.918	19746
895.04	19746
895.161	19750
895.283	19997
895.405	19727
895.526	19818
895.648	19837
895.769	19803
895.891	19788
896.012	19860
896.134	19818
896.255	19620
896.376	19788
896.498	19731
896.619	19818
896.74	19845
896.861	19860
896.982	20195
897.103	20305
897.224	20058
897.345	19982
897.466	19970
897.587	20065
897.708	20130
897.828	20081
897.949	19970
898.07	19928
898.19	19993
898.311	20031
898.431	19997
898.552	19959
898.672	20035
898.792	20149
898.913	20012
899.033	19894
899.153	19894
899.273	19712
899.393	19643
899.513	19807
899.633	19807
899.753	19727
899.873	19727
899.993	19799
900.113	19666
900.232	19837
900.352	19696
900.472	19632
900.591	19514
900.711	19491
900.83	19521
900.95	19597
901.069	19571
901.189	19343
901.308	19187
901.427	19171
901.546	19050
901.665	19183
901.784	19240
901.904	19023
902.023	18890
902.141	18665
902.26	18665
902.379	18745
902.498	18665
902.617	18593
902.735	18658
902.854	18597
902.973	18700
903.091	18357
903.21	18304
903.328	18289
903.446	18258
903.565	18266
903.683	18167
903.801	18064
903.919	17992
904.038	18114
904.156	17931
904.274	17999
904.392	17927
904.51	17882
904.627	17863
904.745	17908
904.863	17946
904.981	17779
905.098	17570
905.216	17516
905.334	17490
905.451	17611
905.569	17516
905.686	17615
905.803	17611
905.921	17311
906.038	17429
906.155	17429
906.272	17284
906.389	17368
906.506	17197
906.623	17109
906.74	17010
906.857	17018
906.974	17018
907.091	17185
907.208	17242
907.324	17143
907.441	16987
907.557	16968
907.674	16862
907.79	16774
907.907	16744
908.023	16767
908.139	16873
908.256	16892
908.372	16580
908.488	16790
908.604	16580
908.72	16489
908.836	16580
908.952	16519
909.068	16523
909.184	16683
909.3	16637
909.415	16500
909.531	16554
909.647	16261
909.762	16337
909.878	16226
909.993	16215
910.108	16253
910.224	16166
910.339	16291
910.454	16166
910.57	16082
910.685	15979
910.8	16295
910.915	16154
911.03	16067
911.145	15884
911.259	15793
911.374	15808
911.489	15884
911.604	15781
911.718	15625
911.833	15641
911.947	15538
912.062	15450
912.176	15587
912.291	15614
912.405	15488
912.519	15831
912.633	15766
912.748	15618
912.862	15595
912.976	15473
913.09	15264
913.204	15359
913.318	15477
913.431	15481
913.545	15466
913.659	15458
913.772	15435
913.886	15291
914	15192
914.113	15329
914.226	15386
914.34	15313
914.453	15142
914.566	15233
914.68	15100
914.793	15020
914.906	14872
915.019	14883
915.132	14842
915.245	14868
915.358	14861
915.47	14883
915.583	14895
915.696	14861
915.809	14914
915.921	14895
916.034	14693
916.146	14750
916.259	14644
916.371	14796
916.483	14716
916.595	14667
916.708	14670
916.82	14552
916.932	14648
917.044	14670
917.156	14552
917.268	14522
917.38	14587
917.491	14465
917.603	14526
917.715	14556
917.826	14518
917.938	14461
918.049	14305
918.161	14427
918.272	14617
918.384	14575
918.495	14438
918.606	14256
918.717	14305
918.828	14320
918.939	14256
919.05	14164
919.161	14244
919.272	14069
919.383	14157
919.494	14336
919.604	14469
919.715	14259
919.826	14161
919.936	14221
920.047	14286
920.157	14221
920.267	14385
920.378	14278
920.488	14111
920.598	14442
920.708	14484
920.818	14393
920.928	14343
921.038	14507
921.148	14518
921.258	14161
921.368	14130
921.477	14031
921.587	13932
921.697	13837
921.806	13967
921.916	13898
922.025	13685
922.134	13624
922.244	13559
922.353	13643
922.462	13506
922.571	13392
922.68	13354
922.789	13232
922.898	13240
923.007	13160
923.116	13320
923.224	13168
923.333	13179
923.442	13168
923.55	13099
923.659	13129
923.767	13069
923.876	12981
923.984	13133
924.092	12977
924.201	12966
924.309	13042
924.417	13019
924.525	12958
924.633	12935
924.741	13856
924.849	12776
924.956	12882
925.064	12749
925.172	12631
925.279	12707
925.387	12772
925.494	12745
925.602	12806
925.709	12791
925.816	12620
925.924	12582
926.031	12639
926.138	12646
926.245	12662
926.352	12517
926.459	12707
926.566	12681
926.673	12525
926.779	12509
926.886	12391
926.993	12338
927.099	12304
927.206	12197
927.312	12235
927.419	12372
927.525	12273
927.631	12350
927.737	12133
927.843	12171
927.95	12007
928.056	12076
928.162	12110
928.267	12102
928.373	12677
928.479	12194
928.585	11870
928.69	12098
928.796	12095
928.901	11973
929.007	11805
929.112	11931
929.218	11851
929.323	11878
929.428	11859
929.533	11931
929.638	11703
929.743	11764
929.848	11832
929.953	11843
930.058	11684
930.163	11558
930.267	11474
930.372	11615
930.477	11524
930.581	11699
930.685	11604
930.79	11444
930.894	11368
930.998	11372
931.103	11516
931.207	11181
931.311	11174
931.415	11064
931.519	10778
931.623	10847
