Data from test_V78500241_1435.txt Node
Date: Fri Mar 25 15:19:50 CST 2022
User: usil
Spectrometer: V785-0024
Trigger mode: 0
Integration Time (sec): 4.000000E-1
Scans to average: 1
Nonlinearity correction enabled: false
Boxcar width: 0
Storing dark spectrum: false
XAxis mode: Wavelengths
Number of Pixels in Spectrum: 1024
>>>>>Begin Spectral Data<<<<<
801.071	28093
801.214	28070
801.356	27823
801.499	27751
801.641	27679
801.783	27568
801.926	27614
802.068	27576
802.211	27538
802.353	27519
802.496	27279
802.638	27283
802.78	27211
802.923	27161
803.065	27203
803.208	27245
803.35	27302
803.492	27351
803.635	27405
803.777	27245
803.919	27439
804.061	27861
804.204	27443
804.346	27515
804.488	27477
804.63	27519
804.773	27298
804.915	27549
805.057	27530
805.199	27500
805.341	27641
805.483	27648
805.626	27435
805.768	27450
805.91	27644
806.052	27553
806.194	27477
806.336	27743
806.478	27542
806.62	27549
806.762	27755
806.904	27793
807.046	28067
807.188	28002
807.33	28093
807.472	28017
807.614	28044
807.756	27987
807.898	27914
808.04	27918
808.182	27812
808.324	27850
808.465	27888
808.607	28036
808.749	28166
808.891	28261
809.033	28398
809.174	28261
809.316	28112
809.458	28234
809.6	28261
809.741	28485
809.883	28352
810.025	28485
810.166	28565
810.308	28630
810.45	28565
810.591	28299
810.733	28246
810.875	28185
811.016	28257
811.158	28093
811.299	28257
811.441	28272
811.582	28451
811.724	28166
811.865	28211
812.007	28200
812.148	28200
812.29	28341
812.431	28519
812.573	28550
812.714	28546
812.855	28774
812.997	28858
813.138	29033
813.279	28984
813.421	28927
813.562	28809
813.703	28592
813.845	28500
813.986	28230
814.127	28040
814.268	27895
814.41	27994
814.551	27876
814.692	27964
814.833	27949
814.974	28036
815.115	27937
815.256	27762
815.397	27831
815.539	27926
815.68	27705
815.821	27629
815.962	27880
816.103	27629
816.244	27564
816.385	27561
816.526	27523
816.666	27325
816.807	27119
816.948	27252
817.089	27363
817.23	27245
817.371	27222
817.512	27298
817.653	27279
817.793	27211
817.934	27093
818.075	27222
818.216	27275
818.356	27089
818.497	27058
818.638	27032
818.778	26952
818.919	26956
819.06	27131
819.2	27104
819.341	27100
819.481	27180
819.622	27431
819.762	27568
819.903	27595
820.043	27332
820.184	27386
820.324	27367
820.465	27431
820.605	27340
820.746	27275
820.886	27298
821.026	27268
821.167	27340
821.307	27447
821.447	27260
821.588	27199
821.728	27024
821.868	26826
822.008	26712
822.149	26754
822.289	26743
822.429	26457
822.569	26396
822.709	26473
822.849	26096
822.99	26210
823.13	26263
823.27	26100
823.41	26054
823.55	25818
823.69	25978
823.83	26027
823.97	26031
824.11	25837
824.25	25742
824.389	25845
824.529	25875
824.669	25822
824.809	25837
824.949	25963
825.089	25997
825.228	25826
825.368	25674
825.508	25655
825.648	25715
825.787	25795
825.927	25818
826.067	25670
826.206	25677
826.346	25723
826.485	25704
826.625	25677
826.765	25898
826.904	25807
827.044	25495
827.183	25506
827.323	25377
827.462	25563
827.601	25540
827.741	25499
827.88	25457
828.02	25293
828.159	25346
828.298	25400
828.437	25438
828.577	25388
828.716	25453
828.855	25221
828.994	25179
829.134	24951
829.273	25183
829.412	25084
829.551	25080
829.69	25057
829.829	25126
829.968	25240
830.107	25179
830.246	25061
830.385	25004
830.524	24939
830.663	24962
830.802	24882
830.941	24715
831.08	24650
831.219	24825
831.357	24848
831.496	24970
831.635	24726
831.774	24547
831.913	24620
832.051	24528
832.19	24521
832.329	24627
832.467	24418
832.606	24361
832.744	24209
832.883	24388
833.022	24399
833.16	24334
833.299	24391
833.437	24502
833.576	24399
833.714	24505
833.852	24509
833.991	24445
834.129	24559
834.267	24502
834.406	24414
834.544	24456
834.682	24464
834.821	24403
834.959	24627
835.097	24372
835.235	24441
835.373	24448
835.511	24536
835.65	24361
835.788	24285
835.926	24300
836.064	24159
836.202	24083
836.34	24388
836.478	24384
836.615	24281
836.753	24186
836.891	24353
837.029	24273
837.167	24251
837.305	24102
837.443	24155
837.58	24178
837.718	24232
837.856	24163
837.993	24102
838.131	24087
838.269	23920
838.406	24102
838.544	23904
838.681	23752
838.819	23714
838.956	23619
839.094	23554
839.231	23600
839.369	23729
839.506	24003
839.643	23680
839.781	23722
839.918	23627
840.055	23687
840.193	23493
840.33	23535
840.467	23467
840.604	23551
840.742	23722
840.879	23326
841.016	23433
841.153	23337
841.29	23619
841.427	23528
841.564	23463
841.701	23417
841.838	23455
841.975	23318
842.112	23436
842.249	23417
842.385	23284
842.522	23444
842.659	23216
842.796	23204
842.933	23250
843.069	23124
843.206	23166
843.343	23292
843.479	23189
843.616	23242
843.752	23044
843.889	23033
844.025	23094
844.162	23109
844.298	23056
844.435	23010
844.571	23060
844.708	23052
844.844	23250
844.98	23227
845.117	23216
845.253	22976
845.389	22877
845.525	22862
845.661	22908
845.798	22736
845.934	22790
846.07	22733
846.206	22805
846.342	22801
846.478	22740
846.614	22573
846.75	22451
846.886	22493
847.022	22599
847.158	22455
847.294	22489
847.429	22569
847.565	22535
847.701	22801
847.837	22223
847.972	22097
848.108	22268
848.244	22257
848.379	22166
848.515	22097
848.65	21994
848.786	22025
848.921	22154
849.057	22147
849.192	22032
849.328	22025
849.463	22109
849.598	22093
849.734	22040
849.869	21873
850.004	21926
850.14	21949
850.275	21854
850.41	21770
850.545	21842
850.68	21880
850.815	21747
850.95	21778
851.085	21972
851.22	22013
851.355	21793
851.49	21838
851.625	21835
851.76	21918
851.895	21652
852.03	21701
852.165	21899
852.299	21975
852.434	21770
852.569	21892
852.703	21934
852.838	21823
852.973	21987
853.107	21945
853.242	21785
853.376	21633
853.511	21515
853.645	21705
853.78	21804
853.914	21671
854.048	21717
854.183	21553
854.317	21679
854.451	21705
854.585	21523
854.72	21633
854.854	21679
854.988	21610
855.122	21610
855.256	21462
855.39	21622
855.524	21625
855.658	21694
855.792	21629
855.926	21660
856.06	21599
856.194	21724
856.327	21610
856.461	21633
856.595	21625
856.729	21720
856.862	21789
856.996	21709
857.13	21595
857.263	21781
857.397	21778
857.53	21690
857.664	21724
857.797	21774
857.931	21800
858.064	21827
858.197	21736
858.331	21736
858.464	21587
858.597	21496
858.731	21652
858.864	21557
858.997	21637
859.13	21545
859.263	21762
859.396	21705
859.529	21641
859.662	21496
859.795	21709
859.928	21580
860.061	21835
860.194	21899
860.327	21698
860.46	21641
860.592	21743
860.725	21907
860.858	21736
860.99	21663
861.123	21736
861.256	21523
861.388	21561
861.521	22253
861.653	21435
861.786	21389
861.918	21504
862.05	21587
862.183	21603
862.315	21595
862.447	21603
862.58	21580
862.712	21374
862.844	21256
862.976	21420
863.108	21336
863.24	21720
863.372	21321
863.504	21279
863.636	21329
863.768	21389
863.9	21302
864.032	21313
864.164	21317
864.296	21268
864.428	21428
864.559	21226
864.691	21344
864.823	21428
864.954	21298
865.086	21291
865.217	21310
865.349	21081
865.48	21226
865.612	21230
865.743	21405
865.875	21321
866.006	21184
866.137	21184
866.269	21359
866.4	21218
866.531	21150
866.662	21100
866.793	21207
866.924	21188
867.055	21157
867.186	21138
867.317	21135
867.448	21093
867.579	21150
867.71	21032
867.841	21249
867.972	21039
868.103	21157
868.233	21146
868.364	20994
868.495	21233
868.625	21507
868.756	21496
868.886	21310
869.017	21454
869.147	21572
869.278	21469
869.408	21374
869.539	21450
869.669	21496
869.799	21492
869.929	21515
870.06	21557
870.19	21648
870.32	21679
870.45	21755
870.58	21732
870.71	21861
870.84	21915
870.97	21785
871.1	21869
871.23	21911
871.36	22017
871.489	21899
871.619	22044
871.749	21987
871.879	22029
872.008	22082
872.138	22006
872.267	21987
872.397	21880
872.526	21755
872.656	21873
872.785	21888
872.915	21926
873.044	22063
873.173	22036
873.303	22090
873.432	22109
873.561	22150
873.69	22059
873.819	22105
873.948	22032
874.077	22082
874.206	21983
874.335	22105
874.464	22055
874.593	22188
874.722	22185
874.851	22333
874.979	22299
875.108	22291
875.237	22207
875.365	22139
875.494	22280
875.623	22211
875.751	22230
875.88	22348
876.008	22424
876.136	22382
876.265	22675
876.393	22656
876.521	22717
876.65	22752
876.778	22607
876.906	22531
877.034	22588
877.162	22527
877.29	22493
877.418	22565
877.546	22523
877.674	22523
877.802	22599
877.93	22588
878.058	22504
878.185	22459
878.313	22485
878.441	22519
878.568	22443
878.696	22504
878.824	22577
878.951	22554
879.079	22805
879.206	22839
879.333	22713
879.461	22546
879.588	22812
879.715	22767
879.842	22911
879.97	22649
880.097	22470
880.224	22455
880.351	22409
880.478	22363
880.605	22455
880.732	22295
880.859	22599
880.986	22352
881.112	22459
881.239	22116
881.366	22169
881.493	22166
881.619	21873
881.746	21854
881.872	21903
881.999	21945
882.125	22006
882.252	22010
882.378	22010
882.505	22086
882.631	21888
882.757	21778
882.883	21728
883.01	21717
883.136	21694
883.262	21523
883.388	21515
883.514	21587
883.64	21709
883.766	21660
883.892	21424
884.018	21534
884.143	21564
884.269	21713
884.395	21416
884.52	21184
884.646	21214
884.772	21180
884.897	21218
885.023	21310
885.148	21424
885.274	21416
885.399	21378
885.524	21397
885.65	21416
885.775	21329
885.9	21291
886.025	21416
886.15	21370
886.275	21207
886.4	21138
886.525	21230
886.65	21154
886.775	21184
886.9	21412
887.025	21485
887.149	21222
887.274	21074
887.399	21032
887.523	21104
887.648	21062
887.773	21154
887.897	21119
888.021	21070
888.146	21028
888.27	21176
888.395	21203
888.519	21108
888.643	21127
888.767	21074
888.891	20857
889.015	20902
889.139	20979
889.263	20838
889.387	20918
889.511	21081
889.635	20979
889.759	20758
889.883	20921
890.006	20891
890.13	20944
890.254	20765
890.377	20762
890.501	20651
890.624	20556
890.748	20720
890.871	20480
890.995	20355
891.118	20393
891.241	20476
891.364	20362
891.488	20415
891.611	20488
891.734	20434
891.857	20579
891.98	20442
892.103	20389
892.226	20446
892.349	20374
892.471	20252
892.594	20324
892.717	20404
892.839	20374
892.962	20393
893.085	20412
893.207	20301
893.33	20195
893.452	20122
893.575	20396
893.697	20343
893.819	20415
893.941	20511
894.064	20412
894.186	20244
894.308	20111
894.43	20370
894.552	20355
894.674	20454
894.796	20240
894.918	20309
895.04	20282
895.161	20431
895.283	20328
895.405	20263
895.526	20278
895.648	20347
895.769	20282
895.891	20305
896.012	20427
896.134	20271
896.255	20358
896.376	20309
896.498	20290
896.619	20317
896.74	20328
896.861	20301
896.982	20811
897.103	20765
897.224	20541
897.345	20507
897.466	20598
897.587	20465
897.708	20625
897.828	20598
897.949	20503
898.07	20446
898.19	20400
898.311	20651
898.431	20415
898.552	20590
898.672	20545
898.792	20545
898.913	20492
899.033	20438
899.153	20259
899.273	20115
899.393	20225
899.513	20240
899.633	20332
899.753	20290
899.873	20183
899.993	20332
900.113	20191
900.232	20202
900.352	20267
900.472	20206
900.591	19982
900.711	20088
900.83	20092
900.95	20130
901.069	20096
901.189	19963
901.308	19734
901.427	19655
901.546	19696
901.665	19750
901.784	19639
901.904	19480
902.023	19377
902.141	19259
902.26	19285
902.379	19217
902.498	19244
902.617	19072
902.735	19171
902.854	19160
902.973	19046
903.091	18882
903.21	18802
903.328	18726
903.446	18711
903.565	18608
903.683	18593
903.801	18464
903.919	18665
904.038	18563
904.156	18445
904.274	18506
904.392	18426
904.51	18342
904.627	18334
904.745	18471
904.863	18407
904.981	18292
905.098	18045
905.216	18030
905.334	18045
905.451	18140
905.569	18083
905.686	18163
905.803	17965
905.921	17832
906.038	17878
906.155	17824
906.272	17691
906.389	17790
906.506	17589
906.623	17600
906.74	17585
906.857	17421
906.974	17463
907.091	17611
907.208	17748
907.324	17566
907.441	17425
907.557	17334
907.674	17330
907.79	17288
907.907	17315
908.023	17402
908.139	17334
908.256	17174
908.372	17239
908.488	17250
908.604	17014
908.72	17056
908.836	17060
908.952	17048
909.068	16946
909.184	17098
909.3	17029
909.415	16968
909.531	17014
909.647	16771
909.762	16706
909.878	16691
909.993	16812
910.108	16710
910.224	16778
910.339	16664
910.454	16466
910.57	16558
910.685	16527
910.8	16713
910.915	16694
911.03	16504
911.145	16493
911.259	16276
911.374	16333
911.489	16295
911.604	16226
911.718	16074
911.833	16090
911.947	16006
912.062	15994
912.176	15975
912.291	16063
912.405	16025
912.519	16192
912.633	16230
912.748	16112
912.862	16013
912.976	15979
913.09	15778
913.204	15679
913.318	15895
913.431	15972
913.545	15972
913.659	16032
913.772	15778
913.886	15808
914	15637
914.113	15743
914.226	15793
914.34	15747
914.453	15595
914.566	15644
914.68	15648
914.793	15557
914.906	15389
915.019	15310
915.132	15264
915.245	15222
915.358	15195
915.47	15287
915.583	15291
915.696	15313
915.809	15340
915.921	15408
916.034	15252
916.146	15135
916.259	15138
916.371	15264
916.483	15264
916.595	15108
916.708	14948
916.82	15146
916.932	15127
917.044	15089
917.156	15013
917.268	14906
917.38	14960
917.491	14849
917.603	15005
917.715	15062
917.826	15036
917.938	14777
918.049	14678
918.161	14834
918.272	14971
918.384	14967
918.495	14929
918.606	14708
918.717	14571
918.828	14705
918.939	14712
919.05	14541
919.161	14617
919.272	14450
919.383	14454
919.494	14693
919.604	14853
919.715	14632
919.826	14568
919.936	14724
920.047	14693
920.157	14670
920.267	14849
920.378	14648
920.488	14541
920.598	14796
920.708	14937
920.818	14693
920.928	14769
921.038	14800
921.148	14826
921.258	14564
921.368	14503
921.477	14389
921.587	14347
921.697	14252
921.806	14400
921.916	14259
922.025	14084
922.134	13974
922.244	13974
922.353	14043
922.462	13951
922.571	13799
922.68	13620
922.789	13605
922.898	13723
923.007	13620
923.116	13719
923.224	13670
923.333	13586
923.442	13499
923.55	13419
923.659	13483
923.767	13491
923.876	13369
923.984	13567
924.092	13411
924.201	13407
924.309	13407
924.417	13346
924.525	13358
924.633	13285
924.741	14142
924.849	13168
924.956	13278
925.064	13095
925.172	12993
925.279	13065
925.387	13050
925.494	13088
925.602	13145
925.709	13091
925.816	12985
925.924	12932
926.031	13065
926.138	12951
926.245	13069
926.352	12905
926.459	13080
926.566	12989
926.673	12913
926.779	12852
926.886	12798
926.993	12669
927.099	12688
927.206	12601
927.312	12589
927.419	12563
927.525	12612
927.631	12616
927.737	12582
927.843	12376
927.95	12369
928.056	12433
928.162	12395
928.267	12517
928.373	13004
928.479	12486
928.585	12277
928.69	12388
928.796	12418
928.901	12254
929.007	12178
929.112	12334
929.218	12232
929.323	12292
929.428	12148
929.533	12308
929.638	12106
929.743	12155
929.848	12140
929.953	12091
930.058	11973
930.163	11832
930.267	11901
930.372	12022
930.477	11794
930.581	12091
930.685	11790
930.79	11828
930.894	11786
930.998	11703
931.103	11847
931.207	11444
931.311	11433
931.415	11368
931.519	11166
931.623	11071
