Data from test_V78500241_3226.txt Node
Date: Fri Mar 25 15:32:19 CST 2022
User: usil
Spectrometer: V785-0024
Trigger mode: 0
Integration Time (sec): 4.000000E-1
Scans to average: 1
Nonlinearity correction enabled: false
Boxcar width: 0
Storing dark spectrum: false
XAxis mode: Wavelengths
Number of Pixels in Spectrum: 1024
>>>>>Begin Spectral Data<<<<<
801.071	27192
801.214	27157
801.356	26948
801.499	26990
801.641	26845
801.783	26727
801.926	26899
802.068	26716
802.211	26705
802.353	26651
802.496	26583
802.638	26431
802.78	26343
802.923	26237
803.065	26233
803.208	26301
803.35	26412
803.492	26404
803.635	26640
803.777	26446
803.919	26461
804.061	26891
804.204	26670
804.346	26446
804.488	26457
804.63	26537
804.773	26412
804.915	26469
805.057	26526
805.199	26564
805.341	26514
805.483	26480
805.626	26705
805.768	26564
805.91	26754
806.052	26625
806.194	26575
806.336	26720
806.478	26746
806.62	26648
806.762	26769
806.904	26925
807.046	27039
807.188	27108
807.33	27058
807.472	27096
807.614	26921
807.756	27058
807.898	26895
808.04	26731
808.182	26842
808.324	26887
808.465	26891
808.607	27142
808.749	27188
808.891	27287
809.033	27412
809.174	27363
809.316	27165
809.458	27310
809.6	27180
809.741	27325
809.883	27523
810.025	27496
810.166	27583
810.308	27504
810.45	27488
810.591	27408
810.733	27230
810.875	27348
811.016	27272
811.158	27161
811.299	27298
811.441	27393
811.582	27325
811.724	27226
811.865	27074
812.007	27146
812.148	27112
812.29	27256
812.431	27351
812.573	27595
812.714	27591
812.855	27720
812.997	27838
813.138	27922
813.279	27797
813.421	27705
813.562	27553
813.703	27439
813.845	27363
813.986	27047
814.127	26891
814.268	27017
814.41	26895
814.551	26815
814.692	27020
814.833	26883
814.974	26796
815.115	26925
815.256	26746
815.397	26735
815.539	26724
815.68	26579
815.821	26583
815.962	26705
816.103	26648
816.244	26469
816.385	26488
816.526	26419
816.666	26214
816.807	26107
816.948	26195
817.089	26286
817.23	26275
817.371	26138
817.512	26111
817.653	26126
817.793	26103
817.934	26111
818.075	26191
818.216	26100
818.356	26142
818.497	26115
818.638	25868
818.778	25928
818.919	25727
819.06	25970
819.2	26096
819.341	26176
819.481	26062
819.622	26244
819.762	26377
819.903	26427
820.043	26298
820.184	26412
820.324	26202
820.465	26286
820.605	26320
820.746	26313
820.886	25966
821.026	26176
821.167	26343
821.307	26259
821.447	26206
821.588	26103
821.728	25970
821.868	25677
822.008	25575
822.149	25590
822.289	25563
822.429	25369
822.569	25358
822.709	25422
822.849	25110
822.99	25179
823.13	24973
823.27	25057
823.41	24973
823.55	24909
823.69	24894
823.83	24916
823.97	24852
824.11	24745
824.25	24787
824.389	24738
824.529	24760
824.669	24711
824.809	24916
824.949	24856
825.089	24856
825.228	24829
825.368	24570
825.508	24589
825.648	24661
825.787	24635
825.927	24570
826.067	24642
826.206	24483
826.346	24700
826.485	24631
826.625	24597
826.765	24673
826.904	24601
827.044	24376
827.183	24395
827.323	24315
827.462	24388
827.601	24369
827.741	24201
827.88	24376
828.02	24235
828.159	24174
828.298	24292
828.437	24372
828.577	24224
828.716	24437
828.855	24270
828.994	24060
829.134	23954
829.273	23889
829.412	24015
829.551	23965
829.69	23988
829.829	24117
829.968	24072
830.107	24148
830.246	23958
830.385	24076
830.524	23939
830.663	24011
830.802	23775
830.941	23665
831.08	23661
831.219	23779
831.357	23760
831.496	23920
831.635	23737
831.774	23554
831.913	23539
832.051	23459
832.19	23463
832.329	23505
832.467	23387
832.606	23326
832.744	23330
832.883	23261
833.022	23296
833.16	23349
833.299	23349
833.437	23315
833.576	23474
833.714	23391
833.852	23433
833.991	23528
834.129	23505
834.267	23490
834.406	23436
834.544	23493
834.682	23417
834.821	23452
834.959	23589
835.097	23307
835.235	23501
835.373	23303
835.511	23345
835.65	23216
835.788	23204
835.926	23140
836.064	22991
836.202	23029
836.34	23349
836.478	23246
836.615	23265
836.753	23193
836.891	23459
837.029	23261
837.167	23231
837.305	23269
837.443	23204
837.58	23086
837.718	22938
837.856	23022
837.993	23010
838.131	23102
838.269	23052
838.406	22949
838.544	22919
838.681	22744
838.819	22744
838.956	22660
839.094	22500
839.231	22706
839.369	22782
839.506	22923
839.643	22858
839.781	22478
839.918	22455
840.055	22535
840.193	22512
840.33	22554
840.467	22599
840.604	22664
840.742	22771
840.879	22276
841.016	22500
841.153	22379
841.29	22569
841.427	22405
841.564	22428
841.701	22557
841.838	22421
841.975	22329
842.112	22474
842.249	22409
842.385	22261
842.522	22500
842.659	22295
842.796	22246
842.933	22261
843.069	22280
843.206	22230
843.343	22318
843.479	22341
843.616	22310
843.752	22158
843.889	22097
844.025	22314
844.162	22017
844.298	22322
844.435	22139
844.571	22021
844.708	21979
844.844	22131
844.98	22265
845.117	22097
845.253	22051
845.389	21998
845.525	22112
845.661	21941
845.798	21732
845.934	21835
846.07	21728
846.206	21873
846.342	21937
846.478	21800
846.614	21603
846.75	21435
846.886	21614
847.022	21568
847.158	21587
847.294	21720
847.429	21671
847.565	21511
847.701	21755
847.837	21351
847.972	21298
848.108	21412
848.244	21443
848.379	21245
848.515	21161
848.65	21218
848.786	21218
848.921	21096
849.057	21249
849.192	21287
849.328	21275
849.463	21203
849.598	21005
849.734	21074
849.869	21043
850.004	20910
850.14	20952
850.275	21009
850.41	20895
850.545	20941
850.68	20861
850.815	20986
850.95	20845
851.085	21089
851.22	21100
851.355	21017
851.49	20941
851.625	20899
851.76	20937
851.895	20899
852.03	21024
852.165	20937
852.299	20990
852.434	20994
852.569	20937
852.703	20857
852.838	21013
852.973	21154
853.107	21100
853.242	20880
853.376	20902
853.511	20712
853.645	20602
853.78	20712
853.914	20609
854.048	20617
854.183	20686
854.317	20826
854.451	20952
854.585	20750
854.72	20708
854.854	20834
854.988	20731
855.122	20727
855.256	20522
855.39	20659
855.524	20868
855.658	20826
855.792	20739
855.926	20785
856.06	20796
856.194	20826
856.327	20823
856.461	20716
856.595	20735
856.729	20792
856.862	20800
856.996	20750
857.13	20804
857.263	20853
857.397	20781
857.53	20693
857.664	20872
857.797	20777
857.931	20876
858.064	20727
858.197	20891
858.331	20830
858.464	20613
858.597	20648
858.731	20727
858.864	20632
858.997	20632
859.13	20819
859.263	20800
859.396	20861
859.529	20769
859.662	20712
859.795	20727
859.928	20769
860.061	20899
860.194	20944
860.327	20811
860.46	20838
860.592	20777
860.725	20918
860.858	20815
860.99	20826
861.123	20655
861.256	20686
861.388	20762
861.521	21294
861.653	20640
861.786	20564
861.918	20598
862.05	20556
862.183	20781
862.315	20804
862.447	20724
862.58	20663
862.712	20434
862.844	20450
862.976	20499
863.108	20533
863.24	20895
863.372	20305
863.504	20465
863.636	20530
863.768	20514
863.9	20446
864.032	20442
864.164	20564
864.296	20495
864.428	20507
864.559	20526
864.691	20568
864.823	20457
864.954	20476
865.086	20419
865.217	20484
865.349	20370
865.48	20446
865.612	20438
865.743	20476
865.875	20332
866.006	20282
866.137	20347
866.269	20415
866.4	20362
866.531	20305
866.662	20305
866.793	20412
866.924	20290
867.055	20324
867.186	20454
867.317	20332
867.448	20396
867.579	20282
867.71	20271
867.841	20271
867.972	20294
868.103	20370
868.233	20381
868.364	20370
868.495	20556
868.625	20457
868.756	20636
868.886	20492
869.017	20503
869.147	20708
869.278	20617
869.408	20583
869.539	20537
869.669	20575
869.799	20644
869.929	20769
870.06	20644
870.19	20735
870.32	20842
870.45	20891
870.58	20971
870.71	21032
870.84	20971
870.97	20944
871.1	20914
871.23	21131
871.36	21188
871.489	20990
871.619	21024
871.749	21218
871.879	21146
872.008	21260
872.138	21233
872.267	21241
872.397	21089
872.526	20956
872.656	21047
872.785	21001
872.915	21207
873.044	21260
873.173	21249
873.303	21268
873.432	21233
873.561	21363
873.69	21252
873.819	21264
873.948	21207
874.077	21081
874.206	21081
874.335	21226
874.464	21287
874.593	21378
874.722	21348
874.851	21458
874.979	21431
875.108	21454
875.237	21454
875.365	21272
875.494	21310
875.623	21386
875.751	21310
875.88	21469
876.008	21458
876.136	21523
876.265	21728
876.393	22021
876.521	21774
876.65	21831
876.778	21785
876.906	21797
877.034	21667
877.162	21785
877.29	21724
877.418	21819
877.546	21842
877.674	21766
877.802	21770
877.93	21701
878.058	21637
878.185	21766
878.313	21652
878.441	21739
878.568	21606
878.696	21690
878.824	21835
878.951	21781
879.079	21994
879.206	21979
879.333	21823
879.461	21766
879.588	21800
879.715	22002
879.842	22090
879.97	21854
880.097	21660
880.224	21656
880.351	21606
880.478	21526
880.605	21557
880.732	21587
880.859	21903
880.986	21641
881.112	21610
881.239	21393
881.366	21332
881.493	21287
881.619	21241
881.746	21199
881.872	21249
881.999	21176
882.125	21169
882.252	21214
882.378	21131
882.505	21256
882.631	20990
882.757	20838
882.883	20941
883.01	20902
883.136	20769
883.262	20773
883.388	20811
883.514	20830
883.64	20872
883.766	20758
883.892	20632
884.018	20724
884.143	20823
884.269	21051
884.395	20651
884.52	20533
884.646	20533
884.772	20545
884.897	20473
885.023	20651
885.148	20598
885.274	20705
885.399	20655
885.524	20583
885.65	20492
885.775	20552
885.9	20446
886.025	20648
886.15	20552
886.275	20495
886.4	20396
886.525	20492
886.65	20381
886.775	20545
886.9	20640
887.025	20701
887.149	20469
887.274	20332
887.399	20252
887.523	20320
887.648	20221
887.773	20351
887.897	20320
888.021	20278
888.146	20210
888.27	20358
888.395	20465
888.519	20244
888.643	20210
888.767	20404
888.891	20267
889.015	20142
889.139	20164
889.263	20134
889.387	20233
889.511	20290
889.635	20210
889.759	20058
889.883	20046
890.006	20077
890.13	20256
890.254	19986
890.377	19902
890.501	19944
890.624	19822
890.748	19864
890.871	19689
890.995	19719
891.118	19742
891.241	19727
891.364	19639
891.488	19780
891.611	19742
891.734	19651
891.857	19704
891.98	19693
892.103	19681
892.226	19677
892.349	19677
892.471	19502
892.594	19624
892.717	19590
892.839	19575
892.962	19693
893.085	19670
893.207	19571
893.33	19483
893.452	19616
893.575	19582
893.697	19670
893.819	19715
893.941	19666
894.064	19681
894.186	19514
894.308	19521
894.43	19719
894.552	19715
894.674	19639
894.796	19438
894.918	19647
895.04	19544
895.161	19681
895.283	19567
895.405	19556
895.526	19681
895.648	19655
895.769	19540
895.891	19647
896.012	19719
896.134	19719
896.255	19647
896.376	19518
896.498	19586
896.619	19666
896.74	19457
896.861	19620
896.982	19993
897.103	20054
897.224	19921
897.345	19803
897.466	19769
897.587	19753
897.708	19951
897.828	19936
897.949	19791
898.07	19613
898.19	19883
898.311	20031
898.431	19723
898.552	19814
898.672	19879
898.792	19822
898.913	19852
899.033	19780
899.153	19594
899.273	19449
899.393	19613
899.513	19685
899.633	19632
899.753	19674
899.873	19567
899.993	19575
900.113	19552
900.232	19559
900.352	19563
900.472	19544
900.591	19373
900.711	19445
900.83	19388
900.95	19422
901.069	19457
901.189	19301
901.308	18962
901.427	18878
901.546	18993
901.665	18905
901.784	18928
901.904	18833
902.023	18738
902.141	18547
902.26	18452
902.379	18448
902.498	18551
902.617	18391
902.735	18509
902.854	18429
902.973	18372
903.091	18171
903.21	18190
903.328	18068
903.446	18125
903.565	18053
903.683	17927
903.801	17794
903.919	17992
904.038	17916
904.156	17687
904.274	17771
904.392	17832
904.51	17741
904.627	17767
904.745	17745
904.863	17840
904.981	17619
905.098	17414
905.216	17349
905.334	17421
905.451	17512
905.569	17326
905.686	17410
905.803	17406
905.921	17181
906.038	17334
906.155	17311
906.272	17170
906.389	17140
906.506	17014
906.623	17083
906.74	16889
906.857	16885
906.974	17010
907.091	16999
907.208	17200
907.324	17033
907.441	16824
907.557	16740
907.674	16580
907.79	16615
907.907	16755
908.023	16729
908.139	16691
908.256	16615
908.372	16527
908.488	16653
908.604	16394
908.72	16386
908.836	16447
908.952	16409
909.068	16512
909.184	16618
909.3	16470
909.415	16462
909.531	16314
909.647	16139
909.762	16086
909.878	16112
909.993	16124
910.108	16074
910.224	15972
910.339	16051
910.454	16036
910.57	15861
910.685	15941
910.8	16093
910.915	16105
911.03	15994
911.145	15667
911.259	15682
911.374	15709
911.489	15618
911.604	15679
911.718	15492
911.833	15473
911.947	15401
912.062	15306
912.176	15515
912.291	15481
912.405	15450
912.519	15690
912.633	15675
912.748	15523
912.862	15500
912.976	15230
913.09	15180
913.204	15256
913.318	15268
913.431	15294
913.545	15291
913.659	15401
913.772	15222
913.886	15157
914	15093
914.113	15135
914.226	15203
914.34	15150
914.453	14944
914.566	15173
914.68	14887
914.793	14944
914.906	14788
915.019	14735
915.132	14613
915.245	14720
915.358	14754
915.47	14701
915.583	14788
915.696	14830
915.809	14838
915.921	14842
916.034	14705
916.146	14610
916.259	14598
916.371	14727
916.483	14712
916.595	14575
916.708	14583
916.82	14632
916.932	14469
917.044	14465
917.156	14473
917.268	14309
917.38	14355
917.491	14415
917.603	14358
917.715	14495
917.826	14408
917.938	14298
918.049	14221
918.161	14328
918.272	14507
918.384	14473
918.495	14324
918.606	14191
918.717	14039
918.828	14164
918.939	14191
919.05	14210
919.161	14180
919.272	13940
919.383	13989
919.494	14248
919.604	14347
919.715	14157
919.826	13989
919.936	13997
920.047	14130
920.157	14096
920.267	14305
920.378	14084
920.488	14107
920.598	14187
920.708	14362
920.818	14240
920.928	14168
921.038	14465
921.148	14244
921.258	14115
921.368	13997
921.477	13921
921.587	13868
921.697	13700
921.806	13852
921.916	13708
922.025	13643
922.134	13521
922.244	13567
922.353	13495
922.462	13483
922.571	13270
922.68	13164
922.789	13194
922.898	13152
923.007	13080
923.116	13282
923.224	13137
923.333	13095
923.442	13000
923.55	12943
923.659	13015
923.767	13076
923.876	12772
923.984	13019
924.092	12920
924.201	12943
924.309	12840
924.417	12856
924.525	12798
924.633	12909
924.741	13750
924.849	12608
924.956	12795
925.064	12585
925.172	12627
925.279	12589
925.387	12585
925.494	12669
925.602	12684
925.709	12631
925.816	12475
925.924	12528
926.031	12650
926.138	12528
926.245	12574
926.352	12391
926.459	12684
926.566	12665
926.673	12486
926.779	12369
926.886	12350
926.993	12289
927.099	12239
927.206	12049
927.312	12163
927.419	12175
927.525	12194
927.631	12152
927.737	12121
927.843	12034
927.95	11973
928.056	11977
928.162	12022
928.267	12049
928.373	12726
928.479	12049
928.585	11859
928.69	11908
928.796	11950
928.901	11870
929.007	11729
929.112	11866
929.218	11790
929.323	11809
929.428	11726
929.533	11790
929.638	11627
929.743	11767
929.848	11764
929.953	11634
930.058	11592
930.163	11471
930.267	11414
930.372	11554
930.477	11391
930.581	11604
930.685	11455
930.79	11337
930.894	11334
930.998	11246
931.103	11421
931.207	11064
931.311	11003
931.415	10908
931.519	10725
931.623	10664
