Data from test_V78500241_440.txt Node
Date: Fri Mar 25 15:12:55 CST 2022
User: usil
Spectrometer: V785-0024
Trigger mode: 0
Integration Time (sec): 4.000000E-1
Scans to average: 1
Nonlinearity correction enabled: false
Boxcar width: 0
Storing dark spectrum: false
XAxis mode: Wavelengths
Number of Pixels in Spectrum: 1024
>>>>>Begin Spectral Data<<<<<
801.071	26971
801.214	26921
801.356	26765
801.499	26598
801.641	26609
801.783	26545
801.926	26648
802.068	26587
802.211	26328
802.353	26438
802.496	26263
802.638	26046
802.78	26054
802.923	26313
803.065	26092
803.208	26180
803.35	26202
803.492	26393
803.635	26358
803.777	26176
803.919	26332
804.061	26632
804.204	26343
804.346	26324
804.488	26282
804.63	26309
804.773	26286
804.915	26377
805.057	26431
805.199	26309
805.341	26427
805.483	26313
805.626	26415
805.768	26252
805.91	26381
806.052	26461
806.194	26453
806.336	26644
806.478	26549
806.62	26484
806.762	26632
806.904	26705
807.046	26864
807.188	26880
807.33	26800
807.472	27001
807.614	26777
807.756	26727
807.898	26670
808.04	26659
808.182	26689
808.324	26670
808.465	26640
808.607	26765
808.749	26891
808.891	27089
809.033	27112
809.174	27055
809.316	26994
809.458	27036
809.6	27024
809.741	27096
809.883	27207
810.025	27252
810.166	27279
810.308	27344
810.45	27291
810.591	27226
810.733	27020
810.875	26967
811.016	26963
811.158	26906
811.299	27169
811.441	27032
811.582	27039
811.724	26982
811.865	26994
812.007	26944
812.148	27032
812.29	26929
812.431	27055
812.573	27340
812.714	27378
812.855	27329
812.997	27542
813.138	27644
813.279	27698
813.421	27610
813.562	27473
813.703	27233
813.845	27119
813.986	26921
814.127	26842
814.268	26712
814.41	26727
814.551	26499
814.692	26689
814.833	26644
814.974	26667
815.115	26590
815.256	26552
815.397	26518
815.539	26480
815.68	26587
815.821	26473
815.962	26431
816.103	26328
816.244	26214
816.385	26149
816.526	26237
816.666	26100
816.807	25989
816.948	26081
817.089	26096
817.23	26073
817.371	25917
817.512	25944
817.653	25826
817.793	25921
817.934	25822
818.075	25814
818.216	25959
818.356	25944
818.497	25772
818.638	25613
818.778	25628
818.919	25613
819.06	25761
819.2	25830
819.341	25822
819.481	25833
819.622	26100
819.762	26278
819.903	26157
820.043	26210
820.184	26058
820.324	26008
820.465	26024
820.605	26122
820.746	26008
820.886	25902
821.026	26008
821.167	25997
821.307	25997
821.447	26016
821.588	25826
821.728	25647
821.868	25552
822.008	25479
822.149	25350
822.289	25400
822.429	25236
822.569	25061
822.709	25164
822.849	24886
822.99	24844
823.13	24920
823.27	24814
823.41	24745
823.55	24673
823.69	24658
823.83	24669
823.97	24555
824.11	24551
824.25	24372
824.389	24582
824.529	24582
824.669	24642
824.809	24623
824.949	24555
825.089	24483
825.228	24483
825.368	24456
825.508	24376
825.648	24361
825.787	24429
825.927	24498
826.067	24456
826.206	24281
826.346	24437
826.485	24422
826.625	24380
826.765	24525
826.904	24559
827.044	24251
827.183	24197
827.323	24079
827.462	24197
827.601	24133
827.741	24152
827.88	23996
828.02	24114
828.159	24068
828.298	23961
828.437	24228
828.577	24182
828.716	24079
828.855	24007
828.994	23866
829.134	23805
829.273	23935
829.412	23699
829.551	23703
829.69	23817
829.829	23874
829.968	23805
830.107	23813
830.246	23897
830.385	23752
830.524	23657
830.663	23680
830.802	23573
830.941	23509
831.08	23368
831.219	23562
831.357	23497
831.496	23687
831.635	23440
831.774	23410
831.913	23296
832.051	23349
832.19	23193
832.329	23223
832.467	23147
832.606	23174
832.744	23102
832.883	23212
833.022	23025
833.16	23113
833.299	23060
833.437	23143
833.576	23258
833.714	23284
833.852	23200
833.991	23330
834.129	23299
834.267	23242
834.406	23246
834.544	23178
834.682	23269
834.821	23094
834.959	23341
835.097	23075
835.235	23235
835.373	23102
835.511	23227
835.65	23075
835.788	22980
835.926	22934
836.064	22805
836.202	22908
836.34	23044
836.478	23174
836.615	23029
836.753	23140
836.891	23041
837.029	23083
837.167	23060
837.305	23033
837.443	22972
837.58	22850
837.718	22927
837.856	22987
837.993	22786
838.131	22949
838.269	22664
838.406	22869
838.544	22710
838.681	22527
838.819	22531
838.956	22379
839.094	22299
839.231	22474
839.369	22641
839.506	22854
839.643	22573
839.781	22375
839.918	22185
840.055	22348
840.193	22443
840.33	22238
840.467	22375
840.604	22303
840.742	22649
840.879	22067
841.016	22188
841.153	22196
841.29	22390
841.427	22344
841.564	22276
841.701	22303
841.838	22272
841.975	22219
842.112	22112
842.249	22128
842.385	22067
842.522	22375
842.659	22147
842.796	22067
842.933	22051
843.069	21945
843.206	22086
843.343	22059
843.479	22036
843.616	22029
843.752	21831
843.889	21797
844.025	21899
844.162	21739
844.298	21972
844.435	21774
844.571	21766
844.708	21922
844.844	22086
844.98	22010
845.117	21911
845.253	21663
845.389	21728
845.525	21766
845.661	21736
845.798	21603
845.934	21690
846.07	21603
846.206	21530
846.342	21679
846.478	21545
846.614	21466
846.75	21363
846.886	21435
847.022	21458
847.158	21260
847.294	21329
847.429	21302
847.565	21302
847.701	21519
847.837	21127
847.972	21024
848.108	21192
848.244	21131
848.379	20899
848.515	20887
848.65	20796
848.786	20986
848.921	20933
849.057	21005
849.192	20971
849.328	21013
849.463	20944
849.598	20765
849.734	20796
849.869	20845
850.004	20651
850.14	20644
850.275	20629
850.41	20617
850.545	20541
850.68	20674
850.815	20667
850.95	20606
851.085	20918
851.22	20705
851.355	20754
851.49	20636
851.625	20659
851.76	20560
851.895	20598
852.03	20495
852.165	20629
852.299	20686
852.434	20838
852.569	20689
852.703	20579
852.838	20746
852.973	20830
853.107	20743
853.242	20644
853.376	20568
853.511	20423
853.645	20431
853.78	20689
853.914	20541
854.048	20613
854.183	20480
854.317	20541
854.451	20617
854.585	20446
854.72	20541
854.854	20667
854.988	20484
855.122	20571
855.256	20457
855.39	20465
855.524	20667
855.658	20549
855.792	20598
855.926	20518
856.06	20552
856.194	20522
856.327	20507
856.461	20469
856.595	20355
856.729	20507
856.862	20598
856.996	20469
857.13	20556
857.263	20564
857.397	20625
857.53	20571
857.664	20522
857.797	20545
857.931	20549
858.064	20446
858.197	20701
858.331	20450
858.464	20415
858.597	20465
858.731	20454
858.864	20374
858.997	20526
859.13	20518
859.263	20602
859.396	20480
859.529	20431
859.662	20381
859.795	20434
859.928	20594
860.061	20663
860.194	20564
860.327	20537
860.46	20526
860.592	20625
860.725	20587
860.858	20617
860.99	20590
861.123	20465
861.256	20351
861.388	20488
861.521	21310
861.653	20404
861.786	20313
861.918	20336
862.05	20309
862.183	20469
862.315	20347
862.447	20518
862.58	20412
862.712	20271
862.844	20119
862.976	20278
863.108	20362
863.24	20636
863.372	20233
863.504	20309
863.636	20149
863.768	20301
863.9	20256
864.032	20126
864.164	20065
864.296	20259
864.428	20218
864.559	20275
864.691	20301
864.823	20229
864.954	20218
865.086	20214
865.217	20157
865.349	20005
865.48	20237
865.612	20092
865.743	20191
865.875	20214
866.006	20157
866.137	20088
866.269	20237
866.4	20031
866.531	20168
866.662	20062
866.793	19963
866.924	20058
867.055	19997
867.186	20081
867.317	19963
867.448	19986
867.579	20012
867.71	19978
867.841	19974
867.972	20126
868.103	20115
868.233	19955
868.364	20100
868.495	20115
868.625	20214
868.756	20332
868.886	20336
869.017	20278
869.147	20549
869.278	20583
869.408	20294
869.539	20408
869.669	20438
869.799	20324
869.929	20343
870.06	20438
870.19	20648
870.32	20560
870.45	20636
870.58	20545
870.71	20773
870.84	20902
870.97	20659
871.1	20682
871.23	20960
871.36	20887
871.489	20887
871.619	20864
871.749	20952
871.879	20895
872.008	20921
872.138	20960
872.267	20845
872.397	20819
872.526	20712
872.656	20636
872.785	20716
872.915	20986
873.044	21043
873.173	20864
873.303	20941
873.432	20990
873.561	21062
873.69	20929
873.819	21020
873.948	21047
874.077	20804
874.206	20902
874.335	20944
874.464	21009
874.593	21233
874.722	21100
874.851	21256
874.979	21146
875.108	21199
875.237	21142
875.365	21112
875.494	21051
875.623	21249
875.751	21100
875.88	21184
876.008	21313
876.136	21378
876.265	21519
876.393	21743
876.521	21660
876.65	21599
876.778	21481
876.906	21454
877.034	21545
877.162	21496
877.29	21401
877.418	21538
877.546	21622
877.674	21515
877.802	21443
877.93	21572
878.058	21557
878.185	21386
878.313	21454
878.441	21576
878.568	21359
878.696	21473
878.824	21492
878.951	21618
879.079	21587
879.206	21724
879.333	21709
879.461	21610
879.588	21660
879.715	21667
879.842	21770
879.97	21580
880.097	21367
880.224	21344
880.351	21367
880.478	21363
880.605	21260
880.732	21256
880.859	21656
880.986	21405
881.112	21428
881.239	21264
881.366	21142
881.493	20876
881.619	20956
881.746	21017
881.872	21024
881.999	20941
882.125	20823
882.252	20921
882.378	20838
882.505	21058
882.631	20838
882.757	20739
882.883	20686
883.01	20754
883.136	20682
883.262	20514
883.388	20461
883.514	20648
883.64	20731
883.766	20488
883.892	20377
884.018	20484
884.143	20419
884.269	20716
884.395	20457
884.52	20377
884.646	20389
884.772	20218
884.897	20221
885.023	20324
885.148	20396
885.274	20492
885.399	20442
885.524	20317
885.65	20412
885.775	20328
885.9	20385
886.025	20393
886.15	20408
886.275	20191
886.4	20191
886.525	20252
886.65	20218
886.775	20187
886.9	20320
887.025	20533
887.149	20290
887.274	20191
887.399	20191
887.523	20050
887.648	20084
887.773	19970
887.897	20153
888.021	20252
888.146	20122
888.27	20225
888.395	20054
888.519	20054
888.643	20096
888.767	20233
888.891	19982
889.015	19940
889.139	19955
889.263	19875
889.387	19925
889.511	20092
889.635	20012
889.759	19818
889.883	19852
890.006	19826
890.13	20046
890.254	19803
890.377	19791
890.501	19635
890.624	19529
890.748	19670
890.871	19400
890.995	19415
891.118	19293
891.241	19480
891.364	19388
891.488	19563
891.611	19480
891.734	19422
891.857	19495
891.98	19354
892.103	19571
892.226	19388
892.349	19426
892.471	19255
892.594	19331
892.717	19514
892.839	19422
892.962	19324
893.085	19411
893.207	19426
893.33	19324
893.452	19358
893.575	19415
893.697	19354
893.819	19518
893.941	19590
894.064	19460
894.186	19327
894.308	19187
894.43	19407
894.552	19495
894.674	19445
894.796	19274
894.918	19400
895.04	19320
895.161	19533
895.283	19426
895.405	19270
895.526	19537
895.648	19327
895.769	19396
895.891	19388
896.012	19491
896.134	19350
896.255	19362
896.376	19324
896.498	19419
896.619	19312
896.74	19377
896.861	19457
896.982	19734
897.103	19814
897.224	19811
897.345	19689
897.466	19510
897.587	19540
897.708	19685
897.828	19666
897.949	19674
898.07	19430
898.19	19605
898.311	19738
898.431	19525
898.552	19491
898.672	19765
898.792	19715
898.913	19734
899.033	19620
899.153	19312
899.273	19354
899.393	19331
899.513	19407
899.633	19521
899.753	19350
899.873	19396
899.993	19327
900.113	19282
900.232	19369
900.352	19343
900.472	19263
900.591	19190
900.711	19164
900.83	19076
900.95	19217
901.069	19403
901.189	19088
901.308	18905
901.427	18673
901.546	18802
901.665	18810
901.784	18798
901.904	18604
902.023	18414
902.141	18209
902.26	18361
902.379	18327
902.498	18258
902.617	18266
902.735	18273
902.854	18148
902.973	18163
903.091	17996
903.21	17912
903.328	18060
903.446	17832
903.565	17920
903.683	17767
903.801	17684
903.919	17676
904.038	17718
904.156	17619
904.274	17577
904.392	17444
904.51	17497
904.627	17433
904.745	17623
904.863	17714
904.981	17467
905.098	17299
905.216	17307
905.334	17288
905.451	17166
905.569	17162
905.686	17193
905.803	17250
905.921	17098
906.038	17140
906.155	17041
906.272	17006
906.389	17025
906.506	16767
906.623	16744
906.74	16801
906.857	16497
906.974	16710
907.091	16774
907.208	16831
907.324	16805
907.441	16683
907.557	16546
907.674	16550
907.79	16356
907.907	16344
908.023	16466
908.139	16535
908.256	16474
908.372	16337
908.488	16470
908.604	16272
908.72	16181
908.836	16287
908.952	16246
909.068	16265
909.184	16295
909.3	16158
909.415	16246
909.531	16242
909.647	15956
909.762	15998
909.878	16006
909.993	15983
910.108	15838
910.224	15774
910.339	15930
910.454	15728
910.57	15797
910.685	15747
910.8	16063
910.915	15937
911.03	15793
911.145	15614
911.259	15542
911.374	15515
911.489	15481
911.604	15439
911.718	15260
911.833	15245
911.947	15237
912.062	15074
912.176	15252
912.291	15313
912.405	15317
912.519	15545
912.633	15412
912.748	15386
912.862	15291
912.976	15173
913.09	15062
913.204	15089
913.318	15112
913.431	15081
913.545	15230
913.659	15104
913.772	15051
913.886	14960
914	14899
914.113	15001
914.226	14998
914.34	14994
914.453	14792
914.566	14883
914.68	14678
914.793	14811
914.906	14625
915.019	14541
915.132	14499
915.245	14549
915.358	14560
915.47	14514
915.583	14560
915.696	14587
915.809	14659
915.921	14697
916.034	14545
916.146	14377
916.259	14324
916.371	14499
916.483	14419
916.595	14385
916.708	14427
916.82	14393
916.932	14377
917.044	14351
917.156	14298
917.268	14218
917.38	14298
917.491	14138
917.603	14225
917.715	14263
917.826	14240
917.938	14180
918.049	14096
918.161	14115
918.272	14362
918.384	14221
918.495	14149
918.606	14039
918.717	13849
918.828	14020
918.939	13967
919.05	13940
919.161	13974
919.272	13761
919.383	13837
919.494	13947
919.604	14183
919.715	13959
919.826	13845
919.936	13890
920.047	14001
920.157	13898
920.267	14123
920.378	14012
920.488	13967
920.598	14218
920.708	14244
920.818	14164
920.928	14054
921.038	14282
921.148	14202
921.258	13936
921.368	13852
921.477	13769
921.587	13674
921.697	13632
921.806	13674
921.916	13594
922.025	13434
922.134	13419
922.244	13247
922.353	13285
922.462	13206
922.571	13171
922.68	12985
922.789	12973
922.898	13110
923.007	12962
923.116	12970
923.224	12951
923.333	13069
923.442	12863
923.55	12802
923.659	12844
923.767	12924
923.876	12776
923.984	12852
924.092	12741
924.201	12669
924.309	12779
924.417	12722
924.525	12734
924.633	12665
924.741	13655
924.849	12498
924.956	12703
925.064	12471
925.172	12388
925.279	12528
925.387	12494
925.494	12479
925.602	12521
925.709	12365
925.816	12460
925.924	12429
926.031	12585
926.138	12369
926.245	12422
926.352	12342
926.459	12460
926.566	12517
926.673	12410
926.779	12175
926.886	12228
926.993	12072
927.099	12114
927.206	12015
927.312	11916
927.419	12209
927.525	12030
927.631	11999
927.737	11935
927.843	11950
927.95	11798
928.056	11908
928.162	11904
928.267	11977
928.373	12536
928.479	11916
928.585	11710
928.69	11710
928.796	11824
928.901	11794
929.007	11596
929.112	11680
929.218	11821
929.323	11646
929.428	11577
929.533	11821
929.638	11573
929.743	11600
929.848	11604
929.953	11535
930.058	11520
930.163	11284
930.267	11372
930.372	11425
930.477	11223
930.581	11600
930.685	11322
930.79	11220
930.894	11208
930.998	11185
931.103	11288
931.207	11067
931.311	10980
931.415	10820
931.519	10607
931.623	10588
