Data from test_V78500241_3056.txt Node
Date: Fri Mar 25 15:31:08 CST 2022
User: usil
Spectrometer: V785-0024
Trigger mode: 0
Integration Time (sec): 4.000000E-1
Scans to average: 1
Nonlinearity correction enabled: false
Boxcar width: 0
Storing dark spectrum: false
XAxis mode: Wavelengths
Number of Pixels in Spectrum: 1024
>>>>>Begin Spectral Data<<<<<
801.071	27268
801.214	27245
801.356	27005
801.499	26986
801.641	26773
801.783	26743
801.926	26891
802.068	26788
802.211	26606
802.353	26609
802.496	26583
802.638	26446
802.78	26530
802.923	26347
803.065	26309
803.208	26305
803.35	26450
803.492	26518
803.635	26625
803.777	26560
803.919	26560
804.061	26891
804.204	26514
804.346	26606
804.488	26518
804.63	26522
804.773	26317
804.915	26537
805.057	26697
805.199	26457
805.341	26552
805.483	26705
805.626	26606
805.768	26549
805.91	26590
806.052	26674
806.194	26648
806.336	26929
806.478	26785
806.62	26682
806.762	26804
806.904	26804
807.046	27176
807.188	27077
807.33	27195
807.472	27192
807.614	26971
807.756	27009
807.898	27001
808.04	26830
808.182	26883
808.324	26925
808.465	26975
808.607	27096
808.749	27294
808.891	27447
809.033	27454
809.174	27378
809.316	27245
809.458	27150
809.6	27291
809.741	27515
809.883	27367
810.025	27690
810.166	27511
810.308	27580
810.45	27481
810.591	27420
810.733	27340
810.875	27523
811.016	27127
811.158	27226
811.299	27241
811.441	27473
811.582	27435
811.724	27291
811.865	27241
812.007	27302
812.148	27287
812.29	27294
812.431	27405
812.573	27576
812.714	27686
812.855	27797
812.997	27895
813.138	28029
813.279	27949
813.421	27751
813.562	27800
813.703	27583
813.845	27401
813.986	27169
814.127	27070
814.268	26929
814.41	26967
814.551	26876
814.692	26902
814.833	26899
814.974	26838
815.115	26994
815.256	26868
815.397	26769
815.539	26746
815.68	26781
815.821	26743
815.962	26682
816.103	26636
816.244	26609
816.385	26457
816.526	26469
816.666	26351
816.807	26157
816.948	26309
817.089	26115
817.23	26256
817.371	26271
817.512	26161
817.653	26210
817.793	26206
817.934	26248
818.075	26103
818.216	25993
818.356	26092
818.497	26024
818.638	25970
818.778	25883
818.919	25917
819.06	26039
819.2	26172
819.341	26240
819.481	26065
819.622	26199
819.762	26442
819.903	26450
820.043	26347
820.184	26362
820.324	26465
820.465	26278
820.605	26396
820.746	26351
820.886	26145
821.026	26218
821.167	26199
821.307	26423
821.447	26122
821.588	25997
821.728	25997
821.868	25826
822.008	25704
822.149	25594
822.289	25712
822.429	25430
822.569	25327
822.709	25388
822.849	25194
822.99	25228
823.13	25015
823.27	25118
823.41	25061
823.55	24996
823.69	25053
823.83	24905
823.97	24939
824.11	24719
824.25	24745
824.389	24684
824.529	24886
824.669	24859
824.809	24954
824.949	24833
825.089	24821
825.228	24741
825.368	24688
825.508	24669
825.648	24692
825.787	24749
825.927	24696
826.067	24661
826.206	24715
826.346	24806
826.485	24700
826.625	24631
826.765	24757
826.904	24787
827.044	24498
827.183	24388
827.323	24281
827.462	24502
827.601	24369
827.741	24361
827.88	24395
828.02	24471
828.159	24403
828.298	24384
828.437	24422
828.577	24323
828.716	24433
828.855	24140
828.994	24003
829.134	24102
829.273	24152
829.412	24129
829.551	24030
829.69	24041
829.829	24083
829.968	24133
830.107	24258
830.246	24068
830.385	24038
830.524	23904
830.663	23874
830.802	23775
830.941	23745
831.08	23680
831.219	23920
831.357	23691
831.496	24053
831.635	23775
831.774	23627
831.913	23535
832.051	23459
832.19	23436
832.329	23501
832.467	23395
832.606	23326
832.744	23273
832.883	23383
833.022	23379
833.16	23368
833.299	23364
833.437	23379
833.576	23326
833.714	23379
833.852	23551
833.991	23429
834.129	23551
834.267	23425
834.406	23573
834.544	23505
834.682	23452
834.821	23280
834.959	23634
835.097	23330
835.235	23440
835.373	23334
835.511	23383
835.65	23356
835.788	23307
835.926	23193
836.064	23121
836.202	23105
836.34	23273
836.478	23296
836.615	23166
836.753	23121
836.891	23330
837.029	23231
837.167	23227
837.305	23265
837.443	23212
837.58	23041
837.718	23216
837.856	23113
837.993	23029
838.131	23056
838.269	23079
838.406	23181
838.544	22885
838.681	22965
838.819	22698
838.956	22656
839.094	22523
839.231	22649
839.369	22755
839.506	22961
839.643	22877
839.781	22611
839.918	22569
840.055	22653
840.193	22592
840.33	22542
840.467	22592
840.604	22611
840.742	22847
840.879	22512
841.016	22417
841.153	22428
841.29	22554
841.427	22485
841.564	22508
841.701	22592
841.838	22436
841.975	22394
842.112	22546
842.249	22306
842.385	22348
842.522	22455
842.659	22268
842.796	22325
842.933	22238
843.069	22280
843.206	22219
843.343	22322
843.479	22238
843.616	22303
843.752	22101
843.889	22093
844.025	22215
844.162	22070
844.298	22147
844.435	22082
844.571	21972
844.708	22143
844.844	22238
844.98	22135
845.117	21979
845.253	21934
845.389	21918
845.525	22032
845.661	21907
845.798	21774
845.934	21774
846.07	21804
846.206	21797
846.342	21922
846.478	21804
846.614	21561
846.75	21420
846.886	21462
847.022	21580
847.158	21553
847.294	21519
847.429	21545
847.565	21557
847.701	21724
847.837	21146
847.972	21176
848.108	21386
848.244	21351
848.379	21188
848.515	21161
848.65	21001
848.786	21039
848.921	21203
849.057	21176
849.192	21294
849.328	21032
849.463	21070
849.598	21043
849.734	20853
849.869	20963
850.004	20925
850.14	20960
850.275	20971
850.41	20781
850.545	20769
850.68	20838
850.815	20819
850.95	20861
851.085	21055
851.22	21093
851.355	20883
851.49	20826
851.625	20857
851.76	20849
851.895	20830
852.03	20807
852.165	20906
852.299	20842
852.434	20838
852.569	20838
852.703	20880
852.838	20933
852.973	20975
853.107	20979
853.242	20792
853.376	20701
853.511	20701
853.645	20644
853.78	20788
853.914	20716
854.048	20708
854.183	20712
854.317	20678
854.451	20948
854.585	20762
854.72	20781
854.854	20796
854.988	20606
855.122	20781
855.256	20450
855.39	20788
855.524	20823
855.658	20792
855.792	20830
855.926	20629
856.06	20693
856.194	20857
856.327	20773
856.461	20632
856.595	20769
856.729	20663
856.862	20845
856.996	20758
857.13	20781
857.263	20773
857.397	20739
857.53	20568
857.664	20773
857.797	20773
857.931	20792
858.064	20705
858.197	20781
858.331	20686
858.464	20686
858.597	20697
858.731	20686
858.864	20705
858.997	20655
859.13	20708
859.263	20625
859.396	20651
859.529	20712
859.662	20640
859.795	20670
859.928	20788
860.061	20929
860.194	20956
860.327	20826
860.46	20617
860.592	20857
860.725	20883
860.858	20887
860.99	20773
861.123	20686
861.256	20727
861.388	20629
861.521	21226
861.653	20537
861.786	20484
861.918	20587
862.05	20579
862.183	20575
862.315	20602
862.447	20682
862.58	20644
862.712	20446
862.844	20415
862.976	20488
863.108	20461
863.24	20891
863.372	20454
863.504	20374
863.636	20355
863.768	20473
863.9	20442
864.032	20271
864.164	20393
864.296	20389
864.428	20465
864.559	20541
864.691	20492
864.823	20492
864.954	20442
865.086	20446
865.217	20313
865.349	20271
865.48	20259
865.612	20457
865.743	20419
865.875	20317
866.006	20237
866.137	20423
866.269	20218
866.4	20343
866.531	20130
866.662	20347
866.793	20328
866.924	20256
867.055	20298
867.186	20202
867.317	20358
867.448	20081
867.579	20164
867.71	20157
867.841	20153
867.972	20168
868.103	20221
868.233	20286
868.364	20214
868.495	20320
868.625	20476
868.756	20663
868.886	20442
869.017	20434
869.147	20545
869.278	20655
869.408	20560
869.539	20465
869.669	20518
869.799	20560
869.929	20648
870.06	20598
870.19	20811
870.32	20746
870.45	20880
870.58	20807
870.71	21047
870.84	21062
870.97	20876
871.1	20925
871.23	21135
871.36	20960
871.489	21116
871.619	21036
871.749	21089
871.879	21154
872.008	21275
872.138	21009
872.267	21154
872.397	20948
872.526	20986
872.656	20952
872.785	20982
872.915	21013
873.044	21272
873.173	21165
873.303	21051
873.432	21173
873.561	21237
873.69	20975
873.819	21188
873.948	21336
874.077	21146
874.206	21028
874.335	21036
874.464	21344
874.593	21310
874.722	21245
874.851	21447
874.979	21462
875.108	21485
875.237	21367
875.365	21313
875.494	21287
875.623	21378
875.751	21283
875.88	21420
876.008	21458
876.136	21500
876.265	21694
876.393	21915
876.521	21903
876.65	21876
876.778	21842
876.906	21736
877.034	21572
877.162	21781
877.29	21606
877.418	21797
877.546	21770
877.674	21671
877.802	21682
877.93	21671
878.058	21553
878.185	21515
878.313	21709
878.441	21751
878.568	21462
878.696	21663
878.824	21774
878.951	21842
879.079	21899
879.206	22010
879.333	21747
879.461	21701
879.588	21846
879.715	22006
879.842	21991
879.97	21789
880.097	21450
880.224	21454
880.351	21519
880.478	21583
880.605	21542
880.732	21576
880.859	21770
880.986	21523
881.112	21561
881.239	21420
881.366	21233
881.493	21066
881.619	21150
881.746	21066
881.872	21218
881.999	21093
882.125	21077
882.252	21173
882.378	21051
882.505	21245
882.631	20941
882.757	20986
882.883	20853
883.01	20788
883.136	20853
883.262	20659
883.388	20602
883.514	20807
883.64	20834
883.766	20640
883.892	20606
884.018	20606
884.143	20845
884.269	20883
884.395	20530
884.52	20495
884.646	20473
884.772	20495
884.897	20355
885.023	20503
885.148	20579
885.274	20651
885.399	20499
885.524	20632
885.65	20484
885.775	20507
885.9	20366
886.025	20560
886.15	20533
886.275	20358
886.4	20301
886.525	20442
886.65	20313
886.775	20366
886.9	20499
887.025	20651
887.149	20473
887.274	20317
887.399	20233
887.523	20248
887.648	20111
887.773	20130
887.897	20259
888.021	20393
888.146	20096
888.27	20328
888.395	20438
888.519	20199
888.643	20282
888.767	20240
888.891	20100
889.015	20088
889.139	20210
889.263	19963
889.387	20157
889.511	20172
889.635	20142
889.759	20073
889.883	19997
890.006	19940
890.13	20157
890.254	19963
890.377	19921
890.501	19826
890.624	19750
890.748	19826
890.871	19742
890.995	19662
891.118	19632
891.241	19719
891.364	19601
891.488	19734
891.611	19613
891.734	19620
891.857	19658
891.98	19624
892.103	19700
892.226	19723
892.349	19537
892.471	19468
892.594	19510
892.717	19685
892.839	19499
892.962	19605
893.085	19643
893.207	19567
893.33	19400
893.452	19441
893.575	19666
893.697	19502
893.819	19708
893.941	19681
894.064	19639
894.186	19556
894.308	19533
894.43	19578
894.552	19715
894.674	19647
894.796	19441
894.918	19468
895.04	19502
895.161	19601
895.283	19635
895.405	19514
895.526	19651
895.648	19533
895.769	19624
895.891	19594
896.012	19616
896.134	19529
896.255	19460
896.376	19506
896.498	19521
896.619	19552
896.74	19491
896.861	19693
896.982	19868
897.103	19986
897.224	19875
897.345	19807
897.466	19731
897.587	19708
897.708	19913
897.828	19849
897.949	19677
898.07	19685
898.19	19772
898.311	19898
898.431	19685
898.552	19822
898.672	19814
898.792	19837
898.913	19776
899.033	19738
899.153	19628
899.273	19563
899.393	19571
899.513	19567
899.633	19540
899.753	19548
899.873	19495
899.993	19605
900.113	19502
900.232	19548
900.352	19472
900.472	19567
900.591	19339
900.711	19419
900.83	19339
900.95	19419
901.069	19468
901.189	19213
901.308	18909
901.427	18954
901.546	18776
901.665	18901
901.784	18848
901.904	18856
902.023	18669
902.141	18616
902.26	18338
902.379	18528
902.498	18353
902.617	18334
902.735	18513
902.854	18410
902.973	18395
903.091	18190
903.21	18228
903.328	18121
903.446	18076
903.565	18019
903.683	17973
903.801	17901
903.919	17840
904.038	17851
904.156	17646
904.274	17783
904.392	17642
904.51	17604
904.627	17722
904.745	17665
904.863	17722
904.981	17497
905.098	17258
905.216	17482
905.334	17474
905.451	17410
905.569	17395
905.686	17444
905.803	17474
905.921	17185
906.038	17254
906.155	17155
906.272	17113
906.389	17052
906.506	16873
906.623	16793
906.74	16885
906.857	16812
906.974	16793
907.091	16987
907.208	16995
907.324	16972
907.441	16786
907.557	16573
907.674	16554
907.79	16489
907.907	16580
908.023	16729
908.139	16668
908.256	16466
908.372	16466
908.488	16607
908.604	16424
908.72	16459
908.836	16363
908.952	16284
909.068	16367
909.184	16519
909.3	16371
909.415	16466
909.531	16341
909.647	16040
909.762	16067
909.878	16010
909.993	16059
910.108	15998
910.224	15991
910.339	16010
910.454	15876
910.57	15831
910.685	15728
910.8	16067
910.915	16055
911.03	15857
911.145	15747
911.259	15720
911.374	15591
911.489	15526
911.604	15564
911.718	15538
911.833	15568
911.947	15367
912.062	15340
912.176	15473
912.291	15488
912.405	15416
912.519	15629
912.633	15652
912.748	15443
912.862	15348
912.976	15264
913.09	15165
913.204	15116
913.318	15340
913.431	15389
913.545	15287
913.659	15230
913.772	15222
913.886	15123
914	15013
914.113	15157
914.226	15123
914.34	15116
914.453	14975
914.566	15142
914.68	14952
914.793	14883
914.906	14758
915.019	14606
915.132	14674
915.245	14610
915.358	14708
915.47	14716
915.583	14686
915.696	14693
915.809	14735
915.921	14773
916.034	14644
916.146	14629
916.259	14575
916.371	14598
916.483	14583
916.595	14484
916.708	14469
916.82	14480
916.932	14434
917.044	14480
917.156	14571
917.268	14431
917.38	14362
917.491	14305
917.603	14328
917.715	14408
917.826	14362
917.938	14336
918.049	14214
918.161	14218
918.272	14320
918.384	14370
918.495	14317
918.606	14206
918.717	14008
918.828	14020
918.939	14142
919.05	14050
919.161	14008
919.272	13830
919.383	13993
919.494	14164
919.604	14229
919.715	14149
919.826	13868
919.936	14039
920.047	14081
920.157	14069
920.267	14252
920.378	14103
920.488	14100
920.598	14298
920.708	14377
920.818	14191
920.928	14107
921.038	14415
921.148	14301
921.258	14020
921.368	13944
921.477	13799
921.587	13879
921.697	13719
921.806	13780
921.916	13662
922.025	13533
922.134	13537
922.244	13449
922.353	13575
922.462	13369
922.571	13377
922.68	13187
922.789	13103
922.898	13145
923.007	13008
923.116	13095
923.224	13114
923.333	13076
923.442	12958
923.55	13000
923.659	13023
923.767	13042
923.876	12810
923.984	13046
924.092	12837
924.201	12920
924.309	12859
924.417	12867
924.525	12867
924.633	12871
924.741	13727
924.849	12608
924.956	12768
925.064	12642
925.172	12502
925.279	12479
925.387	12563
925.494	12536
925.602	12692
925.709	12544
925.816	12498
925.924	12471
926.031	12585
926.138	12464
926.245	12528
926.352	12407
926.459	12608
926.566	12574
926.673	12441
926.779	12281
926.886	12262
926.993	12277
927.099	12186
927.206	12140
927.312	12060
927.419	12133
927.525	12117
927.631	12121
927.737	11980
927.843	12064
927.95	11775
928.056	11859
928.162	11973
928.267	12060
928.373	12612
928.479	12022
928.585	11874
928.69	11984
928.796	11969
928.901	11843
929.007	11688
929.112	11843
929.218	11775
929.323	11722
929.428	11722
929.533	11794
929.638	11600
929.743	11684
929.848	11668
929.953	11680
930.058	11520
930.163	11414
930.267	11452
930.372	11543
930.477	11345
930.581	11577
930.685	11383
930.79	11261
930.894	11318
930.998	11220
931.103	11345
931.207	11048
931.311	11014
931.415	10987
931.519	10660
931.623	10694
