Data from test_V78500241_2995.txt Node
Date: Fri Mar 25 15:30:42 CST 2022
User: usil
Spectrometer: V785-0024
Trigger mode: 0
Integration Time (sec): 4.000000E-1
Scans to average: 1
Nonlinearity correction enabled: false
Boxcar width: 0
Storing dark spectrum: false
XAxis mode: Wavelengths
Number of Pixels in Spectrum: 1024
>>>>>Begin Spectral Data<<<<<
801.071	27382
801.214	27268
801.356	26895
801.499	26948
801.641	26887
801.783	26792
801.926	26773
802.068	26815
802.211	26663
802.353	26629
802.496	26552
802.638	26621
802.78	26457
802.923	26336
803.065	26252
803.208	26484
803.35	26324
803.492	26530
803.635	26682
803.777	26655
803.919	26560
804.061	26975
804.204	26708
804.346	26609
804.488	26480
804.63	26606
804.773	26492
804.915	26670
805.057	26682
805.199	26560
805.341	26735
805.483	26746
805.626	26830
805.768	26564
805.91	26693
806.052	26800
806.194	26651
806.336	26849
806.478	26826
806.62	26682
806.762	26800
806.904	26963
807.046	27272
807.188	27180
807.33	27146
807.472	27249
807.614	27131
807.756	27146
807.898	26963
808.04	26876
808.182	26918
808.324	26967
808.465	27150
808.607	27142
808.749	27256
808.891	27412
809.033	27534
809.174	27424
809.316	27279
809.458	27279
809.6	27222
809.741	27530
809.883	27469
810.025	27614
810.166	27564
810.308	27686
810.45	27641
810.591	27549
810.733	27424
810.875	27393
811.016	27264
811.158	27211
811.299	27264
811.441	27481
811.582	27450
811.724	27233
811.865	27249
812.007	27241
812.148	27287
812.29	27264
812.431	27355
812.573	27466
812.714	27644
812.855	27709
812.997	27835
813.138	28010
813.279	27903
813.421	27804
813.562	27781
813.703	27694
813.845	27492
813.986	27279
814.127	27131
814.268	26975
814.41	27123
814.551	26937
814.692	27005
814.833	26853
814.974	26952
815.115	27001
815.256	26887
815.397	26853
815.539	26823
815.68	26727
815.821	26708
815.962	26746
816.103	26785
816.244	26682
816.385	26499
816.526	26484
816.666	26294
816.807	26157
816.948	26244
817.089	26263
817.23	26168
817.371	26229
817.512	26366
817.653	26130
817.793	26225
817.934	26301
818.075	26199
818.216	26248
818.356	26282
818.497	26164
818.638	25936
818.778	25989
818.919	25951
819.06	26020
819.2	26062
819.341	26218
819.481	26161
819.622	26427
819.762	26511
819.903	26393
820.043	26408
820.184	26252
820.324	26267
820.465	26412
820.605	26278
820.746	26328
820.886	26164
821.026	26221
821.167	26396
821.307	26385
821.447	26168
821.588	25978
821.728	26084
821.868	25909
822.008	25753
822.149	25715
822.289	25647
822.429	25438
822.569	25335
822.709	25350
822.849	25156
822.99	25251
823.13	25225
823.27	25122
823.41	24943
823.55	24970
823.69	25012
823.83	25076
823.97	24985
824.11	24810
824.25	24734
824.389	24711
824.529	24909
824.669	24814
824.809	25027
824.949	24996
825.089	24863
825.228	24848
825.368	24589
825.508	24589
825.648	24654
825.787	24776
825.927	24745
826.067	24646
826.206	24677
826.346	24673
826.485	24741
826.625	24639
826.765	24856
826.904	24700
827.044	24544
827.183	24422
827.323	24285
827.462	24357
827.601	24391
827.741	24399
827.88	24365
828.02	24292
828.159	24365
828.298	24384
828.437	24452
828.577	24346
828.716	24509
828.855	24273
828.994	24140
829.134	24159
829.273	24110
829.412	24095
829.551	24102
829.69	24079
829.829	24064
829.968	24133
830.107	24110
830.246	24133
830.385	23904
830.524	23920
830.663	23805
830.802	23901
830.941	23672
831.08	23722
831.219	23722
831.357	23691
831.496	23988
831.635	23573
831.774	23608
831.913	23539
832.051	23493
832.19	23528
832.329	23577
832.467	23452
832.606	23303
832.744	23372
832.883	23429
833.022	23258
833.16	23383
833.299	23417
833.437	23299
833.576	23429
833.714	23463
833.852	23509
833.991	23452
834.129	23551
834.267	23478
834.406	23459
834.544	23482
834.682	23436
834.821	23554
834.959	23482
835.097	23440
835.235	23505
835.373	23376
835.511	23337
835.65	23303
835.788	23212
835.926	23178
836.064	23102
836.202	23143
836.34	23273
836.478	23467
836.615	23273
836.753	23402
836.891	23292
837.029	23258
837.167	23231
837.305	23204
837.443	23132
837.58	23090
837.718	23197
837.856	23041
837.993	23052
838.131	23109
838.269	22961
838.406	23105
838.544	22968
838.681	22675
838.819	22831
838.956	22721
839.094	22459
839.231	22653
839.369	22843
839.506	23037
839.643	22759
839.781	22538
839.918	22497
840.055	22626
840.193	22489
840.33	22508
840.467	22660
840.604	22497
840.742	22797
840.879	22421
841.016	22451
841.153	22352
841.29	22542
841.427	22405
841.564	22615
841.701	22447
841.838	22325
841.975	22291
842.112	22375
842.249	22386
842.385	22173
842.522	22531
842.659	22348
842.796	22207
842.933	22284
843.069	22226
843.206	22147
843.343	22284
843.479	22211
843.616	22352
843.752	22040
843.889	22074
844.025	22295
844.162	22048
844.298	22242
844.435	21972
844.571	22032
844.708	22116
844.844	22207
844.98	22139
845.117	22185
845.253	22013
845.389	21964
845.525	21823
845.661	21899
845.798	21778
845.934	21827
846.07	21759
846.206	21808
846.342	21865
846.478	21648
846.614	21530
846.75	21534
846.886	21416
847.022	21580
847.158	21492
847.294	21587
847.429	21519
847.565	21496
847.701	21720
847.837	21317
847.972	21237
848.108	21291
848.244	21336
848.379	21165
848.515	21066
848.65	21188
848.786	21066
848.921	21146
849.057	21036
849.192	21127
849.328	21077
849.463	21135
849.598	21100
849.734	20948
849.869	21001
850.004	20853
850.14	20849
850.275	20952
850.41	20735
850.545	20823
850.68	20887
850.815	20937
850.95	20739
851.085	21058
851.22	21009
851.355	20963
851.49	20948
851.625	20674
851.76	20891
851.895	20796
852.03	20910
852.165	20834
852.299	20857
852.434	20868
852.569	20853
852.703	20830
852.838	20864
852.973	20876
853.107	20864
853.242	20834
853.376	20686
853.511	20526
853.645	20689
853.78	20735
853.914	20724
854.048	20705
854.183	20686
854.317	20796
854.451	20914
854.585	20750
854.72	20727
854.854	20697
854.988	20537
855.122	20670
855.256	20674
855.39	20720
855.524	20849
855.658	20800
855.792	20648
855.926	20788
856.06	20609
856.194	20735
856.327	20705
856.461	20739
856.595	20674
856.729	20678
856.862	20686
856.996	20746
857.13	20686
857.263	20800
857.397	20613
857.53	20731
857.664	20594
857.797	20758
857.931	20720
858.064	20686
858.197	20750
858.331	20693
858.464	20606
858.597	20602
858.731	20682
858.864	20678
858.997	20674
859.13	20575
859.263	20712
859.396	20811
859.529	20606
859.662	20693
859.795	20499
859.928	20705
860.061	20849
860.194	20823
860.327	20811
860.46	20804
860.592	20758
860.725	20830
860.858	20819
860.99	20788
861.123	20594
861.256	20621
861.388	20788
861.521	21268
861.653	20621
861.786	20476
861.918	20454
862.05	20636
862.183	20625
862.315	20640
862.447	20811
862.58	20609
862.712	20469
862.844	20446
862.976	20511
863.108	20590
863.24	20861
863.372	20347
863.504	20324
863.636	20381
863.768	20423
863.9	20343
864.032	20351
864.164	20442
864.296	20476
864.428	20537
864.559	20465
864.691	20564
864.823	20374
864.954	20404
865.086	20400
865.217	20358
865.349	20206
865.48	20393
865.612	20320
865.743	20366
865.875	20404
866.006	20355
866.137	20347
866.269	20142
866.4	20370
866.531	20294
866.662	20317
866.793	20381
866.924	20206
867.055	20263
867.186	20278
867.317	20271
867.448	20145
867.579	20206
867.71	20210
867.841	20202
867.972	20282
868.103	20286
868.233	20301
868.364	20259
868.495	20385
868.625	20514
868.756	20507
868.886	20522
869.017	20438
869.147	20549
869.278	20629
869.408	20556
869.539	20434
869.669	20537
869.799	20511
869.929	20640
870.06	20609
870.19	20777
870.32	20853
870.45	20963
870.58	20963
870.71	20960
870.84	21108
870.97	20899
871.1	20906
871.23	21032
871.36	21207
871.489	20971
871.619	21047
871.749	21150
871.879	21142
872.008	21211
872.138	21070
872.267	21165
872.397	21066
872.526	20982
872.656	20891
872.785	21013
872.915	21180
873.044	21184
873.173	21112
873.303	21218
873.432	21226
873.561	21222
873.69	21180
873.819	21108
873.948	21249
874.077	21154
874.206	21169
874.335	21093
874.464	21279
874.593	21408
874.722	21355
874.851	21401
874.979	21393
875.108	21466
875.237	21272
875.365	21367
875.494	21397
875.623	21412
875.751	21332
875.88	21382
876.008	21466
876.136	21568
876.265	21747
876.393	21895
876.521	21857
876.65	21823
876.778	21743
876.906	21660
877.034	21766
877.162	21892
877.29	21599
877.418	21835
877.546	21812
877.674	21793
877.802	21644
877.93	21762
878.058	21622
878.185	21591
878.313	21739
878.441	21785
878.568	21747
878.696	21698
878.824	21823
878.951	21762
879.079	21972
879.206	22093
879.333	21892
879.461	21812
879.588	21827
879.715	21926
879.842	21888
879.97	21854
880.097	21599
880.224	21572
880.351	21542
880.478	21367
880.605	21515
880.732	21572
880.859	21732
880.986	21553
881.112	21614
881.239	21443
881.366	21428
881.493	21192
881.619	21146
881.746	21093
881.872	21283
881.999	21093
882.125	21104
882.252	21230
882.378	21165
882.505	21249
882.631	20937
882.757	20857
882.883	21032
883.01	20899
883.136	20769
883.262	20792
883.388	20720
883.514	20883
883.64	20986
883.766	20815
883.892	20697
884.018	20796
884.143	20800
884.269	20880
884.395	20571
884.52	20480
884.646	20450
884.772	20355
884.897	20415
885.023	20450
885.148	20537
885.274	20659
885.399	20556
885.524	20507
885.65	20511
885.775	20469
885.9	20446
886.025	20594
886.15	20564
886.275	20366
886.4	20427
886.525	20492
886.65	20309
886.775	20473
886.9	20583
887.025	20705
887.149	20339
887.274	20275
887.399	20256
887.523	20225
887.648	20263
887.773	20168
887.897	20408
888.021	20446
888.146	20237
888.27	20343
888.395	20278
888.519	20248
888.643	20400
888.767	20358
888.891	20161
889.015	20065
889.139	20157
889.263	20065
889.387	20271
889.511	20313
889.635	20313
889.759	20164
889.883	20111
890.006	20107
890.13	20134
890.254	19921
890.377	19978
890.501	19826
890.624	19856
890.748	19811
890.871	19780
890.995	19677
891.118	19616
891.241	19780
891.364	19620
891.488	19761
891.611	19666
891.734	19666
891.857	19674
891.98	19677
892.103	19700
892.226	19677
892.349	19578
892.471	19430
892.594	19601
892.717	19499
892.839	19487
892.962	19540
893.085	19594
893.207	19704
893.33	19460
893.452	19400
893.575	19518
893.697	19495
893.819	19624
893.941	19807
894.064	19681
894.186	19655
894.308	19468
894.43	19662
894.552	19712
894.674	19628
894.796	19578
894.918	19586
895.04	19601
895.161	19666
895.283	19624
895.405	19635
895.526	19655
895.648	19525
895.769	19613
895.891	19567
896.012	19632
896.134	19651
896.255	19609
896.376	19468
896.498	19571
896.619	19681
896.74	19502
896.861	19628
896.982	19845
897.103	20050
897.224	19875
897.345	19803
897.466	19738
897.587	19845
897.708	19932
897.828	19791
897.949	19769
898.07	19548
898.19	19746
898.311	19894
898.431	19799
898.552	19833
898.672	19841
898.792	19944
898.913	19921
899.033	19799
899.153	19708
899.273	19483
899.393	19571
899.513	19632
899.633	19575
899.753	19666
899.873	19533
899.993	19662
900.113	19563
900.232	19556
900.352	19396
900.472	19419
900.591	19266
900.711	19415
900.83	19358
900.95	19495
901.069	19388
901.189	19312
901.308	18985
901.427	18916
901.546	18924
901.665	18848
901.784	19034
901.904	18863
902.023	18806
902.141	18479
902.26	18578
902.379	18498
902.498	18346
902.617	18433
902.735	18509
902.854	18452
902.973	18380
903.091	18239
903.21	18216
903.328	18087
903.446	18102
903.565	18015
903.683	18091
903.801	17783
903.919	18003
904.038	17912
904.156	17638
904.274	17809
904.392	17687
904.51	17642
904.627	17680
904.745	17775
904.863	17695
904.981	17532
905.098	17486
905.216	17391
905.334	17505
905.451	17414
905.569	17360
905.686	17486
905.803	17391
905.921	17273
906.038	17379
906.155	17170
906.272	17014
906.389	17052
906.506	17006
906.623	16995
906.74	16927
906.857	16850
906.974	16927
907.091	17029
907.208	17018
907.324	17086
907.441	16854
907.557	16702
907.674	16626
907.79	16542
907.907	16694
908.023	16615
908.139	16691
908.256	16618
908.372	16474
908.488	16417
908.604	16455
908.72	16303
908.836	16352
908.952	16394
909.068	16394
909.184	16481
909.3	16318
909.415	16451
909.531	16421
909.647	16226
909.762	16086
909.878	16124
909.993	16071
910.108	16010
910.224	16059
910.339	16010
910.454	16040
910.57	15956
910.685	15823
910.8	16044
910.915	16036
911.03	15819
911.145	15736
911.259	15728
911.374	15720
911.489	15526
911.604	15564
911.718	15431
911.833	15447
911.947	15382
912.062	15393
912.176	15507
912.291	15488
912.405	15511
912.519	15629
912.633	15610
912.748	15473
912.862	15340
912.976	15363
913.09	15127
913.204	15195
913.318	15294
913.431	15329
913.545	15420
913.659	15355
913.772	15173
913.886	15108
914	14994
914.113	15146
914.226	15165
914.34	15116
914.453	14899
914.566	15058
914.68	14998
914.793	14952
914.906	14762
915.019	14720
915.132	14667
915.245	14701
915.358	14598
915.47	14636
915.583	14720
915.696	14610
915.809	14743
915.921	14731
916.034	14571
916.146	14564
916.259	14549
916.371	14613
916.483	14708
916.595	14514
916.708	14533
916.82	14530
916.932	14537
917.044	14629
917.156	14560
917.268	14328
917.38	14454
917.491	14313
917.603	14370
917.715	14454
917.826	14389
917.938	14324
918.049	14138
918.161	14256
918.272	14457
918.384	14476
918.495	14259
918.606	14107
918.717	14081
918.828	14130
918.939	14168
919.05	14088
919.161	14027
919.272	14054
919.383	13986
919.494	14153
919.604	14358
919.715	14191
919.826	14035
919.936	14096
920.047	14111
920.157	14024
920.267	14309
920.378	14081
920.488	14084
920.598	14221
920.708	14320
920.818	14229
920.928	14229
921.038	14370
921.148	14370
921.258	14119
921.368	14039
921.477	13909
921.587	13894
921.697	13651
921.806	13837
921.916	13647
922.025	13472
922.134	13483
922.244	13514
922.353	13575
922.462	13426
922.571	13346
922.68	13122
922.789	13213
922.898	13129
923.007	13042
923.116	13187
923.224	13190
923.333	13156
923.442	12966
923.55	13008
923.659	12901
923.767	13008
923.876	12894
923.984	13031
924.092	12863
924.201	12954
924.309	12947
924.417	12894
924.525	12829
924.633	12924
924.741	13563
924.849	12665
924.956	12760
925.064	12658
925.172	12517
925.279	12494
925.387	12597
925.494	12506
925.602	12684
925.709	12639
925.816	12460
925.924	12642
926.031	12570
926.138	12563
926.245	12525
926.352	12467
926.459	12540
926.566	12566
926.673	12452
926.779	12315
926.886	12289
926.993	12186
927.099	12083
927.206	12129
927.312	12133
927.419	12175
927.525	12194
927.631	12117
927.737	12022
927.843	12011
927.95	11885
928.056	11939
928.162	12022
928.267	12045
928.373	12471
928.479	12110
928.585	11851
928.69	11916
928.796	12011
928.901	11809
929.007	11722
929.112	11874
929.218	11764
929.323	11737
929.428	11642
929.533	11779
929.638	11657
929.743	11699
929.848	11665
929.953	11657
930.058	11615
930.163	11391
930.267	11414
930.372	11619
930.477	11360
930.581	11551
930.685	11528
930.79	11330
930.894	11303
930.998	11258
931.103	11463
931.207	11124
931.311	11067
931.415	10862
931.519	10763
931.623	10687
