Data from test_V78500241_814.txt Node
Date: Fri Mar 25 15:15:31 CST 2022
User: usil
Spectrometer: V785-0024
Trigger mode: 0
Integration Time (sec): 4.000000E-1
Scans to average: 1
Nonlinearity correction enabled: false
Boxcar width: 0
Storing dark spectrum: false
XAxis mode: Wavelengths
Number of Pixels in Spectrum: 1024
>>>>>Begin Spectral Data<<<<<
801.071	28295
801.214	28265
801.356	28090
801.499	27918
801.641	27835
801.783	27949
801.926	27911
802.068	27789
802.211	27713
802.353	27743
802.496	27545
802.638	27561
802.78	27564
802.923	27534
803.065	27408
803.208	27435
803.35	27572
803.492	27511
803.635	27690
803.777	27553
803.919	27641
804.061	27892
804.204	27873
804.346	27679
804.488	27728
804.63	27580
804.773	27679
804.915	27755
805.057	27667
805.199	27679
805.341	27800
805.483	27880
805.626	27884
805.768	27812
805.91	27747
806.052	27785
806.194	27720
806.336	28044
806.478	27937
806.62	27930
806.762	28150
806.904	28223
807.046	28360
807.188	28341
807.33	28299
807.472	28314
807.614	28238
807.756	28306
807.898	28280
808.04	28044
808.182	28070
808.324	28196
808.465	28185
808.607	28428
808.749	28500
808.891	28527
809.033	28675
809.174	28645
809.316	28432
809.458	28683
809.6	28497
809.741	28660
809.883	28653
810.025	28694
810.166	28812
810.308	28881
810.45	28740
810.591	28831
810.733	28580
810.875	28508
811.016	28535
811.158	28554
811.299	28519
811.441	28618
811.582	28611
811.724	28653
811.865	28489
812.007	28649
812.148	28656
812.29	28599
812.431	28790
812.573	28850
812.714	28961
812.855	29075
812.997	29299
813.138	29273
813.279	29261
813.421	29029
813.562	28987
813.703	29018
813.845	28748
813.986	28550
814.127	28348
814.268	28337
814.41	28459
814.551	28265
814.692	28204
814.833	28242
814.974	28246
815.115	28211
815.256	28150
815.397	28253
815.539	28131
815.68	28002
815.821	27975
815.962	28181
816.103	27975
816.244	27800
816.385	27911
816.526	27873
816.666	27614
816.807	27583
816.948	27637
817.089	27660
817.23	27728
817.371	27625
817.512	27530
817.653	27557
817.793	27374
817.934	27530
818.075	27633
818.216	27686
818.356	27629
818.497	27431
818.638	27367
818.778	27370
818.919	27389
819.06	27420
819.2	27355
819.341	27561
819.481	27641
819.622	27694
819.762	27865
819.903	27907
820.043	27793
820.184	27755
820.324	27755
820.465	27751
820.605	27603
820.746	27717
820.886	27606
821.026	27751
821.167	27625
821.307	27481
821.447	27511
821.588	27625
821.728	27374
821.868	27188
822.008	27112
822.149	27051
822.289	26948
822.429	26777
822.569	26720
822.709	26655
822.849	26484
822.99	26575
823.13	26663
823.27	26450
823.41	26396
823.55	26370
823.69	26370
823.83	26434
823.97	26290
824.11	26221
824.25	26271
824.389	26229
824.529	26164
824.669	26248
824.809	26252
824.949	26351
825.089	26370
825.228	26191
825.368	26050
825.508	26111
825.648	26054
825.787	26119
825.927	26191
826.067	25993
826.206	26050
826.346	25932
826.485	26081
826.625	26149
826.765	26294
826.904	26149
827.044	25860
827.183	25898
827.323	25894
827.462	26001
827.601	25944
827.741	25818
827.88	25871
828.02	25696
828.159	25852
828.298	25932
828.437	25936
828.577	25681
828.716	25818
828.855	25681
828.994	25537
829.134	25529
829.273	25639
829.412	25476
829.551	25419
829.69	25552
829.829	25556
829.968	25567
830.107	25483
830.246	25472
830.385	25533
830.524	25426
830.663	25445
830.802	25266
830.941	25168
831.08	25110
831.219	25190
831.357	25377
831.496	25339
831.635	25293
831.774	25012
831.913	25027
832.051	24962
832.19	24985
832.329	25023
832.467	24821
832.606	24890
832.744	24798
832.883	24772
833.022	24745
833.16	24757
833.299	24833
833.437	24821
833.576	24890
833.714	24886
833.852	24806
833.991	24932
834.129	24954
834.267	24954
834.406	24875
834.544	25015
834.682	24928
834.821	24829
834.959	24992
835.097	24844
835.235	25004
835.373	24875
835.511	24882
835.65	24856
835.788	24768
835.926	24559
836.064	24566
836.202	24448
836.34	24681
836.478	24623
836.615	24677
836.753	24791
836.891	24821
837.029	24673
837.167	24681
837.305	24711
837.443	24551
837.58	24513
837.718	24589
837.856	24479
837.993	24388
838.131	24513
838.269	24372
838.406	24418
838.544	24311
838.681	24167
838.819	24182
838.956	24003
839.094	24045
839.231	24117
839.369	24224
839.506	24357
839.643	24407
839.781	23927
839.918	23996
840.055	24015
840.193	23935
840.33	23878
840.467	23840
840.604	23950
840.742	24030
840.879	23866
841.016	23931
841.153	23893
841.29	23935
841.427	23840
841.564	23977
841.701	23771
841.838	23882
841.975	23775
842.112	23843
842.249	23687
842.385	23596
842.522	23946
842.659	23634
842.796	23634
842.933	23741
843.069	23748
843.206	23562
843.343	23695
843.479	23528
843.616	23687
843.752	23543
843.889	23482
844.025	23474
844.162	23376
844.298	23467
844.435	23379
844.571	23531
844.708	23516
844.844	23570
844.98	23608
845.117	23539
845.253	23421
845.389	23383
845.525	23223
845.661	23345
845.798	23178
845.934	23067
846.07	23181
846.206	23140
846.342	23360
846.478	23044
846.614	22949
846.75	22927
846.886	22801
847.022	22991
847.158	22965
847.294	22908
847.429	22908
847.565	22873
847.701	23102
847.837	22538
847.972	22694
848.108	22649
848.244	22615
848.379	22645
848.515	22417
848.65	22459
848.786	22447
848.921	22531
849.057	22618
849.192	22626
849.328	22554
849.463	22519
849.598	22405
849.734	22402
849.869	22455
850.004	22462
850.14	22265
850.275	22261
850.41	22173
850.545	22177
850.68	22147
850.815	22200
850.95	22196
851.085	22398
851.22	22363
851.355	22196
851.49	22204
851.625	22242
851.76	22177
851.895	22109
852.03	22120
852.165	22211
852.299	22246
852.434	22390
852.569	22257
852.703	22249
852.838	22287
852.973	22356
853.107	22379
853.242	22196
853.376	22101
853.511	21911
853.645	22078
853.78	22059
853.914	21972
854.048	21979
854.183	22002
854.317	22166
854.451	22211
854.585	22048
854.72	22105
854.854	22173
854.988	21953
855.122	22124
855.256	21895
855.39	22074
855.524	22196
855.658	22188
855.792	22013
855.926	22036
856.06	22116
856.194	22036
856.327	21953
856.461	22013
856.595	22006
856.729	22044
856.862	22204
856.996	22002
857.13	22162
857.263	22082
857.397	22093
857.53	22105
857.664	22131
857.797	22074
857.931	22154
858.064	22032
858.197	22219
858.331	22128
858.464	21918
858.597	21934
858.731	22002
858.864	22040
858.997	22013
859.13	22078
859.263	22059
859.396	22215
859.529	21915
859.662	22101
859.795	22048
859.928	22253
860.061	22204
860.194	22207
860.327	22040
860.46	22116
860.592	22196
860.725	22211
860.858	22128
860.99	22162
861.123	21975
861.256	22074
861.388	22029
861.521	22949
861.653	21937
861.786	21850
861.918	21876
862.05	21922
862.183	21949
862.315	22029
862.447	22010
862.58	21892
862.712	21675
862.844	21743
862.976	21930
863.108	21888
863.24	22070
863.372	21720
863.504	21816
863.636	21724
863.768	21797
863.9	21652
864.032	21644
864.164	21682
864.296	21831
864.428	21926
864.559	21736
864.691	21899
864.823	21728
864.954	21686
865.086	21701
865.217	21648
865.349	21641
865.48	21686
865.612	21526
865.743	21671
865.875	21641
866.006	21705
866.137	21599
866.269	21709
866.4	21618
866.531	21561
866.662	21496
866.793	21523
866.924	21595
867.055	21583
867.186	21572
867.317	21488
867.448	21568
867.579	21542
867.71	21462
867.841	21435
867.972	21542
868.103	21534
868.233	21583
868.364	21530
868.495	21690
868.625	21816
868.756	21804
868.886	21633
869.017	21751
869.147	21854
869.278	21865
869.408	21823
869.539	21835
869.669	21861
869.799	21861
869.929	21934
870.06	21998
870.19	22093
870.32	22017
870.45	22128
870.58	22185
870.71	22280
870.84	22276
870.97	22234
871.1	22204
871.23	22276
871.36	22428
871.489	22272
871.619	22375
871.749	22390
871.879	22497
872.008	22531
872.138	22363
872.267	22413
872.397	22249
872.526	22257
872.656	22196
872.785	22219
872.915	22413
873.044	22447
873.173	22348
873.303	22443
873.432	22493
873.561	22500
873.69	22329
873.819	22314
873.948	22470
874.077	22436
874.206	22291
874.335	22428
874.464	22527
874.593	22702
874.722	22500
874.851	22687
874.979	22645
875.108	22645
875.237	22512
875.365	22611
875.494	22634
875.623	22618
875.751	22577
875.88	22557
876.008	22752
876.136	22774
876.265	23086
876.393	23121
876.521	23090
876.65	23090
876.778	23128
876.906	22961
877.034	22995
877.162	22999
877.29	22824
877.418	22946
877.546	22987
877.674	22881
877.802	23060
877.93	22957
878.058	22934
878.185	22721
878.313	22968
878.441	22892
878.568	22744
878.696	22862
878.824	22965
878.951	23044
879.079	22999
879.206	23258
879.333	23064
879.461	23029
879.588	23121
879.715	23170
879.842	23235
879.97	23029
880.097	22771
880.224	22774
880.351	22847
880.478	22694
880.605	22535
880.732	22752
880.859	23006
880.986	22774
881.112	22873
881.239	22634
881.366	22603
881.493	22409
881.619	22265
881.746	22329
881.872	22257
881.999	22242
882.125	22192
882.252	22451
882.378	22424
882.505	22398
882.631	22246
882.757	22032
882.883	22219
883.01	21968
883.136	22097
883.262	21945
883.388	21983
883.514	22097
883.64	22021
883.766	21987
883.892	21686
884.018	21800
884.143	22017
884.269	22078
884.395	21747
884.52	21572
884.646	21728
884.772	21614
884.897	21606
885.023	21701
885.148	21736
885.274	21736
885.399	21857
885.524	21743
885.65	21739
885.775	21660
885.9	21526
886.025	21793
886.15	21728
886.275	21690
886.4	21511
886.525	21515
886.65	21568
886.775	21622
886.9	21800
887.025	21838
887.149	21580
887.274	21553
887.399	21431
887.523	21511
887.648	21420
887.773	21214
887.897	21614
888.021	21492
888.146	21386
888.27	21450
888.395	21553
888.519	21469
888.643	21488
888.767	21496
888.891	21340
889.015	21260
889.139	21272
889.263	21214
889.387	21424
889.511	21329
889.635	21313
889.759	21176
889.883	21077
890.006	21275
890.13	21378
890.254	21176
890.377	21218
890.501	20967
890.624	21100
890.748	21039
890.871	20918
890.995	20777
891.118	20739
891.241	20796
891.364	20902
891.488	20807
891.611	20876
891.734	20823
891.857	20830
891.98	20777
892.103	20944
892.226	20693
892.349	20785
892.471	20636
892.594	20746
892.717	20674
892.839	20644
892.962	20720
893.085	20880
893.207	20648
893.33	20682
893.452	20659
893.575	20739
893.697	20648
893.819	20861
893.941	20708
894.064	20811
894.186	20667
894.308	20670
894.43	20788
894.552	20727
894.674	20765
894.796	20495
894.918	20583
895.04	20587
895.161	20663
895.283	20716
895.405	20621
895.526	20648
895.648	20594
895.769	20731
895.891	20678
896.012	20701
896.134	20693
896.255	20720
896.376	20720
896.498	20651
896.619	20674
896.74	20667
896.861	20804
896.982	20914
897.103	21055
897.224	20830
897.345	20941
897.466	20849
897.587	20902
897.708	20838
897.828	20823
897.949	20868
898.07	20693
898.19	20811
898.311	20906
898.431	20758
898.552	20861
898.672	20895
898.792	21032
898.913	20948
899.033	20845
899.153	20636
899.273	20499
899.393	20609
899.513	20640
899.633	20537
899.753	20667
899.873	20583
899.993	20575
900.113	20465
900.232	20602
900.352	20533
900.472	20564
900.591	20355
900.711	20404
900.83	20271
900.95	20522
901.069	20431
901.189	20286
901.308	19986
901.427	19875
901.546	19928
901.665	20012
901.784	19970
901.904	19868
902.023	19769
902.141	19495
902.26	19510
902.379	19567
902.498	19392
902.617	19384
902.735	19487
902.854	19464
902.973	19270
903.091	19095
903.21	19160
903.328	19266
903.446	19080
903.565	18825
903.683	18894
903.801	18806
903.919	18863
904.038	18924
904.156	18753
904.274	18867
904.392	18802
904.51	18681
904.627	18650
904.745	18719
904.863	18730
904.981	18445
905.098	18292
905.216	18475
905.334	18494
905.451	18304
905.569	18258
905.686	18365
905.803	18338
905.921	18136
906.038	18251
906.155	18239
906.272	17969
906.389	18136
906.506	17927
906.623	17927
906.74	17859
906.857	17783
906.974	17790
907.091	17893
907.208	17939
907.324	17923
907.441	17783
907.557	17577
907.674	17687
907.79	17600
907.907	17528
908.023	17665
908.139	17562
908.256	17532
908.372	17395
908.488	17490
908.604	17364
908.72	17303
908.836	17345
908.952	17334
909.068	17280
909.184	17463
909.3	17337
909.415	17349
909.531	17288
909.647	17048
909.762	17018
909.878	17098
909.993	16984
910.108	17048
910.224	16923
910.339	16991
910.454	16877
910.57	16805
910.685	16729
910.8	16972
910.915	16911
911.03	16793
911.145	16675
911.259	16599
911.374	16653
911.489	16489
911.604	16474
911.718	16268
911.833	16314
911.947	16367
912.062	16226
912.176	16257
912.291	16291
912.405	16253
912.519	16538
912.633	16440
912.748	16367
912.862	16303
912.976	16086
913.09	16029
913.204	16173
913.318	16181
913.431	16234
913.545	16265
913.659	16207
913.772	16154
913.886	15949
914	15907
914.113	16002
914.226	16105
914.34	16032
914.453	15869
914.566	15903
914.68	15800
914.793	15785
914.906	15572
915.019	15587
915.132	15553
915.245	15462
915.358	15549
915.47	15580
915.583	15473
915.696	15584
915.809	15671
915.921	15751
916.034	15511
916.146	15458
916.259	15386
916.371	15622
916.483	15439
916.595	15374
916.708	15397
916.82	15272
916.932	15310
917.044	15374
917.156	15306
917.268	15093
917.38	15211
917.491	15207
917.603	15218
917.715	15287
917.826	15252
917.938	15165
918.049	15039
918.161	15108
918.272	15249
918.384	15176
918.495	15100
918.606	15009
918.717	14994
918.828	15020
918.939	14944
919.05	14830
919.161	14864
919.272	14682
919.383	14739
919.494	14876
919.604	15104
919.715	14910
919.826	14826
919.936	14921
920.047	15070
920.157	14872
920.267	15074
920.378	14899
920.488	14811
920.598	14986
920.708	15127
920.818	14975
920.928	14956
921.038	15135
921.148	15047
921.258	14823
921.368	14781
921.477	14598
921.587	14667
921.697	14518
921.806	14610
921.916	14358
922.025	14233
922.134	14267
922.244	14130
922.353	14214
922.462	14062
922.571	14031
922.68	13947
922.789	13837
922.898	13879
923.007	13871
923.116	13845
923.224	13830
923.333	13814
923.442	13670
923.55	13742
923.659	13658
923.767	13780
923.876	13674
923.984	13670
924.092	13575
924.201	13677
924.309	13647
924.417	13636
924.525	13510
924.633	13480
924.741	14286
924.849	13244
924.956	13472
925.064	13343
925.172	13236
925.279	13308
925.387	13381
925.494	13247
925.602	13346
925.709	13308
925.816	13160
925.924	13289
926.031	13244
926.138	13168
926.245	13244
926.352	13129
926.459	13244
926.566	13206
926.673	13160
926.779	13118
926.886	12970
926.993	12977
927.099	12878
927.206	12791
927.312	12779
927.419	12894
927.525	12814
927.631	12859
927.737	12673
927.843	12635
927.95	12566
928.056	12711
928.162	12650
928.267	12719
928.373	13247
928.479	12722
928.585	12460
928.69	12608
928.796	12681
928.901	12525
929.007	12369
929.112	12475
929.218	12464
929.323	12410
929.428	12346
929.533	12521
929.638	12289
929.743	12384
929.848	12334
929.953	12365
930.058	12155
930.163	12007
930.267	12060
930.372	12216
930.477	12106
930.581	12182
930.685	12110
930.79	11965
930.894	11931
930.998	11946
931.103	12026
931.207	11611
931.311	11634
931.415	11455
931.519	11273
931.623	11277
