Data from test_V78500241_950.txt Node
Date: Fri Mar 25 15:16:28 CST 2022
User: usil
Spectrometer: V785-0024
Trigger mode: 0
Integration Time (sec): 4.000000E-1
Scans to average: 1
Nonlinearity correction enabled: false
Boxcar width: 0
Storing dark spectrum: false
XAxis mode: Wavelengths
Number of Pixels in Spectrum: 1024
>>>>>Begin Spectral Data<<<<<
801.071	27956
801.214	27861
801.356	27835
801.499	27644
801.641	27717
801.783	27713
801.926	27610
802.068	27701
802.211	27523
802.353	27447
802.496	27291
802.638	27332
802.78	27256
802.923	27218
803.065	27306
803.208	27226
803.35	27192
803.492	27382
803.635	27374
803.777	27310
803.919	27454
804.061	27785
804.204	27580
804.346	27492
804.488	27188
804.63	27462
804.773	27408
804.915	27564
805.057	27530
805.199	27523
805.341	27595
805.483	27526
805.626	27690
805.768	27408
805.91	27538
806.052	27534
806.194	27401
806.336	27785
806.478	27709
806.62	27557
806.762	27778
806.904	27827
807.046	27907
807.188	27972
807.33	27972
807.472	27899
807.614	27892
807.756	28078
807.898	27869
808.04	27812
808.182	27876
808.324	27804
808.465	27892
808.607	28207
808.749	28272
808.891	28223
809.033	28417
809.174	28185
809.316	28150
809.458	28284
809.6	28356
809.741	28363
809.883	28447
810.025	28554
810.166	28554
810.308	28577
810.45	28607
810.591	28398
810.733	28367
810.875	28226
811.016	28101
811.158	28131
811.299	28276
811.441	28356
811.582	28280
811.724	28329
811.865	28150
812.007	28280
812.148	28299
812.29	28360
812.431	28500
812.573	28637
812.714	28626
812.855	28683
812.997	28984
813.138	28938
813.279	28930
813.421	28816
813.562	28797
813.703	28641
813.845	28451
813.986	28192
814.127	28109
814.268	28025
814.41	28013
814.551	27865
814.692	28021
814.833	27774
814.974	27918
815.115	27914
815.256	27903
815.397	27934
815.539	27713
815.68	27816
815.821	27736
815.962	27717
816.103	27781
816.244	27606
816.385	27530
816.526	27583
816.666	27294
816.807	27249
816.948	27332
817.089	27378
817.23	27378
817.371	27222
817.512	27268
817.653	27389
817.793	27264
817.934	27397
818.075	27298
818.216	27275
818.356	27245
818.497	27203
818.638	27024
818.778	26929
818.919	27009
819.06	26952
819.2	27062
819.341	27150
819.481	27298
819.622	27420
819.762	27576
819.903	27572
820.043	27412
820.184	27363
820.324	27310
820.465	27412
820.605	27393
820.746	27401
820.886	27359
821.026	27401
821.167	27351
821.307	27447
821.447	27389
821.588	27199
821.728	26960
821.868	26933
822.008	26796
822.149	26842
822.289	26556
822.429	26507
822.569	26423
822.709	26412
822.849	26248
822.99	26290
823.13	26195
823.27	26278
823.41	26084
823.55	25978
823.69	26111
823.83	26065
823.97	26024
824.11	25982
824.25	26001
824.389	25826
824.529	26008
824.669	25883
824.809	26119
824.949	26024
825.089	26012
825.228	25947
825.368	25814
825.508	25685
825.648	25723
825.787	25928
825.927	25925
826.067	25788
826.206	25776
826.346	25826
826.485	25826
826.625	25849
826.765	25833
826.904	25784
827.044	25689
827.183	25559
827.323	25662
827.462	25457
827.601	25575
827.741	25472
827.88	25594
828.02	25369
828.159	25525
828.298	25491
828.437	25628
828.577	25628
828.716	25552
828.855	25392
828.994	25285
829.134	25190
829.273	25293
829.412	25270
829.551	25156
829.69	25145
829.829	25221
829.968	25194
830.107	25244
830.246	25209
830.385	25266
830.524	25175
830.663	25069
830.802	24935
830.941	24905
831.08	24939
831.219	24909
831.357	24878
831.496	25042
831.635	24738
831.774	24825
831.913	24681
832.051	24616
832.19	24616
832.329	24684
832.467	24494
832.606	24479
832.744	24475
832.883	24528
833.022	24582
833.16	24616
833.299	24623
833.437	24475
833.576	24601
833.714	24597
833.852	24684
833.991	24715
834.129	24597
834.267	24654
834.406	24726
834.544	24661
834.682	24696
834.821	24540
834.959	24913
835.097	24551
835.235	24601
835.373	24536
835.511	24642
835.65	24441
835.788	24464
835.926	24289
836.064	24262
836.202	24289
836.34	24418
836.478	24422
836.615	24327
836.753	24422
836.891	24471
837.029	24296
837.167	24308
837.305	24395
837.443	24239
837.58	24323
837.718	24296
837.856	24144
837.993	24239
838.131	24254
838.269	24049
838.406	24106
838.544	23950
838.681	23920
838.819	23783
838.956	23889
839.094	23893
839.231	23840
839.369	23920
839.506	24038
839.643	23950
839.781	23600
839.918	23710
840.055	23722
840.193	23653
840.33	23748
840.467	23630
840.604	23714
840.742	23870
840.879	23471
841.016	23467
841.153	23509
841.29	23710
841.427	23627
841.564	23710
841.701	23657
841.838	23528
841.975	23531
842.112	23581
842.249	23376
842.385	23414
842.522	23482
842.659	23471
842.796	23471
842.933	23410
843.069	23448
843.206	23280
843.343	23455
843.479	23372
843.616	23497
843.752	23151
843.889	23200
844.025	23368
844.162	23212
844.298	23318
844.435	23178
844.571	23079
844.708	23200
844.844	23414
844.98	23337
845.117	23208
845.253	23239
845.389	23071
845.525	22946
845.661	23075
845.798	22885
845.934	22972
846.07	22915
846.206	22790
846.342	22824
846.478	22934
846.614	22607
846.75	22512
846.886	22622
847.022	22698
847.158	22736
847.294	22687
847.429	22687
847.565	22615
847.701	22847
847.837	22318
847.972	22314
848.108	22379
848.244	22531
848.379	22303
848.515	22341
848.65	22173
848.786	22169
848.921	22185
849.057	22303
849.192	22310
849.328	22284
849.463	22261
849.598	22131
849.734	22067
849.869	21941
850.004	22044
850.14	22017
850.275	22090
850.41	21949
850.545	21835
850.68	22040
850.815	21915
850.95	21987
851.085	22177
851.22	22166
851.355	22116
851.49	22029
851.625	21717
851.76	21903
851.895	21911
852.03	21964
852.165	21949
852.299	22112
852.434	22040
852.569	21918
852.703	22097
852.838	22059
852.973	22063
853.107	22116
853.242	21911
853.376	21880
853.511	21644
853.645	21728
853.78	21972
853.914	21865
854.048	21732
854.183	21812
854.317	21873
854.451	22055
854.585	21789
854.72	21793
854.854	21899
854.988	21648
855.122	21800
855.256	21717
855.39	21770
855.524	21857
855.658	21888
855.792	21778
855.926	21869
856.06	21876
856.194	21759
856.327	21747
856.461	21819
856.595	21698
856.729	21751
856.862	21861
856.996	21766
857.13	21892
857.263	21899
857.397	21892
857.53	21857
857.664	21884
857.797	21800
857.931	21926
858.064	21861
858.197	21876
858.331	21873
858.464	21686
858.597	21694
858.731	21831
858.864	21629
858.997	21743
859.13	21728
859.263	21804
859.396	21941
859.529	21759
859.662	21823
859.795	21819
859.928	21808
860.061	21934
860.194	22032
860.327	21846
860.46	21793
860.592	21956
860.725	21907
860.858	22128
860.99	21800
861.123	21720
861.256	21808
861.388	21869
861.521	22523
861.653	21736
861.786	21504
861.918	21660
862.05	21686
862.183	21823
862.315	21762
862.447	21766
862.58	21705
862.712	21641
862.844	21564
862.976	21606
863.108	21614
863.24	21937
863.372	21454
863.504	21526
863.636	21545
863.768	21500
863.9	21663
864.032	21504
864.164	21462
864.296	21458
864.428	21622
864.559	21614
864.691	21492
864.823	21557
864.954	21526
865.086	21530
865.217	21439
865.349	21302
865.48	21389
865.612	21473
865.743	21477
865.875	21492
866.006	21408
866.137	21393
866.269	21359
866.4	21226
866.531	21332
866.662	21412
866.793	21401
866.924	21340
867.055	21272
867.186	21321
867.317	21294
867.448	21195
867.579	21393
867.71	21294
867.841	21294
867.972	21203
868.103	21363
868.233	21344
868.364	21272
868.495	21450
868.625	21481
868.756	21656
868.886	21405
869.017	21545
869.147	21553
869.278	21553
869.408	21580
869.539	21576
869.669	21625
869.799	21622
869.929	21698
870.06	21720
870.19	21949
870.32	21827
870.45	21941
870.58	21808
870.71	21991
870.84	22006
870.97	21991
871.1	21949
871.23	22086
871.36	22188
871.489	22090
871.619	22101
871.749	22185
871.879	22112
872.008	22284
872.138	22112
872.267	22169
872.397	21956
872.526	21979
872.656	21991
872.785	21956
872.915	22135
873.044	22204
873.173	22086
873.303	22120
873.432	22173
873.561	22344
873.69	22044
873.819	22333
873.948	22211
874.077	22169
874.206	22112
874.335	22169
874.464	22257
874.593	22421
874.722	22394
874.851	22360
874.979	22440
875.108	22382
875.237	22261
875.365	22341
875.494	22284
875.623	22462
875.751	22310
875.88	22348
876.008	22436
876.136	22565
876.265	22869
876.393	22927
876.521	22866
876.65	22862
876.778	22862
876.906	22710
877.034	22778
877.162	22820
877.29	22679
877.418	22763
877.546	22694
877.674	22710
877.802	22767
877.93	22710
878.058	22664
878.185	22565
878.313	22691
878.441	22713
878.568	22546
878.696	22542
878.824	22824
878.951	22850
879.079	22942
879.206	23018
879.333	22889
879.461	22660
879.588	22873
879.715	22919
879.842	22984
879.97	22877
880.097	22500
880.224	22577
880.351	22698
880.478	22569
880.605	22451
880.732	22611
880.859	22782
880.986	22577
881.112	22531
881.239	22436
881.366	22417
881.493	22181
881.619	22063
881.746	22226
881.872	22036
881.999	22093
882.125	22044
882.252	22192
882.378	22017
882.505	22265
882.631	22063
882.757	21857
882.883	21785
883.01	21755
883.136	21869
883.262	21690
883.388	21648
883.514	21762
883.64	21816
883.766	21778
883.892	21515
884.018	21618
884.143	21690
884.269	21739
884.395	21603
884.52	21416
884.646	21507
884.772	21367
884.897	21386
885.023	21454
885.148	21545
885.274	21538
885.399	21564
885.524	21443
885.65	21382
885.775	21454
885.9	21496
886.025	21511
886.15	21466
886.275	21485
886.4	21351
886.525	21325
886.65	21317
886.775	21382
886.9	21496
887.025	21637
887.149	21458
887.274	21241
887.399	21135
887.523	21146
887.648	21211
887.773	21150
887.897	21336
888.021	21298
888.146	21161
888.27	21192
888.395	21344
888.519	21184
888.643	21207
888.767	21188
888.891	21108
889.015	20941
889.139	20929
889.263	20982
889.387	21123
889.511	21192
889.635	21074
889.759	21009
889.883	20986
890.006	20979
890.13	21100
890.254	20902
890.377	20963
890.501	20826
890.624	20682
890.748	20807
890.871	20678
890.995	20621
891.118	20568
891.241	20629
891.364	20667
891.488	20731
891.611	20552
891.734	20541
891.857	20617
891.98	20518
892.103	20609
892.226	20648
892.349	20545
892.471	20313
892.594	20488
892.717	20427
892.839	20377
892.962	20541
893.085	20495
893.207	20480
893.33	20313
893.452	20404
893.575	20511
893.697	20408
893.819	20648
893.941	20636
894.064	20583
894.186	20450
894.308	20438
894.43	20625
894.552	20663
894.674	20609
894.796	20339
894.918	20514
895.04	20362
895.161	20602
895.283	20530
895.405	20476
895.526	20507
895.648	20446
895.769	20457
895.891	20514
896.012	20533
896.134	20408
896.255	20556
896.376	20415
896.498	20339
896.619	20556
896.74	20332
896.861	20381
896.982	20716
897.103	20941
897.224	20743
897.345	20625
897.466	20697
897.587	20663
897.708	20765
897.828	20735
897.949	20651
898.07	20473
898.19	20549
898.311	20743
898.431	20670
898.552	20579
898.672	20613
898.792	20556
898.913	20651
899.033	20598
899.153	20427
899.273	20221
899.393	20351
899.513	20389
899.633	20278
899.753	20419
899.873	20180
899.993	20370
900.113	20343
900.232	20408
900.352	20294
900.472	20256
900.591	20142
900.711	20210
900.83	20142
900.95	20225
901.069	20248
901.189	19989
901.308	19814
901.427	19845
901.546	19909
901.665	19731
901.784	19719
901.904	19628
902.023	19586
902.141	19240
902.26	19251
902.379	19365
902.498	19308
902.617	19183
902.735	19251
902.854	19202
902.973	19278
903.091	19057
903.21	18943
903.328	18943
903.446	18840
903.565	18726
903.683	18681
903.801	18654
903.919	18654
904.038	18623
904.156	18456
904.274	18509
904.392	18407
904.51	18509
904.627	18445
904.745	18429
904.863	18452
904.981	18277
905.098	18136
905.216	18182
905.334	18064
905.451	18262
905.569	18133
905.686	18190
905.803	18102
905.921	17958
906.038	18003
906.155	17999
906.272	17946
906.389	17851
906.506	17737
906.623	17798
906.74	17748
906.857	17547
906.974	17653
907.091	17821
907.208	17855
907.324	17703
907.441	17566
907.557	17436
907.674	17486
907.79	17330
907.907	17463
908.023	17353
908.139	17482
908.256	17345
908.372	17250
908.488	17216
908.604	17239
908.72	17143
908.836	17159
908.952	17102
909.068	17098
909.184	17227
909.3	17090
909.415	17132
909.531	17151
909.647	16946
909.762	16892
909.878	16809
909.993	16965
910.108	16824
910.224	16801
910.339	16702
910.454	16664
910.57	16656
910.685	16554
910.8	16869
910.915	16869
911.03	16615
911.145	16493
911.259	16348
911.374	16504
911.489	16356
911.604	16253
911.718	16223
911.833	16192
911.947	16109
912.062	16002
912.176	16124
912.291	16162
912.405	16112
912.519	16284
912.633	16246
912.748	16211
912.862	16048
912.976	15975
913.09	15903
913.204	15850
913.318	15991
913.431	16093
913.545	16135
913.659	16071
913.772	16002
913.886	15823
914	15819
914.113	15880
914.226	15873
914.34	15918
914.453	15603
914.566	15797
914.68	15762
914.793	15663
914.906	15428
915.019	15450
915.132	15241
915.245	15306
915.358	15389
915.47	15462
915.583	15405
915.696	15382
915.809	15504
915.921	15447
916.034	15355
916.146	15176
916.259	15287
916.371	15306
916.483	15237
916.595	15321
916.708	15199
916.82	15294
916.932	15142
917.044	15100
917.156	15131
917.268	15074
917.38	15138
917.491	14933
917.603	14982
917.715	15047
917.826	15195
917.938	14864
918.049	14819
918.161	14998
918.272	15119
918.384	15131
918.495	14910
918.606	14918
918.717	14655
918.828	14754
918.939	14674
919.05	14621
919.161	14716
919.272	14556
919.383	14606
919.494	14769
919.604	14944
919.715	14727
919.826	14636
919.936	14731
920.047	14777
920.157	14712
920.267	14921
920.378	14632
920.488	14651
920.598	14815
920.708	15013
920.818	14937
920.928	14876
921.038	14975
921.148	14971
921.258	14590
921.368	14621
921.477	14507
921.587	14495
921.697	14313
921.806	14427
921.916	14332
922.025	14191
922.134	14126
922.244	14088
922.353	14043
922.462	13974
922.571	13944
922.68	13738
922.789	13761
922.898	13753
923.007	13651
923.116	13719
923.224	13712
923.333	13765
923.442	13563
923.55	13552
923.659	13575
923.767	13666
923.876	13559
923.984	13571
924.092	13518
924.201	13540
924.309	13594
924.417	13438
924.525	13438
924.633	13445
924.741	14278
924.849	13308
924.956	13346
925.064	13236
925.172	13084
925.279	13164
925.387	13236
925.494	13152
925.602	13244
925.709	13164
925.816	13099
925.924	13069
926.031	13190
926.138	13095
926.245	12996
926.352	12958
926.459	13133
926.566	13091
926.673	13050
926.779	12894
926.886	12791
926.993	12658
927.099	12673
927.206	12620
927.312	12639
927.419	12738
927.525	12715
927.631	12707
927.737	12642
927.843	12544
927.95	12380
928.056	12536
928.162	12456
928.267	12517
928.373	13126
928.479	12544
928.585	12357
928.69	12475
928.796	12532
928.901	12289
929.007	12235
929.112	12369
929.218	12281
929.323	12311
929.428	12239
929.533	12388
929.638	12155
929.743	12163
929.848	12266
929.953	12182
930.058	12133
930.163	11874
930.267	11927
930.372	12034
930.477	11870
930.581	12140
930.685	11935
930.79	11767
930.894	11775
930.998	11786
931.103	11916
931.207	11516
931.311	11455
931.415	11326
931.519	11231
931.623	11170
