Data from test_V78500241_2163.txt Node
Date: Fri Mar 25 15:24:55 CST 2022
User: usil
Spectrometer: V785-0024
Trigger mode: 0
Integration Time (sec): 4.000000E-1
Scans to average: 1
Nonlinearity correction enabled: false
Boxcar width: 0
Storing dark spectrum: false
XAxis mode: Wavelengths
Number of Pixels in Spectrum: 1024
>>>>>Begin Spectral Data<<<<<
801.071	27682
801.214	27778
801.356	27412
801.499	27306
801.641	27279
801.783	27176
801.926	27393
802.068	27382
802.211	27184
802.353	27233
802.496	26948
802.638	26864
802.78	26982
802.923	26899
803.065	26773
803.208	26956
803.35	26982
803.492	27070
803.635	27173
803.777	26994
803.919	27119
804.061	27351
804.204	27203
804.346	27214
804.488	27203
804.63	27150
804.773	27066
804.915	27123
805.057	27370
805.199	27142
805.341	27062
805.483	27298
805.626	27249
805.768	27176
805.91	27252
806.052	27317
806.194	27119
806.336	27485
806.478	27173
806.62	27313
806.762	27443
806.904	27519
807.046	27793
807.188	27698
807.33	27488
807.472	27595
807.614	27549
807.756	27519
807.898	27538
808.04	27519
808.182	27599
808.324	27523
808.465	27614
808.607	27785
808.749	27747
808.891	28051
809.033	27934
809.174	28105
809.316	27831
809.458	27854
809.6	27888
809.741	28029
809.883	27975
810.025	28249
810.166	28070
810.308	28154
810.45	28082
810.591	28002
810.733	27880
810.875	27854
811.016	27720
811.158	27751
811.299	27972
811.441	27941
811.582	27994
811.724	27827
811.865	27751
812.007	27930
812.148	27873
812.29	27899
812.431	28116
812.573	28188
812.714	28440
812.855	28325
812.997	28550
813.138	28573
813.279	28592
813.421	28421
813.562	28257
813.703	28219
813.845	28135
813.986	27804
814.127	27610
814.268	27648
814.41	27523
814.551	27622
814.692	27507
814.833	27439
814.974	27530
815.115	27568
815.256	27496
815.397	27325
815.539	27435
815.68	27310
815.821	27173
815.962	27386
816.103	27218
816.244	27150
816.385	27203
816.526	27199
816.666	26963
816.807	26868
816.948	26906
817.089	26960
817.23	26746
817.371	26689
817.512	26830
817.653	26781
817.793	26800
817.934	26906
818.075	26845
818.216	26811
818.356	26689
818.497	26667
818.638	26606
818.778	26469
818.919	26606
819.06	26488
819.2	26693
819.341	26823
819.481	26880
819.622	27070
819.762	27249
819.903	27112
820.043	26933
820.184	26937
820.324	26891
820.465	27096
820.605	26899
820.746	26952
820.886	26781
821.026	26994
821.167	26906
821.307	27085
821.447	26807
821.588	26720
821.728	26689
821.868	26419
822.008	26385
822.149	26339
822.289	26290
822.429	26126
822.569	25944
822.709	26012
822.849	25818
822.99	25746
823.13	25734
823.27	25772
823.41	25643
823.55	25578
823.69	25632
823.83	25674
823.97	25552
824.11	25384
824.25	25415
824.389	25369
824.529	25479
824.669	25346
824.809	25495
824.949	25559
825.089	25479
825.228	25510
825.368	25449
825.508	25297
825.648	25419
825.787	25457
825.927	25434
826.067	25206
826.206	25388
826.346	25244
826.485	25316
826.625	25289
826.765	25411
826.904	25327
827.044	25107
827.183	25137
827.323	24985
827.462	24989
827.601	25133
827.741	24977
827.88	25057
828.02	24894
828.159	24951
828.298	24977
828.437	25088
828.577	25023
828.716	25137
828.855	25053
828.994	24783
829.134	24776
829.273	24776
829.412	24620
829.551	24669
829.69	24661
829.829	24840
829.968	24814
830.107	24700
830.246	24722
830.385	24681
830.524	24665
830.663	24540
830.802	24483
830.941	24315
831.08	24334
831.219	24445
831.357	24304
831.496	24418
831.635	24273
831.774	24117
831.913	24182
832.051	24129
832.19	24102
832.329	24144
832.467	23973
832.606	24022
832.744	24087
832.883	23939
833.022	23843
833.16	24015
833.299	23965
833.437	24106
833.576	24114
833.714	24076
833.852	24148
833.991	24144
834.129	23973
834.267	24163
834.406	24076
834.544	24091
834.682	24140
834.821	24072
834.959	24254
835.097	23958
835.235	24102
835.373	24049
835.511	24129
835.65	23920
835.788	23870
835.926	23805
836.064	23783
836.202	23691
836.34	23874
836.478	23988
836.615	23722
836.753	23764
836.891	23946
837.029	23836
837.167	23794
837.305	23813
837.443	23748
837.58	23535
837.718	23703
837.856	23805
837.993	23687
838.131	23596
838.269	23558
838.406	23497
838.544	23490
838.681	23379
838.819	23258
838.956	23265
839.094	23185
839.231	23041
839.369	23440
839.506	23646
839.643	23421
839.781	23212
839.918	23109
840.055	23060
840.193	23151
840.33	23056
840.467	23151
840.604	23223
840.742	23322
840.879	22987
841.016	22946
841.153	22919
841.29	23128
841.427	22968
841.564	23071
841.701	22968
841.838	22957
841.975	23003
842.112	22957
842.249	22839
842.385	22793
842.522	23037
842.659	22881
842.796	22729
842.933	22889
843.069	22755
843.206	22824
843.343	22927
843.479	22892
843.616	22843
843.752	22771
843.889	22637
844.025	22672
844.162	22592
844.298	22702
844.435	22569
844.571	22512
844.708	22717
844.844	22683
844.98	22752
845.117	22691
845.253	22622
845.389	22478
845.525	22478
845.661	22421
845.798	22333
845.934	22478
846.07	22329
846.206	22386
846.342	22443
846.478	22238
846.614	22051
846.75	22013
846.886	22032
847.022	22139
847.158	22131
847.294	21991
847.429	22078
847.565	22082
847.701	22405
847.837	21770
847.972	21800
848.108	21895
848.244	22013
848.379	21641
848.515	21694
848.65	21724
848.786	21876
848.921	21698
849.057	21835
849.192	21865
849.328	21724
849.463	21583
849.598	21644
849.734	21511
849.869	21511
850.004	21458
850.14	21519
850.275	21405
850.41	21386
850.545	21447
850.68	21462
850.815	21526
850.95	21397
851.085	21622
851.22	21618
851.355	21496
851.49	21332
851.625	21393
851.76	21382
851.895	21363
852.03	21447
852.165	21325
852.299	21450
852.434	21526
852.569	21382
852.703	21462
852.838	21500
852.973	21507
853.107	21481
853.242	21306
853.376	21252
853.511	21222
853.645	21313
853.78	21340
853.914	21222
854.048	21260
854.183	21241
854.317	21207
854.451	21447
854.585	21264
854.72	21294
854.854	21351
854.988	21230
855.122	21272
855.256	21104
855.39	21165
855.524	21462
855.658	21256
855.792	21268
855.926	21321
856.06	21245
856.194	21447
856.327	21287
856.461	21279
856.595	21237
856.729	21275
856.862	21359
856.996	21302
857.13	21313
857.263	21515
857.397	21275
857.53	21146
857.664	21214
857.797	21287
857.931	21378
858.064	21374
858.197	21431
858.331	21260
858.464	21161
858.597	21188
858.731	21207
858.864	21230
858.997	21256
859.13	21241
859.263	21249
859.396	21313
859.529	21260
859.662	21146
859.795	21233
859.928	21237
860.061	21401
860.194	21466
860.327	21287
860.46	21325
860.592	21473
860.725	21473
860.858	21294
860.99	21260
861.123	21119
861.256	21241
861.388	21329
861.521	21892
861.653	21100
861.786	20948
861.918	21020
862.05	21024
862.183	21165
862.315	21199
862.447	21264
862.58	21272
862.712	21062
862.844	20948
862.976	21135
863.108	20952
863.24	21405
863.372	20918
863.504	21001
863.636	20986
863.768	20986
863.9	20956
864.032	20842
864.164	20891
864.296	21005
864.428	20941
864.559	20975
864.691	20925
864.823	21005
864.954	21089
865.086	20899
865.217	20918
865.349	20743
865.48	20826
865.612	20887
865.743	20994
865.875	20918
866.006	20811
866.137	20876
866.269	20872
866.4	20853
866.531	20838
866.662	20777
866.793	20777
866.924	20777
867.055	20868
867.186	20758
867.317	20727
867.448	20682
867.579	20644
867.71	20625
867.841	20720
867.972	20788
868.103	20609
868.233	20712
868.364	20796
868.495	20883
868.625	21119
868.756	21154
868.886	21066
869.017	21017
869.147	21146
869.278	21062
869.408	21085
869.539	21135
869.669	21017
869.799	21112
869.929	21275
870.06	21096
870.19	21405
870.32	21313
870.45	21336
870.58	21386
870.71	21504
870.84	21625
870.97	21355
871.1	21416
871.23	21599
871.36	21637
871.489	21488
871.619	21671
871.749	21587
871.879	21656
872.008	21694
872.138	21679
872.267	21507
872.397	21428
872.526	21397
872.656	21557
872.785	21477
872.915	21587
873.044	21751
873.173	21724
873.303	21717
873.432	21625
873.561	21770
873.69	21819
873.819	21778
873.948	21766
874.077	21743
874.206	21713
874.335	21599
874.464	21934
874.593	21895
874.722	21736
874.851	21922
874.979	21899
875.108	21895
875.237	21831
875.365	21793
875.494	21797
875.623	21994
875.751	21808
875.88	22029
876.008	22093
876.136	22010
876.265	22447
876.393	22409
876.521	22325
876.65	22440
876.778	22272
876.906	22291
877.034	22173
877.162	22242
877.29	22086
877.418	22204
877.546	22333
877.674	22120
877.802	22249
877.93	22265
878.058	22116
878.185	22044
878.313	22242
878.441	22181
878.568	21972
878.696	22124
878.824	22265
878.951	22238
879.079	22421
879.206	22516
879.333	22436
879.461	22268
879.588	22386
879.715	22261
879.842	22489
879.97	22230
880.097	22154
880.224	22067
880.351	22112
880.478	22082
880.605	21983
880.732	22055
880.859	22348
880.986	22063
881.112	21991
881.239	21876
881.366	21819
881.493	21880
881.619	21717
881.746	21641
881.872	21583
881.999	21610
882.125	21485
882.252	21595
882.378	21580
882.505	21690
882.631	21469
882.757	21378
882.883	21329
883.01	21329
883.136	21348
883.262	21245
883.388	21135
883.514	21226
883.64	21287
883.766	21294
883.892	21169
884.018	21104
884.143	21207
884.269	21420
884.395	21108
884.52	20937
884.646	20941
884.772	20914
884.897	20788
885.023	20960
885.148	21020
885.274	21131
885.399	21039
885.524	20872
885.65	20910
885.775	20914
885.9	20941
886.025	21142
886.15	21058
886.275	20918
886.4	20872
886.525	21005
886.65	20902
886.775	20811
886.9	21089
887.025	21192
887.149	20868
887.274	20826
887.399	20651
887.523	20670
887.648	20701
887.773	20541
887.897	20819
888.021	20781
888.146	20617
888.27	20785
888.395	20845
888.519	20670
888.643	20731
888.767	20811
888.891	20564
889.015	20552
889.139	20514
889.263	20549
889.387	20587
889.511	20796
889.635	20617
889.759	20560
889.883	20560
890.006	20492
890.13	20697
890.254	20419
890.377	20522
890.501	20351
890.624	20282
890.748	20389
890.871	20210
890.995	20050
891.118	20054
891.241	20164
891.364	20134
891.488	20252
891.611	20214
891.734	20153
891.857	20252
891.98	20176
892.103	20069
892.226	20092
892.349	20024
892.471	19986
892.594	20111
892.717	20233
892.839	20024
892.962	20012
893.085	20077
893.207	20077
893.33	19955
893.452	19955
893.575	20081
893.697	20016
893.819	20221
893.941	20195
894.064	20115
894.186	19951
894.308	19955
894.43	20058
894.552	20107
894.674	20100
894.796	19849
894.918	20092
895.04	20027
895.161	20008
895.283	20024
895.405	19898
895.526	19970
895.648	19974
895.769	20020
895.891	20119
896.012	20176
896.134	20058
896.255	20088
896.376	19947
896.498	20065
896.619	20164
896.74	20050
896.861	20096
896.982	20404
897.103	20507
897.224	20370
897.345	20187
897.466	20126
897.587	20252
897.708	20271
897.828	20385
897.949	20229
898.07	19959
898.19	20199
898.311	20408
898.431	20301
898.552	20275
898.672	20343
898.792	20332
898.913	20267
899.033	20153
899.153	20043
899.273	20008
899.393	20065
899.513	20096
899.633	19909
899.753	20020
899.873	19955
899.993	20168
900.113	19894
900.232	20001
900.352	20088
900.472	19799
900.591	19944
900.711	19868
900.83	19731
900.95	19852
901.069	19822
901.189	19715
901.308	19434
901.427	19381
901.546	19403
901.665	19441
901.784	19320
901.904	19308
902.023	19103
902.141	19038
902.26	18947
902.379	19091
902.498	18905
902.617	18882
902.735	18837
902.854	18787
902.973	18795
903.091	18582
903.21	18570
903.328	18585
903.446	18532
903.565	18384
903.683	18467
903.801	18163
903.919	18254
904.038	18410
904.156	18216
904.274	18148
904.392	18121
904.51	18110
904.627	18098
904.745	18228
904.863	18228
904.981	17965
905.098	17847
905.216	17805
905.334	17771
905.451	17760
905.569	17817
905.686	17798
905.803	17687
905.921	17668
906.038	17786
906.155	17630
906.272	17505
906.389	17562
906.506	17315
906.623	17360
906.74	17356
906.857	17330
906.974	17265
907.091	17402
907.208	17471
907.324	17372
907.441	17181
907.557	17071
907.674	17025
907.79	17018
907.907	17113
908.023	17037
908.139	16961
908.256	17014
908.372	16919
908.488	16889
908.604	16847
908.72	16763
908.836	16755
908.952	16736
909.068	16839
909.184	16961
909.3	16786
909.415	16736
909.531	16782
909.647	16542
909.762	16538
909.878	16485
909.993	16459
910.108	16375
910.224	16417
910.339	16478
910.454	16382
910.57	16341
910.685	16207
910.8	16436
910.915	16432
911.03	16257
911.145	16101
911.259	16082
911.374	16131
911.489	15972
911.604	15983
911.718	15857
911.833	15869
911.947	15785
912.062	15641
912.176	15778
912.291	15895
912.405	15884
912.519	15987
912.633	16013
912.748	15930
912.862	15793
912.976	15637
913.09	15542
913.204	15603
913.318	15705
913.431	15774
913.545	15766
913.659	15781
913.772	15599
913.886	15557
914	15405
914.113	15568
914.226	15713
914.34	15557
914.453	15287
914.566	15481
914.68	15393
914.793	15283
914.906	15116
915.019	15013
915.132	15032
915.245	15020
915.358	15020
915.47	14998
915.583	15074
915.696	15154
915.809	15116
915.921	15108
916.034	14929
916.146	14876
916.259	14910
916.371	15028
916.483	15009
916.595	14956
916.708	14918
916.82	14990
916.932	14773
917.044	14876
917.156	14838
917.268	14632
917.38	14735
917.491	14697
917.603	14682
917.715	14845
917.826	14819
917.938	14587
918.049	14594
918.161	14663
918.272	14724
918.384	14796
918.495	14629
918.606	14465
918.717	14518
918.828	14446
918.939	14564
919.05	14454
919.161	14431
919.272	14210
919.383	14351
919.494	14499
919.604	14667
919.715	14560
919.826	14393
919.936	14419
920.047	14564
920.157	14473
920.267	14495
920.378	14358
920.488	14495
920.598	14579
920.708	14712
920.818	14571
920.928	14541
921.038	14727
921.148	14743
921.258	14309
921.368	14244
921.477	14214
921.587	14180
921.697	14020
921.806	14130
921.916	14069
922.025	13841
922.134	13868
922.244	13765
922.353	13769
922.462	13696
922.571	13525
922.68	13506
922.789	13502
922.898	13571
923.007	13381
923.116	13533
923.224	13419
923.333	13388
923.442	13354
923.55	13354
923.659	13278
923.767	13343
923.876	13362
923.984	13346
924.092	13217
924.201	13228
924.309	13327
924.417	13209
924.525	13057
924.633	13118
924.741	13879
924.849	12935
924.956	13023
925.064	12863
925.172	12859
925.279	12726
925.387	12981
925.494	12871
925.602	13012
925.709	13000
925.816	12806
925.924	12829
926.031	12924
926.138	12833
926.245	12875
926.352	12669
926.459	12817
926.566	12897
926.673	12833
926.779	12696
926.886	12521
926.993	12574
927.099	12319
927.206	12376
927.312	12380
927.419	12479
927.525	12471
927.631	12502
927.737	12407
927.843	12311
927.95	12273
928.056	12361
928.162	12300
928.267	12300
928.373	12844
928.479	12388
928.585	12159
928.69	12254
928.796	12228
928.901	12186
929.007	12064
929.112	12102
929.218	12079
929.323	12060
929.428	11916
929.533	12114
929.638	11958
929.743	11874
929.848	11946
929.953	11973
930.058	11832
930.163	11824
930.267	11672
930.372	11790
930.477	11684
930.581	11878
930.685	11714
930.79	11581
930.894	11581
930.998	11596
931.103	11695
931.207	11273
931.311	11299
931.415	11185
931.519	10946
931.623	10987
