Data from test_V78500241_201.txt Node
Date: Fri Mar 25 15:11:15 CST 2022
User: usil
Spectrometer: V785-0024
Trigger mode: 0
Integration Time (sec): 4.000000E-1
Scans to average: 1
Nonlinearity correction enabled: false
Boxcar width: 0
Storing dark spectrum: false
XAxis mode: Wavelengths
Number of Pixels in Spectrum: 1024
>>>>>Begin Spectral Data<<<<<
801.071	28013
801.214	27774
801.356	27682
801.499	27530
801.641	27211
801.783	27321
801.926	27454
802.068	27302
802.211	27294
802.353	27211
802.496	27135
802.638	27070
802.78	27055
802.923	26967
803.065	26857
803.208	26925
803.35	26990
803.492	27104
803.635	27074
803.777	27036
803.919	27161
804.061	27450
804.204	27070
804.346	27066
804.488	26914
804.63	26979
804.773	26956
804.915	26956
805.057	27222
805.199	26986
805.341	27085
805.483	27089
805.626	27108
805.768	27081
805.91	27066
806.052	27214
806.194	27032
806.336	27218
806.478	27051
806.62	27089
806.762	27260
806.904	27344
807.046	27534
807.188	27553
807.33	27492
807.472	27561
807.614	27485
807.756	27443
807.898	27310
808.04	27211
808.182	27287
808.324	27317
808.465	27427
808.607	27507
808.749	27610
808.891	27789
809.033	27888
809.174	27873
809.316	27663
809.458	27603
809.6	27610
809.741	27717
809.883	27914
810.025	27876
810.166	27945
810.308	27861
810.45	27804
810.591	27816
810.733	27717
810.875	27633
811.016	27515
811.158	27427
811.299	27724
811.441	27785
811.582	27778
811.724	27466
811.865	27557
812.007	27557
812.148	27759
812.29	27682
812.431	27797
812.573	27922
812.714	27998
812.855	28257
812.997	28173
813.138	28474
813.279	28192
813.421	28173
813.562	28036
813.703	28029
813.845	27861
813.986	27523
814.127	27519
814.268	27298
814.41	27184
814.551	27184
814.692	27294
814.833	27199
814.974	27214
815.115	27260
815.256	27138
815.397	27142
815.539	27077
815.68	26994
815.821	26963
815.962	27005
816.103	26940
816.244	26792
816.385	26758
816.526	26788
816.666	26621
816.807	26453
816.948	26632
817.089	26609
817.23	26571
817.371	26453
817.512	26518
817.653	26438
817.793	26389
817.934	26400
818.075	26507
818.216	26514
818.356	26408
818.497	26351
818.638	26111
818.778	26263
818.919	26183
819.06	26199
819.2	26248
819.341	26358
819.481	26355
819.622	26556
819.762	26823
819.903	26693
820.043	26583
820.184	26488
820.324	26332
820.465	26473
820.605	26507
820.746	26511
820.886	26286
821.026	26404
821.167	26469
821.307	26507
821.447	26381
821.588	26134
821.728	26107
821.868	26077
822.008	25868
822.149	25871
822.289	25856
822.429	25495
822.569	25483
822.709	25499
822.849	25278
822.99	25343
823.13	25335
823.27	25175
823.41	25152
823.55	25046
823.69	25129
823.83	25027
823.97	25198
824.11	24913
824.25	24802
824.389	24882
824.529	25038
824.669	25038
824.809	24932
824.949	25034
825.089	25012
825.228	24920
825.368	24806
825.508	24719
825.648	24730
825.787	24787
825.927	24871
826.067	24726
826.206	24681
826.346	24806
826.485	24764
826.625	24753
826.765	24909
826.904	24696
827.044	24513
827.183	24490
827.323	24323
827.462	24555
827.601	24551
827.741	24399
827.88	24471
828.02	24376
828.159	24433
828.298	24388
828.437	24475
828.577	24289
828.716	24475
828.855	24258
828.994	24155
829.134	24167
829.273	24182
829.412	24167
829.551	24076
829.69	24106
829.829	24133
829.968	24296
830.107	24083
830.246	24026
830.385	23969
830.524	24041
830.663	23866
830.802	23729
830.941	23756
831.08	23684
831.219	23798
831.357	23703
831.496	23973
831.635	23741
831.774	23634
831.913	23638
832.051	23398
832.19	23501
832.329	23474
832.467	23345
832.606	23227
832.744	23334
832.883	23337
833.022	23341
833.16	23372
833.299	23322
833.437	23311
833.576	23379
833.714	23474
833.852	23379
833.991	23421
834.129	23482
834.267	23417
834.406	23444
834.544	23493
834.682	23402
834.821	23334
834.959	23585
835.097	23261
835.235	23421
835.373	23368
835.511	23512
835.65	23159
835.788	23277
835.926	23124
836.064	23071
836.202	23067
836.34	23132
836.478	23315
836.615	23162
836.753	23227
836.891	23235
837.029	23273
837.167	23193
837.305	23048
837.443	23064
837.58	22961
837.718	23197
837.856	23159
837.993	22961
838.131	22991
838.269	22911
838.406	22915
838.544	22908
838.681	22771
838.819	22546
838.956	22500
839.094	22390
839.231	22485
839.369	22664
839.506	22934
839.643	22801
839.781	22481
839.918	22436
840.055	22531
840.193	22611
840.33	22402
840.467	22481
840.604	22443
840.742	22656
840.879	22196
841.016	22310
841.153	22265
841.29	22497
841.427	22451
841.564	22371
841.701	22333
841.838	22322
841.975	22219
842.112	22344
842.249	22303
842.385	22074
842.522	22325
842.659	22166
842.796	22211
842.933	22105
843.069	22040
843.206	22101
843.343	22067
843.479	22112
843.616	22048
843.752	21937
843.889	21972
844.025	22010
844.162	21892
844.298	21979
844.435	21816
844.571	21804
844.708	21975
844.844	22135
844.98	22105
845.117	21975
845.253	21838
845.389	21865
845.525	21808
845.661	21644
845.798	21633
845.934	21652
846.07	21663
846.206	21606
846.342	21743
846.478	21561
846.614	21466
846.75	21237
846.886	21302
847.022	21313
847.158	21363
847.294	21336
847.429	21408
847.565	21450
847.701	21492
847.837	21074
847.972	21096
848.108	21211
848.244	21157
848.379	21047
848.515	20967
848.65	20853
848.786	20899
848.921	20982
849.057	20982
849.192	21077
849.328	20910
849.463	20963
849.598	20956
849.734	20864
849.869	20807
850.004	20697
850.14	20693
850.275	20773
850.41	20655
850.545	20674
850.68	20659
850.815	20746
850.95	20659
851.085	20834
851.22	20781
851.355	20693
851.49	20754
851.625	20727
851.76	20598
851.895	20651
852.03	20514
852.165	20492
852.299	20606
852.434	20705
852.569	20792
852.703	20686
852.838	20686
852.973	20727
853.107	20773
853.242	20644
853.376	20537
853.511	20324
853.645	20530
853.78	20621
853.914	20705
854.048	20484
854.183	20457
854.317	20609
854.451	20598
854.585	20438
854.72	20564
854.854	20518
854.988	20434
855.122	20499
855.256	20278
855.39	20389
855.524	20579
855.658	20617
855.792	20476
855.926	20590
856.06	20511
856.194	20526
856.327	20469
856.461	20465
856.595	20351
856.729	20457
856.862	20560
856.996	20522
857.13	20541
857.263	20541
857.397	20473
857.53	20495
857.664	20492
857.797	20590
857.931	20533
858.064	20541
858.197	20503
858.331	20457
858.464	20480
858.597	20351
858.731	20419
858.864	20434
858.997	20431
859.13	20404
859.263	20431
859.396	20590
859.529	20294
859.662	20427
859.795	20374
859.928	20431
860.061	20617
860.194	20640
860.327	20541
860.46	20412
860.592	20499
860.725	20545
860.858	20541
860.99	20492
861.123	20332
861.256	20339
861.388	20484
861.521	21272
861.653	20259
861.786	20286
861.918	20343
862.05	20370
862.183	20389
862.315	20400
862.447	20484
862.58	20484
862.712	20221
862.844	20134
862.976	20168
863.108	20290
863.24	20617
863.372	20157
863.504	20199
863.636	20138
863.768	20126
863.9	20221
864.032	20005
864.164	20001
864.296	20161
864.428	20180
864.559	20240
864.691	20225
864.823	20214
864.954	20153
865.086	20164
865.217	20027
865.349	20020
865.48	20199
865.612	20005
865.743	20062
865.875	20062
866.006	20012
866.137	20073
866.269	20058
866.4	20020
866.531	20020
866.662	20008
866.793	19970
866.924	19932
867.055	19989
867.186	19982
867.317	19837
867.448	19856
867.579	19993
867.71	19875
867.841	19871
867.972	20035
868.103	19890
868.233	19894
868.364	20073
868.495	20138
868.625	20161
868.756	20305
868.886	20202
869.017	20122
869.147	20301
869.278	20393
869.408	20058
869.539	20187
869.669	20370
869.799	20381
869.929	20320
870.06	20355
870.19	20442
870.32	20518
870.45	20514
870.58	20613
870.71	20682
870.84	20765
870.97	20625
871.1	20613
871.23	20800
871.36	20769
871.489	20663
871.619	20849
871.749	20765
871.879	20925
872.008	20887
872.138	20830
872.267	20727
872.397	20712
872.526	20659
872.656	20518
872.785	20518
872.915	20777
873.044	20929
873.173	20880
873.303	20906
873.432	20804
873.561	20944
873.69	20735
873.819	20811
873.948	20880
874.077	20883
874.206	20838
874.335	20899
874.464	20941
874.593	21119
874.722	21055
874.851	21116
874.979	21127
875.108	21108
875.237	20975
875.365	21051
875.494	20998
875.623	21252
875.751	21066
875.88	21093
876.008	21150
876.136	21348
876.265	21519
876.393	21591
876.521	21523
876.65	21564
876.778	21389
876.906	21477
877.034	21378
877.162	21504
877.29	21473
877.418	21561
877.546	21424
877.674	21507
877.802	21488
877.93	21386
878.058	21367
878.185	21275
878.313	21272
878.441	21416
878.568	21237
878.696	21313
878.824	21393
878.951	21515
879.079	21679
879.206	21690
879.333	21519
879.461	21416
879.588	21530
879.715	21610
879.842	21610
879.97	21538
880.097	21272
880.224	21256
880.351	21370
880.478	21237
880.605	21157
880.732	21256
880.859	21420
880.986	21252
881.112	21268
881.239	21089
881.366	20887
881.493	20899
881.619	20872
881.746	20876
881.872	20826
881.999	20857
882.125	20781
882.252	20804
882.378	20750
882.505	21036
882.631	20674
882.757	20594
882.883	20705
883.01	20640
883.136	20522
883.262	20511
883.388	20469
883.514	20712
883.64	20678
883.766	20480
883.892	20324
884.018	20419
884.143	20537
884.269	20701
884.395	20408
884.52	20237
884.646	20149
884.772	20142
884.897	20176
885.023	20275
885.148	20313
885.274	20275
885.399	20309
885.524	20324
885.65	20172
885.775	20202
885.9	20240
886.025	20278
886.15	20263
886.275	20187
886.4	20069
886.525	20168
886.65	20073
886.775	20248
886.9	20263
887.025	20450
887.149	20161
887.274	20046
887.399	19967
887.523	20016
887.648	19978
887.773	19807
887.897	19955
888.021	20035
888.146	19955
888.27	20065
888.395	20046
888.519	20058
888.643	19921
888.767	20103
888.891	19974
889.015	19750
889.139	19860
889.263	19830
889.387	19913
889.511	19989
889.635	19849
889.759	19750
889.883	19693
890.006	19734
890.13	19871
890.254	19590
890.377	19658
890.501	19540
890.624	19559
890.748	19624
890.871	19457
890.995	19263
891.118	19247
891.241	19343
891.364	19285
891.488	19472
891.611	19324
891.734	19411
891.857	19358
891.98	19331
892.103	19403
892.226	19320
892.349	19244
892.471	19114
892.594	19343
892.717	19419
892.839	19278
892.962	19270
893.085	19324
893.207	19335
893.33	19247
893.452	19156
893.575	19407
893.697	19327
893.819	19373
893.941	19403
894.064	19373
894.186	19194
894.308	19297
894.43	19259
894.552	19445
894.674	19377
894.796	19091
894.918	19187
895.04	19244
895.161	19350
895.283	19411
895.405	19228
895.526	19240
895.648	19274
895.769	19270
895.891	19335
896.012	19362
896.134	19255
896.255	19350
896.376	19175
896.498	19381
896.619	19354
896.74	19213
896.861	19365
896.982	19662
897.103	19712
897.224	19689
897.345	19571
897.466	19411
897.587	19605
897.708	19655
897.828	19468
897.949	19499
898.07	19369
898.19	19449
898.311	19605
898.431	19365
898.552	19567
898.672	19434
898.792	19594
898.913	19521
899.033	19365
899.153	19236
899.273	19301
899.393	19312
899.513	19285
899.633	19202
899.753	19198
899.873	19202
899.993	19308
900.113	19194
900.232	19289
900.352	19206
900.472	19270
900.591	19023
900.711	19065
900.83	18973
900.95	19228
901.069	19148
901.189	19000
901.308	18738
901.427	18623
901.546	18696
901.665	18677
901.784	18719
901.904	18509
902.023	18395
902.141	18262
902.26	18174
902.379	18235
902.498	18117
902.617	18057
902.735	18213
902.854	18110
902.973	18095
903.091	17790
903.21	17863
903.328	17927
903.446	17790
903.565	17665
903.683	17661
903.801	17459
903.919	17528
904.038	17634
904.156	17478
904.274	17501
904.392	17360
904.51	17402
904.627	17452
904.745	17535
904.863	17444
904.981	17204
905.098	17025
905.216	17117
905.334	17181
905.451	17117
905.569	17041
905.686	17079
905.803	17121
905.921	16858
906.038	16942
906.155	16835
906.272	16691
906.389	16835
906.506	16611
906.623	16592
906.74	16584
906.857	16542
906.974	16497
907.091	16729
907.208	16782
907.324	16698
907.441	16565
907.557	16413
907.674	16268
907.79	16230
907.907	16261
908.023	16268
908.139	16303
908.256	16299
908.372	16348
908.488	16169
908.604	16063
908.72	16044
908.836	16029
908.952	15956
909.068	16071
909.184	16090
909.3	16101
909.415	16181
909.531	16055
909.647	15789
909.762	15720
909.878	15720
909.993	15797
910.108	15804
910.224	15781
910.339	15701
910.454	15713
910.57	15660
910.685	15462
910.8	15770
910.915	15778
911.03	15564
911.145	15412
911.259	15329
911.374	15336
911.489	15176
911.604	15195
911.718	15085
911.833	15058
911.947	14887
912.062	14941
912.176	15051
912.291	15013
912.405	15070
912.519	15207
912.633	15218
912.748	15070
912.862	15013
912.976	14910
913.09	14815
913.204	14800
913.318	14857
913.431	15020
913.545	14914
913.659	14960
913.772	14853
913.886	14788
914	14693
914.113	14777
914.226	14781
914.34	14804
914.453	14606
914.566	14868
914.68	14632
914.793	14568
914.906	14393
915.019	14298
915.132	14320
915.245	14313
915.358	14423
915.47	14267
915.583	14309
915.696	14290
915.809	14484
915.921	14526
916.034	14240
916.146	14176
916.259	14229
916.371	14336
916.483	14389
916.595	14202
916.708	14206
916.82	14221
916.932	14153
917.044	14157
917.156	14073
917.268	14020
917.38	14092
917.491	14058
917.603	14062
917.715	14157
917.826	14103
917.938	14081
918.049	13997
918.161	14012
918.272	14115
918.384	14134
918.495	14039
918.606	13807
918.717	13833
918.828	13807
918.939	13879
919.05	13742
919.161	13746
919.272	13628
919.383	13670
919.494	13902
919.604	14020
919.715	13791
919.826	13719
919.936	13655
920.047	13868
920.157	13852
920.267	13978
920.378	13715
920.488	13727
920.598	13997
920.708	14084
920.818	13951
920.928	14020
921.038	14046
921.148	13936
921.258	13727
921.368	13609
921.477	13586
921.587	13514
921.697	13411
921.806	13491
921.916	13392
922.025	13194
922.134	13202
922.244	13149
922.353	13202
922.462	13084
922.571	12977
922.68	12882
922.789	12798
922.898	12844
923.007	12749
923.116	12825
923.224	12738
923.333	12776
923.442	12684
923.55	12536
923.659	12673
923.767	12673
923.876	12620
923.984	12631
924.092	12471
924.201	12601
924.309	12532
924.417	12582
924.525	12536
924.633	12604
924.741	13236
924.849	12350
924.956	12452
925.064	12319
925.172	12140
925.279	12334
925.387	12289
925.494	12304
925.602	12380
925.709	12266
925.816	12175
925.924	12232
926.031	12365
926.138	12235
926.245	12277
926.352	12178
926.459	12262
926.566	12247
926.673	12140
926.779	11961
926.886	12022
926.993	11889
927.099	11920
927.206	11836
927.312	11756
927.419	11897
927.525	11882
927.631	11980
927.737	11809
927.843	11718
927.95	11615
928.056	11688
928.162	11691
928.267	11779
928.373	12277
928.479	11756
928.585	11509
928.69	11661
928.796	11714
928.901	11528
929.007	11326
929.112	11596
929.218	11516
929.323	11448
929.428	11402
929.533	11577
929.638	11326
929.743	11254
929.848	11383
929.953	11353
930.058	11337
930.163	11121
930.267	11155
930.372	11284
930.477	11014
930.581	11353
930.685	11174
930.79	11029
930.894	11037
930.998	10915
931.103	11147
931.207	10729
931.311	10733
931.415	10656
931.519	10466
931.623	10500
