Data from test_V78500241_2248.txt Node
Date: Fri Mar 25 15:25:30 CST 2022
User: usil
Spectrometer: V785-0024
Trigger mode: 0
Integration Time (sec): 4.000000E-1
Scans to average: 1
Nonlinearity correction enabled: false
Boxcar width: 0
Storing dark spectrum: false
XAxis mode: Wavelengths
Number of Pixels in Spectrum: 1024
>>>>>Begin Spectral Data<<<<<
801.071	27690
801.214	27800
801.356	27496
801.499	27351
801.641	27233
801.783	27245
801.926	27317
802.068	27306
802.211	27214
802.353	27230
802.496	26918
802.638	26815
802.78	26883
802.923	26891
803.065	26826
803.208	26868
803.35	26921
803.492	27032
803.635	27013
803.777	27009
803.919	27142
804.061	27542
804.204	27100
804.346	26998
804.488	26925
804.63	27032
804.773	26937
804.915	27043
805.057	27199
805.199	26975
805.341	27180
805.483	27241
805.626	27195
805.768	27146
805.91	27207
806.052	27313
806.194	27096
806.336	27374
806.478	27150
806.62	27108
806.762	27252
806.904	27538
807.046	27698
807.188	27705
807.33	27675
807.472	27743
807.614	27564
807.756	27675
807.898	27523
808.04	27450
808.182	27427
808.324	27515
808.465	27572
808.607	27762
808.749	27732
808.891	27926
809.033	28025
809.174	27880
809.316	27720
809.458	27838
809.6	27641
809.741	28086
809.883	27964
810.025	28097
810.166	28025
810.308	28074
810.45	28013
810.591	28097
810.733	27705
810.875	27778
811.016	27755
811.158	27865
811.299	27903
811.441	27918
811.582	27960
811.724	27663
811.865	27759
812.007	27724
812.148	27804
812.29	27804
812.431	27964
812.573	28105
812.714	28295
812.855	28219
812.997	28462
813.138	28516
813.279	28557
813.421	28375
813.562	28333
813.703	28211
813.845	28112
813.986	27675
814.127	27648
814.268	27545
814.41	27500
814.551	27317
814.692	27466
814.833	27511
814.974	27507
815.115	27515
815.256	27427
815.397	27447
815.539	27424
815.68	27340
815.821	27195
815.962	27230
816.103	27363
816.244	27138
816.385	27070
816.526	26933
816.666	26731
816.807	26891
816.948	26864
817.089	26921
817.23	26796
817.371	26762
817.512	26697
817.653	26781
817.793	26819
817.934	26781
818.075	26693
818.216	26659
818.356	26750
818.497	26613
818.638	26575
818.778	26488
818.919	26389
819.06	26651
819.2	26556
819.341	26804
819.481	26758
819.622	26899
819.762	27085
819.903	26975
820.043	27013
820.184	26948
820.324	27005
820.465	26842
820.605	26925
820.746	26899
820.886	26826
821.026	26727
821.167	26758
821.307	26899
821.447	26743
821.588	26735
821.728	26590
821.868	26438
822.008	26286
822.149	26298
822.289	26324
822.429	26077
822.569	25932
822.709	25921
822.849	25780
822.99	25791
823.13	25677
823.27	25772
823.41	25628
823.55	25438
823.69	25460
823.83	25571
823.97	25559
824.11	25263
824.25	25331
824.389	25339
824.529	25460
824.669	25297
824.809	25582
824.949	25533
825.089	25422
825.228	25464
825.368	25202
825.508	25346
825.648	25225
825.787	25331
825.927	25244
826.067	25221
826.206	25202
826.346	25384
826.485	25453
826.625	25171
826.765	25407
826.904	25179
827.044	25034
827.183	25023
827.323	24935
827.462	24989
827.601	25084
827.741	24867
827.88	25099
828.02	24772
828.159	24867
828.298	24928
828.437	25038
828.577	24753
828.716	25008
828.855	24890
828.994	24654
829.134	24635
829.273	24719
829.412	24616
829.551	24528
829.69	24639
829.829	24593
829.968	24711
830.107	24620
830.246	24707
830.385	24574
830.524	24475
830.663	24395
830.802	24441
830.941	24327
831.08	24213
831.219	24342
831.357	24361
831.496	24475
831.635	24205
831.774	24228
831.913	24136
832.051	24155
832.19	24053
832.329	24095
832.467	23992
832.606	23935
832.744	23851
832.883	23889
833.022	24015
833.16	23904
833.299	23863
833.437	23882
833.576	24079
833.714	24163
833.852	24022
833.991	23999
834.129	24022
834.267	24064
834.406	23950
834.544	24007
834.682	24095
834.821	23973
834.959	24114
835.097	23893
835.235	24064
835.373	23870
835.511	24026
835.65	23828
835.788	23863
835.926	23687
836.064	23684
836.202	23608
836.34	23889
836.478	23847
836.615	23767
836.753	23805
836.891	23863
837.029	23783
837.167	23836
837.305	23737
837.443	23668
837.58	23718
837.718	23764
837.856	23786
837.993	23627
838.131	23623
838.269	23455
838.406	23596
838.544	23604
838.681	23250
838.819	23284
838.956	23022
839.094	23159
839.231	23250
839.369	23246
839.506	23497
839.643	23345
839.781	23200
839.918	22987
840.055	23128
840.193	23056
840.33	23155
840.467	23090
840.604	22987
840.742	23372
840.879	22927
841.016	23003
841.153	23064
841.29	23094
841.427	23003
841.564	23079
841.701	23048
841.838	22915
841.975	22889
842.112	22908
842.249	22759
842.385	22835
842.522	22968
842.659	22869
842.796	22820
842.933	22645
843.069	22710
843.206	22759
843.343	22946
843.479	22915
843.616	22702
843.752	22519
843.889	22538
844.025	22660
844.162	22542
844.298	22637
844.435	22550
844.571	22565
844.708	22550
844.844	22778
844.98	22698
845.117	22683
845.253	22440
845.389	22474
845.525	22417
845.661	22459
845.798	22291
845.934	22303
846.07	22329
846.206	22310
846.342	22333
846.478	22185
846.614	22070
846.75	21930
846.886	22006
847.022	22185
847.158	22128
847.294	22078
847.429	22063
847.565	21960
847.701	22234
847.837	21808
847.972	21629
848.108	21819
848.244	21827
848.379	21595
848.515	21618
848.65	21610
848.786	21610
848.921	21682
849.057	21682
849.192	21656
849.328	21656
849.463	21644
849.598	21553
849.734	21401
849.869	21564
850.004	21370
850.14	21393
850.275	21355
850.41	21355
850.545	21458
850.68	21344
850.815	21511
850.95	21348
851.085	21656
851.22	21496
851.355	21416
851.49	21420
851.625	21195
851.76	21401
851.895	21233
852.03	21260
852.165	21306
852.299	21519
852.434	21450
852.569	21431
852.703	21291
852.838	21420
852.973	21469
853.107	21450
853.242	21378
853.376	21283
853.511	21039
853.645	21237
853.78	21211
853.914	21161
854.048	21135
854.183	21169
854.317	21218
854.451	21431
854.585	21241
854.72	21138
854.854	21294
854.988	21112
855.122	21256
855.256	21043
855.39	21123
855.524	21329
855.658	21169
855.792	21264
855.926	21226
856.06	21245
856.194	21241
856.327	21100
856.461	21332
856.595	21077
856.729	20975
856.862	21306
856.996	21294
857.13	21188
857.263	21317
857.397	21370
857.53	21161
857.664	21192
857.797	21230
857.931	21321
858.064	21218
858.197	21313
858.331	21313
858.464	21116
858.597	21032
858.731	21150
858.864	21180
858.997	21005
859.13	21218
859.263	21260
859.396	21306
859.529	21195
859.662	21093
859.795	21108
859.928	21233
860.061	21294
860.194	21313
860.327	21310
860.46	21108
860.592	21378
860.725	21245
860.858	21359
860.99	21218
861.123	21173
861.256	21070
861.388	21192
861.521	22002
861.653	21112
861.786	20986
861.918	20994
862.05	21131
862.183	21142
862.315	21119
862.447	21203
862.58	21066
862.712	20975
862.844	20765
862.976	21005
863.108	20910
863.24	21302
863.372	20758
863.504	21005
863.636	20902
863.768	20834
863.9	20895
864.032	20849
864.164	20937
864.296	21028
864.428	21032
864.559	20960
864.691	20986
864.823	20967
864.954	20880
865.086	20883
865.217	20963
865.349	20686
865.48	20781
865.612	20845
865.743	20990
865.875	20842
866.006	20807
866.137	20800
866.269	20804
866.4	20758
866.531	20743
866.662	20693
866.793	20716
866.924	20682
867.055	20743
867.186	20785
867.317	20739
867.448	20667
867.579	20777
867.71	20575
867.841	20720
867.972	20716
868.103	20735
868.233	20781
868.364	20754
868.495	20796
868.625	20914
868.756	21070
868.886	20937
869.017	21047
869.147	21199
869.278	21100
869.408	21024
869.539	20902
869.669	21150
869.799	21085
869.929	21119
870.06	21096
870.19	21245
870.32	21294
870.45	21321
870.58	21306
870.71	21416
870.84	21401
870.97	21359
871.1	21226
871.23	21549
871.36	21492
871.489	21591
871.619	21526
871.749	21610
871.879	21564
872.008	21557
872.138	21485
872.267	21568
872.397	21405
872.526	21443
872.656	21447
872.785	21405
872.915	21507
873.044	21557
873.173	21564
873.303	21622
873.432	21648
873.561	21679
873.69	21583
873.819	21447
873.948	21698
874.077	21504
874.206	21408
874.335	21595
874.464	21724
874.593	21831
874.722	21793
874.851	21819
874.979	21869
875.108	21789
875.237	21854
875.365	21679
875.494	21724
875.623	21884
875.751	21823
875.88	21915
876.008	21972
876.136	22116
876.265	22295
876.393	22211
876.521	22238
876.65	22322
876.778	22238
876.906	22139
877.034	22120
877.162	22169
877.29	22101
877.418	22150
877.546	22090
877.674	22101
877.802	22150
877.93	22234
878.058	22135
878.185	22169
878.313	22200
878.441	22063
878.568	21937
878.696	22067
878.824	22181
878.951	22223
879.079	22280
879.206	22493
879.333	22356
879.461	22265
879.588	22314
879.715	22284
879.842	22402
879.97	22200
880.097	21983
880.224	21934
880.351	22070
880.478	22036
880.605	22002
880.732	22036
880.859	22348
880.986	22074
881.112	22044
881.239	21930
881.366	21759
881.493	21622
881.619	21622
881.746	21595
881.872	21622
881.999	21652
882.125	21511
882.252	21663
882.378	21553
882.505	21576
882.631	21492
882.757	21119
882.883	21477
883.01	21302
883.136	21245
883.262	21131
883.388	21184
883.514	21298
883.64	21351
883.766	21104
883.892	20956
884.018	21108
884.143	21108
884.269	21211
884.395	21047
884.52	20838
884.646	20979
884.772	20689
884.897	20773
885.023	20963
885.148	21017
885.274	21032
885.399	20941
885.524	20937
885.65	20933
885.775	20990
885.9	20895
886.025	21028
886.15	21055
886.275	20864
886.4	20830
886.525	20883
886.65	20849
886.775	20758
886.9	21051
887.025	21066
887.149	20921
887.274	20674
887.399	20708
887.523	20701
887.648	20609
887.773	20659
887.897	20693
888.021	20781
888.146	20693
888.27	20864
888.395	20781
888.519	20750
888.643	20632
888.767	20746
888.891	20640
889.015	20476
889.139	20564
889.263	20480
889.387	20674
889.511	20712
889.635	20602
889.759	20450
889.883	20332
890.006	20473
890.13	20526
890.254	20351
890.377	20393
890.501	20275
890.624	20267
890.748	20263
890.871	20195
890.995	20202
891.118	19894
891.241	20012
891.364	20035
891.488	20149
891.611	19993
891.734	19978
891.857	20073
891.98	19967
892.103	20103
892.226	20031
892.349	19967
892.471	19826
892.594	19978
892.717	20005
892.839	19833
892.962	20012
893.085	20039
893.207	19974
893.33	19871
893.452	19875
893.575	19993
893.697	19860
893.819	20138
893.941	20153
894.064	20195
894.186	19860
894.308	19898
894.43	20039
894.552	20180
894.674	20058
894.796	19967
894.918	19803
895.04	19940
895.161	20142
895.283	20046
895.405	19856
895.526	19868
895.648	19928
895.769	20043
895.891	20043
896.012	19940
896.134	20005
896.255	19883
896.376	19864
896.498	19921
896.619	20039
896.74	19974
896.861	19928
896.982	20358
897.103	20415
897.224	20244
897.345	20191
897.466	20107
897.587	20115
897.708	20305
897.828	20199
897.949	20202
898.07	20092
898.19	20157
898.311	20161
898.431	20092
898.552	20096
898.672	20328
898.792	20332
898.913	20172
899.033	20111
899.153	20008
899.273	19894
899.393	19963
899.513	20077
899.633	20001
899.753	19883
899.873	19925
899.993	19963
900.113	19967
900.232	19894
900.352	19868
900.472	19811
900.591	19719
900.711	19795
900.83	19616
900.95	19799
901.069	19776
901.189	19674
901.308	19377
901.427	19259
901.546	19282
901.665	19354
901.784	19263
901.904	19263
902.023	19065
902.141	18989
902.26	18814
902.379	18821
902.498	18833
902.617	18806
902.735	18814
902.854	18684
902.973	18703
903.091	18532
903.21	18578
903.328	18509
903.446	18369
903.565	18300
903.683	18357
903.801	18159
903.919	18235
904.038	18197
904.156	18087
904.274	18129
904.392	17984
904.51	18148
904.627	17965
904.745	18060
904.863	18136
904.981	17874
905.098	17855
905.216	17805
905.334	17843
905.451	17726
905.569	17718
905.686	17695
905.803	17680
905.921	17581
906.038	17619
906.155	17512
906.272	17436
906.389	17395
906.506	17178
906.623	17277
906.74	17326
906.857	17174
906.974	17269
907.091	17250
907.208	17330
907.324	17330
907.441	17318
907.557	17071
907.674	16953
907.79	16896
907.907	16850
908.023	16869
908.139	16927
908.256	16881
908.372	16949
908.488	16965
908.604	16664
908.72	16721
908.836	16679
908.952	16694
909.068	16710
909.184	16721
909.3	16763
909.415	16755
909.531	16626
909.647	16485
909.762	16443
909.878	16455
909.993	16402
910.108	16478
910.224	16341
910.339	16329
910.454	16238
910.57	16318
910.685	16257
910.8	16409
910.915	16375
911.03	16306
911.145	16063
911.259	15892
911.374	16097
911.489	15888
911.604	15922
911.718	15793
911.833	15778
911.947	15637
912.062	15629
912.176	15713
912.291	15717
912.405	15739
912.519	15911
912.633	15903
912.748	15774
912.862	15622
912.976	15667
913.09	15485
913.204	15492
913.318	15644
913.431	15633
913.545	15633
913.659	15694
913.772	15507
913.886	15378
914	15511
914.113	15389
914.226	15511
914.34	15370
914.453	15241
914.566	15485
914.68	15325
914.793	15218
914.906	15192
915.019	15017
915.132	14994
915.245	14975
915.358	15036
915.47	14929
915.583	15055
915.696	14998
915.809	15169
915.921	15127
916.034	14910
916.146	14990
916.259	14861
916.371	14967
916.483	14899
916.595	14754
916.708	14849
916.82	14857
916.932	14777
917.044	14769
917.156	14678
917.268	14606
917.38	14720
917.491	14678
917.603	14651
917.715	14765
917.826	14781
917.938	14587
918.049	14431
918.161	14678
918.272	14735
918.384	14663
918.495	14640
918.606	14431
918.717	14320
918.828	14400
918.939	14366
919.05	14374
919.161	14389
919.272	14244
919.383	14199
919.494	14438
919.604	14583
919.715	14476
919.826	14320
919.936	14328
920.047	14396
920.157	14442
920.267	14613
920.378	14233
920.488	14259
920.598	14488
920.708	14560
920.818	14495
920.928	14507
921.038	14686
921.148	14640
921.258	14286
921.368	14218
921.477	14107
921.587	14065
921.697	13913
921.806	14153
921.916	13982
922.025	13795
922.134	13791
922.244	13727
922.353	13769
922.462	13594
922.571	13594
922.68	13434
922.789	13426
922.898	13430
923.007	13293
923.116	13403
923.224	13483
923.333	13339
923.442	13308
923.55	13263
923.659	13278
923.767	13247
923.876	13175
923.984	13251
924.092	13126
924.201	13206
924.309	13122
924.417	13091
924.525	12962
924.633	13095
924.741	13849
924.849	12920
924.956	13114
925.064	12859
925.172	12791
925.279	12875
925.387	12882
925.494	12844
925.602	12935
925.709	12886
925.816	12726
925.924	12753
926.031	12817
926.138	12711
926.245	12734
926.352	12597
926.459	12734
926.566	12837
926.673	12681
926.779	12620
926.886	12532
926.993	12475
927.099	12384
927.206	12388
927.312	12273
927.419	12426
927.525	12422
927.631	12399
927.737	12292
927.843	12350
927.95	12190
928.056	12228
928.162	12266
928.267	12239
928.373	12928
928.479	12285
928.585	12057
928.69	12175
928.796	12270
928.901	12110
929.007	11954
929.112	12079
929.218	12026
929.323	12041
929.428	11969
929.533	11999
929.638	11885
929.743	11908
929.848	11965
929.953	11954
930.058	11809
930.163	11600
930.267	11619
930.372	11668
930.477	11634
930.581	11767
930.685	11642
930.79	11562
930.894	11524
930.998	11493
931.103	11619
931.207	11334
931.311	11151
931.415	11052
931.519	10919
931.623	10908
