Data from test_V78500241_2347.txt Node
Date: Fri Mar 25 15:26:12 CST 2022
User: usil
Spectrometer: V785-0024
Trigger mode: 0
Integration Time (sec): 4.000000E-1
Scans to average: 1
Nonlinearity correction enabled: false
Boxcar width: 0
Storing dark spectrum: false
XAxis mode: Wavelengths
Number of Pixels in Spectrum: 1024
>>>>>Begin Spectral Data<<<<<
801.071	27397
801.214	27359
801.356	27055
801.499	27089
801.641	26853
801.783	27013
801.926	26902
802.068	26929
802.211	27001
802.353	26746
802.496	26697
802.638	26667
802.78	26511
802.923	26518
803.065	26431
803.208	26609
803.35	26606
803.492	26579
803.635	26777
803.777	26648
803.919	26731
804.061	27077
804.204	26815
804.346	26819
804.488	26651
804.63	26705
804.773	26609
804.915	26754
805.057	26819
805.199	26670
805.341	26804
805.483	26914
805.626	26689
805.768	26781
805.91	26864
806.052	26921
806.194	26777
806.336	26933
806.478	26876
806.62	26845
806.762	27043
806.904	27207
807.046	27405
807.188	27275
807.33	27279
807.472	27332
807.614	27321
807.756	27154
807.898	27119
808.04	27150
808.182	27108
808.324	27180
808.465	27119
808.607	27363
808.749	27500
808.891	27386
809.033	27564
809.174	27447
809.316	27496
809.458	27504
809.6	27420
809.741	27679
809.883	27618
810.025	27797
810.166	27797
810.308	27861
810.45	27694
810.591	27606
810.733	27435
810.875	27431
811.016	27302
811.158	27226
811.299	27466
811.441	27667
811.582	27576
811.724	27427
811.865	27496
812.007	27447
812.148	27348
812.29	27424
812.431	27633
812.573	27701
812.714	27846
812.855	27937
812.997	28093
813.138	28120
813.279	28234
813.421	27941
813.562	27979
813.703	27808
813.845	27538
813.986	27416
814.127	27222
814.268	27127
814.41	27157
814.551	27173
814.692	27207
814.833	27169
814.974	27024
815.115	27188
815.256	27119
815.397	27017
815.539	26929
815.68	26944
815.821	26739
815.962	26914
816.103	26826
816.244	26781
816.385	26590
816.526	26708
816.666	26473
816.807	26434
816.948	26442
817.089	26674
817.23	26526
817.371	26366
817.512	26343
817.653	26484
817.793	26275
817.934	26298
818.075	26473
818.216	26453
818.356	26294
818.497	26187
818.638	26168
818.778	26073
818.919	26191
819.06	26256
819.2	26191
819.341	26412
819.481	26400
819.622	26476
819.762	26735
819.903	26594
820.043	26579
820.184	26670
820.324	26450
820.465	26423
820.605	26480
820.746	26450
820.886	26450
821.026	26469
821.167	26507
821.307	26579
821.447	26313
821.588	26393
821.728	26153
821.868	26107
822.008	25788
822.149	25913
822.289	25799
822.429	25548
822.569	25460
822.709	25601
822.849	25343
822.99	25316
823.13	25365
823.27	25369
823.41	25152
823.55	25122
823.69	25232
823.83	25126
823.97	25084
824.11	24916
824.25	24890
824.389	24897
824.529	25023
824.669	25088
824.809	25137
824.949	25141
825.089	25091
825.228	25038
825.368	24916
825.508	25000
825.648	24901
825.787	24894
825.927	25031
826.067	24897
826.206	24875
826.346	24863
826.485	24916
826.625	24901
826.765	24977
826.904	24973
827.044	24684
827.183	24696
827.323	24639
827.462	24692
827.601	24448
827.741	24448
827.88	24696
828.02	24555
828.159	24536
828.298	24555
828.437	24635
828.577	24551
828.716	24726
828.855	24517
828.994	24334
829.134	24334
829.273	24273
829.412	24308
829.551	24201
829.69	24205
829.829	24422
829.968	24251
830.107	24251
830.246	24384
830.385	24254
830.524	24091
830.663	24239
830.802	24034
830.941	23897
831.08	24015
831.219	23961
831.357	23859
831.496	24186
831.635	23851
831.774	23908
831.913	23851
832.051	23665
832.19	23813
832.329	23554
832.467	23665
832.606	23596
832.744	23661
832.883	23611
833.022	23608
833.16	23554
833.299	23630
833.437	23592
833.576	23585
833.714	23729
833.852	23809
833.991	23687
834.129	23684
834.267	23687
834.406	23687
834.544	23710
834.682	23680
834.821	23608
834.959	23897
835.097	23577
835.235	23729
835.373	23604
835.511	23585
835.65	23482
835.788	23482
835.926	23474
836.064	23356
836.202	23353
836.34	23429
836.478	23562
836.615	23444
836.753	23581
836.891	23528
837.029	23493
837.167	23353
837.305	23410
837.443	23337
837.58	23406
837.718	23433
837.856	23330
837.993	23269
838.131	23318
838.269	23280
838.406	23189
838.544	23117
838.681	23010
838.819	23010
838.956	22889
839.094	22877
839.231	22850
839.369	23006
839.506	23212
839.643	23060
839.781	22816
839.918	22687
840.055	22812
840.193	22801
840.33	22797
840.467	22664
840.604	22717
840.742	23060
840.879	22664
841.016	22531
841.153	22523
841.29	22805
841.427	22664
841.564	22691
841.701	22755
841.838	22660
841.975	22603
842.112	22637
842.249	22527
842.385	22516
842.522	22782
842.659	22485
842.796	22478
842.933	22360
843.069	22428
843.206	22500
843.343	22519
843.479	22596
843.616	22577
843.752	22280
843.889	22375
844.025	22428
844.162	22261
844.298	22306
844.435	22337
844.571	22249
844.708	22291
844.844	22474
844.98	22421
845.117	22261
845.253	22090
845.389	22063
845.525	22181
845.661	22093
845.798	22097
845.934	22051
846.07	21975
846.206	21956
846.342	22109
846.478	21975
846.614	21724
846.75	21789
846.886	21770
847.022	21732
847.158	21899
847.294	21785
847.429	21694
847.565	21743
847.701	21983
847.837	21382
847.972	21477
848.108	21633
848.244	21542
848.379	21359
848.515	21424
848.65	21245
848.786	21317
848.921	21355
849.057	21393
849.192	21279
849.328	21431
849.463	21367
849.598	21302
849.734	21214
849.869	21203
850.004	21150
850.14	21222
850.275	21096
850.41	21138
850.545	20979
850.68	20918
850.815	21043
850.95	21058
851.085	21351
851.22	21150
851.355	21055
851.49	21085
851.625	21005
851.76	21070
851.895	20921
852.03	20982
852.165	21020
852.299	21256
852.434	21127
852.569	21055
852.703	21100
852.838	21207
852.973	21237
853.107	21252
853.242	21123
853.376	20952
853.511	20826
853.645	20880
853.78	20975
853.914	20906
854.048	20682
854.183	20826
854.317	21009
854.451	21188
854.585	20826
854.72	20815
854.854	20895
854.988	20830
855.122	20826
855.256	20864
855.39	20849
855.524	20868
855.658	21051
855.792	20853
855.926	20910
856.06	20944
856.194	20944
856.327	20876
856.461	20731
856.595	20895
856.729	20933
856.862	21005
856.996	20891
857.13	20971
857.263	21028
857.397	21020
857.53	20834
857.664	20944
857.797	20967
857.931	21157
858.064	21043
858.197	21039
858.331	20918
858.464	20800
858.597	20815
858.731	20861
858.864	20826
858.997	20880
859.13	20933
859.263	21017
859.396	20941
859.529	20929
859.662	20762
859.795	20712
859.928	20960
860.061	21055
860.194	21089
860.327	21032
860.46	20887
860.592	21036
860.725	21058
860.858	21085
860.99	20834
861.123	20785
861.256	20864
861.388	20925
861.521	21458
861.653	20880
861.786	20735
861.918	20705
862.05	20769
862.183	20788
862.315	20819
862.447	20876
862.58	20811
862.712	20674
862.844	20640
862.976	20663
863.108	20705
863.24	21169
863.372	20579
863.504	20693
863.636	20667
863.768	20792
863.9	20549
864.032	20488
864.164	20575
864.296	20651
864.428	20689
864.559	20689
864.691	20815
864.823	20609
864.954	20663
865.086	20640
865.217	20457
865.349	20476
865.48	20499
865.612	20476
865.743	20602
865.875	20503
866.006	20518
866.137	20522
866.269	20499
866.4	20518
866.531	20530
866.662	20450
866.793	20469
866.924	20488
867.055	20541
867.186	20465
867.317	20454
867.448	20400
867.579	20488
867.71	20412
867.841	20396
867.972	20488
868.103	20454
868.233	20393
868.364	20476
868.495	20499
868.625	20648
868.756	20826
868.886	20667
869.017	20765
869.147	20670
869.278	20834
869.408	20857
869.539	20644
869.669	20724
869.799	20754
869.929	20826
870.06	20765
870.19	21062
870.32	20990
870.45	21024
870.58	21074
870.71	21176
870.84	21207
870.97	21180
871.1	21062
871.23	21340
871.36	21260
871.489	21169
871.619	21332
871.749	21313
871.879	21363
872.008	21344
872.138	21245
872.267	21348
872.397	21146
872.526	21157
872.656	21169
872.785	21043
872.915	21344
873.044	21462
873.173	21237
873.303	21416
873.432	21397
873.561	21458
873.69	21378
873.819	21298
873.948	21325
874.077	21310
874.206	21283
874.335	21325
874.464	21443
874.593	21515
874.722	21538
874.851	21606
874.979	21515
875.108	21629
875.237	21576
875.365	21359
875.494	21477
875.623	21690
875.751	21481
875.88	21682
876.008	21709
876.136	21884
876.265	22002
876.393	22128
876.521	22101
876.65	21972
876.778	21854
876.906	21880
877.034	21895
877.162	21892
877.29	21926
877.418	21857
877.546	22025
877.674	21930
877.802	21899
877.93	21991
878.058	21888
878.185	21732
878.313	21876
878.441	21865
878.568	21751
878.696	21827
878.824	21956
878.951	21937
879.079	22067
879.206	22196
879.333	22036
879.461	21975
879.588	22051
879.715	22063
879.842	22082
879.97	21926
880.097	21770
880.224	21720
880.351	21781
880.478	21823
880.605	21667
880.732	21698
880.859	21953
880.986	21770
881.112	21778
881.239	21698
881.366	21454
881.493	21374
881.619	21344
881.746	21344
881.872	21363
881.999	21351
882.125	21173
882.252	21317
882.378	21233
882.505	21458
882.631	21207
882.757	20944
882.883	21138
883.01	21017
883.136	20994
883.262	20758
883.388	20872
883.514	20986
883.64	20895
883.766	20883
883.892	20823
884.018	20807
884.143	20994
884.269	21112
884.395	20849
884.52	20716
884.646	20727
884.772	20594
884.897	20446
885.023	20651
885.148	20701
885.274	20868
885.399	20750
885.524	20621
885.65	20667
885.775	20739
885.9	20583
886.025	20876
886.15	20746
886.275	20568
886.4	20537
886.525	20613
886.65	20545
886.775	20655
886.9	20701
887.025	20796
887.149	20682
887.274	20457
887.399	20423
887.523	20415
887.648	20465
887.773	20286
887.897	20590
888.021	20412
888.146	20389
888.27	20598
888.395	20469
888.519	20431
888.643	20465
888.767	20450
888.891	20298
889.015	20202
889.139	20317
889.263	20172
889.387	20332
889.511	20492
889.635	20294
889.759	20138
889.883	20218
890.006	20195
890.13	20355
890.254	20096
890.377	20161
890.501	20012
890.624	20024
890.748	20005
890.871	19986
890.995	19742
891.118	19921
891.241	19879
891.364	19833
891.488	19970
891.611	19837
891.734	19799
891.857	19925
891.98	19776
892.103	19780
892.226	19856
892.349	19715
892.471	19632
892.594	19803
892.717	19799
892.839	19746
892.962	19807
893.085	19833
893.207	19750
893.33	19556
893.452	19643
893.575	19731
893.697	19677
893.819	19887
893.941	19940
894.064	19871
894.186	19662
894.308	19643
894.43	19936
894.552	19807
894.674	19776
894.796	19537
894.918	19628
895.04	19696
895.161	19738
895.283	19799
895.405	19605
895.526	19845
895.648	19784
895.769	19753
895.891	19704
896.012	19753
896.134	19791
896.255	19689
896.376	19582
896.498	19700
896.619	19670
896.74	19727
896.861	19765
896.982	20008
897.103	20206
897.224	20031
897.345	19921
897.466	19849
897.587	19906
897.708	20016
897.828	20012
897.949	19913
898.07	19761
898.19	19963
898.311	20039
898.431	19978
898.552	19978
898.672	20027
898.792	20020
898.913	19890
899.033	19852
899.153	19723
899.273	19670
899.393	19719
899.513	19769
899.633	19761
899.753	19719
899.873	19582
899.993	19734
900.113	19601
900.232	19807
900.352	19556
900.472	19495
900.591	19449
900.711	19438
900.83	19259
900.95	19658
901.069	19533
901.189	19358
901.308	19202
901.427	19042
901.546	19164
901.665	19080
901.784	19148
901.904	18916
902.023	18924
902.141	18673
902.26	18525
902.379	18688
902.498	18574
902.617	18540
902.735	18604
902.854	18475
902.973	18452
903.091	18277
903.21	18346
903.328	18171
903.446	18201
903.565	18087
903.683	18087
903.801	17969
903.919	17999
904.038	18068
904.156	17802
904.274	18045
904.392	17745
904.51	17832
904.627	17824
904.745	17885
904.863	17980
904.981	17585
905.098	17543
905.216	17634
905.334	17585
905.451	17452
905.569	17547
905.686	17573
905.803	17532
905.921	17284
906.038	17398
906.155	17353
906.272	17200
906.389	17345
906.506	17071
906.623	17113
906.74	17105
906.857	16915
906.974	17037
907.091	17071
907.208	17193
907.324	17029
907.441	17105
907.557	16801
907.674	16812
907.79	16618
907.907	16733
908.023	16797
908.139	16717
908.256	16698
908.372	16694
908.488	16664
908.604	16455
908.72	16546
908.836	16516
908.952	16432
909.068	16466
909.184	16672
909.3	16611
909.415	16554
909.531	16424
909.647	16306
909.762	16249
909.878	16226
909.993	16139
910.108	16143
910.224	16048
910.339	16181
910.454	16048
910.57	16059
910.685	16017
910.8	16177
910.915	16063
911.03	16006
911.145	15785
911.259	15835
911.374	15915
911.489	15759
911.604	15705
911.718	15614
911.833	15603
911.947	15435
912.062	15370
912.176	15530
912.291	15515
912.405	15481
912.519	15717
912.633	15800
912.748	15549
912.862	15603
912.976	15397
913.09	15344
913.204	15332
913.318	15389
913.431	15469
913.545	15393
913.659	15458
913.772	15268
913.886	15176
914	15188
914.113	15325
914.226	15203
914.34	15260
914.453	15146
914.566	15123
914.68	15116
914.793	15039
914.906	14830
915.019	14815
915.132	14785
915.245	14876
915.358	14815
915.47	14773
915.583	14807
915.696	14777
915.809	14899
915.921	14933
916.034	14720
916.146	14670
916.259	14686
916.371	14785
916.483	14705
916.595	14682
916.708	14640
916.82	14663
916.932	14602
917.044	14556
917.156	14587
917.268	14434
917.38	14488
917.491	14412
917.603	14465
917.715	14507
917.826	14564
917.938	14431
918.049	14313
918.161	14434
918.272	14495
918.384	14571
918.495	14400
918.606	14199
918.717	14256
918.828	14248
918.939	14320
919.05	14115
919.161	14237
919.272	14043
919.383	14073
919.494	14275
919.604	14393
919.715	14244
919.826	14218
919.936	14134
920.047	14259
920.157	14199
920.267	14370
920.378	14199
920.488	14157
920.598	14339
920.708	14461
920.818	14347
920.928	14278
921.038	14533
921.148	14434
921.258	14153
921.368	14024
921.477	14008
921.587	13997
921.697	13871
921.806	13902
921.916	13761
922.025	13666
922.134	13563
922.244	13518
922.353	13651
922.462	13430
922.571	13373
922.68	13285
922.789	13293
922.898	13331
923.007	13232
923.116	13278
923.224	13190
923.333	13149
923.442	13107
923.55	13091
923.659	13084
923.767	13110
923.876	13065
923.984	13091
924.092	12943
924.201	13019
924.309	13012
924.417	12981
924.525	12867
924.633	12905
924.741	13784
924.849	12764
924.956	12890
925.064	12707
925.172	12642
925.279	12646
925.387	12681
925.494	12658
925.602	12768
925.709	12673
925.816	12559
925.924	12639
926.031	12749
926.138	12593
926.245	12730
926.352	12525
926.459	12719
926.566	12658
926.673	12551
926.779	12422
926.886	12456
926.993	12247
927.099	12289
927.206	12205
927.312	12228
927.419	12175
927.525	12201
927.631	12277
927.737	12129
927.843	12076
927.95	11920
928.056	12114
928.162	12129
928.267	12102
928.373	12566
928.479	12049
928.585	11901
928.69	12019
928.796	11996
928.901	11973
929.007	11870
929.112	11931
929.218	11843
929.323	11843
929.428	11855
929.533	11958
929.638	11707
929.743	11779
929.848	11771
929.953	11707
930.058	11657
930.163	11455
930.267	11452
930.372	11596
930.477	11444
930.581	11767
930.685	11539
930.79	11334
930.894	11345
930.998	11414
931.103	11414
931.207	11170
931.311	11098
931.415	11003
931.519	10809
931.623	10790
