Data from test_V78500241_3320.txt Node
Date: Fri Mar 25 15:32:58 CST 2022
User: usil
Spectrometer: V785-0024
Trigger mode: 0
Integration Time (sec): 4.000000E-1
Scans to average: 1
Nonlinearity correction enabled: false
Boxcar width: 0
Storing dark spectrum: false
XAxis mode: Wavelengths
Number of Pixels in Spectrum: 1024
>>>>>Begin Spectral Data<<<<<
801.071	27317
801.214	27340
801.356	27131
801.499	27024
801.641	26697
801.783	26887
801.926	26868
802.068	26815
802.211	26655
802.353	26739
802.496	26590
802.638	26606
802.78	26488
802.923	26518
803.065	26324
803.208	26355
803.35	26412
803.492	26571
803.635	26686
803.777	26408
803.919	26762
804.061	26914
804.204	26686
804.346	26552
804.488	26575
804.63	26556
804.773	26488
804.915	26644
805.057	26788
805.199	26625
805.341	26788
805.483	26712
805.626	26777
805.768	26674
805.91	26701
806.052	26667
806.194	26659
806.336	26940
806.478	26682
806.62	26739
806.762	26918
806.904	26967
807.046	27165
807.188	27192
807.33	27192
807.472	27165
807.614	27032
807.756	27036
807.898	27085
808.04	26948
808.182	26940
808.324	27062
808.465	26994
808.607	27214
808.749	27408
808.891	27321
809.033	27534
809.174	27485
809.316	27344
809.458	27306
809.6	27325
809.741	27473
809.883	27530
810.025	27709
810.166	27652
810.308	27595
810.45	27591
810.591	27462
810.733	27363
810.875	27454
811.016	27363
811.158	27321
811.299	27526
811.441	27564
811.582	27603
811.724	27443
811.865	27272
812.007	27302
812.148	27386
812.29	27329
812.431	27458
812.573	27644
812.714	27778
812.855	27778
812.997	27922
813.138	28036
813.279	27953
813.421	27914
813.562	27819
813.703	27610
813.845	27648
813.986	27203
814.127	27146
814.268	27032
814.41	26994
814.551	27001
814.692	27112
814.833	27028
814.974	27009
815.115	27009
815.256	26872
815.397	26830
815.539	26811
815.68	26872
815.821	26750
815.962	26864
816.103	26720
816.244	26625
816.385	26575
816.526	26651
816.666	26332
816.807	26271
816.948	26134
817.089	26343
817.23	26263
817.371	26168
817.512	26267
817.653	26298
817.793	26218
817.934	26259
818.075	26343
818.216	26324
818.356	26199
818.497	26107
818.638	26084
818.778	26130
818.919	25982
819.06	26187
819.2	26237
819.341	26328
819.481	26320
819.622	26404
819.762	26583
819.903	26507
820.043	26484
820.184	26457
820.324	26476
820.465	26415
820.605	26317
820.746	26267
820.886	26233
821.026	26377
821.167	26351
821.307	26339
821.447	26145
821.588	26282
821.728	26046
821.868	26008
822.008	25639
822.149	25894
822.289	25674
822.429	25479
822.569	25388
822.709	25415
822.849	25297
822.99	25293
823.13	25152
823.27	25263
823.41	24996
823.55	24966
823.69	25065
823.83	24992
823.97	24981
824.11	24852
824.25	24894
824.389	24817
824.529	25000
824.669	24802
824.809	24992
824.949	24863
825.089	24905
825.228	25004
825.368	24658
825.508	24711
825.648	24715
825.787	24817
825.927	24817
826.067	24825
826.206	24715
826.346	24894
826.485	24783
826.625	24745
826.765	24878
826.904	24886
827.044	24536
827.183	24597
827.323	24467
827.462	24513
827.601	24452
827.741	24403
827.88	24494
828.02	24426
828.159	24380
828.298	24403
828.437	24498
828.577	24369
828.716	24551
828.855	24353
828.994	24178
829.134	24235
829.273	24201
829.412	24095
829.551	24224
829.69	24095
829.829	24190
829.968	24228
830.107	24285
830.246	24060
830.385	24197
830.524	24011
830.663	24102
830.802	24045
830.941	23901
831.08	23843
831.219	23802
831.357	23817
831.496	24049
831.635	23809
831.774	23672
831.913	23592
832.051	23649
832.19	23452
832.329	23592
832.467	23444
832.606	23436
832.744	23345
832.883	23604
833.022	23410
833.16	23395
833.299	23608
833.437	23429
833.576	23634
833.714	23471
833.852	23627
833.991	23668
834.129	23627
834.267	23630
834.406	23570
834.544	23490
834.682	23627
834.821	23627
834.959	23821
835.097	23493
835.235	23646
835.373	23535
835.511	23360
835.65	23387
835.788	23349
835.926	23273
836.064	23235
836.202	23132
836.34	23414
836.478	23452
836.615	23360
836.753	23474
836.891	23524
837.029	23471
837.167	23254
837.305	23216
837.443	23322
837.58	23242
837.718	23353
837.856	23322
837.993	23128
838.131	23200
838.269	23140
838.406	23132
838.544	23140
838.681	22847
838.819	22911
838.956	22820
839.094	22653
839.231	22687
839.369	22892
839.506	23071
839.643	22866
839.781	22744
839.918	22694
840.055	22683
840.193	22675
840.33	22618
840.467	22626
840.604	22713
840.742	22984
840.879	22535
841.016	22599
841.153	22443
841.29	22793
841.427	22554
841.564	22725
841.701	22679
841.838	22653
841.975	22527
842.112	22721
842.249	22421
842.385	22459
842.522	22771
842.659	22485
842.796	22402
842.933	22489
843.069	22413
843.206	22261
843.343	22341
843.479	22356
843.616	22481
843.752	22299
843.889	22112
844.025	22295
844.162	22188
844.298	22341
844.435	22200
844.571	22006
844.708	22284
844.844	22390
844.98	22360
845.117	22303
845.253	22112
845.389	22067
845.525	22139
845.661	22006
845.798	21907
845.934	21964
846.07	21850
846.206	21869
846.342	22097
846.478	21869
846.614	21838
846.75	21648
846.886	21660
847.022	21743
847.158	21686
847.294	21789
847.429	21667
847.565	21781
847.701	21915
847.837	21393
847.972	21458
848.108	21538
848.244	21587
848.379	21272
848.515	21325
848.65	21252
848.786	21287
848.921	21393
849.057	21386
849.192	21393
849.328	21272
849.463	21283
849.598	21173
849.734	21260
849.869	21013
850.004	21047
850.14	21112
850.275	20941
850.41	21009
850.545	20948
850.68	20925
850.815	21058
850.95	20990
851.085	21142
851.22	21203
851.355	21089
851.49	21024
851.625	20921
851.76	20994
851.895	20948
852.03	20899
852.165	21013
852.299	21020
852.434	21070
852.569	21180
852.703	21013
852.838	21039
852.973	21104
853.107	21070
853.242	21024
853.376	20868
853.511	20678
853.645	20880
853.78	20967
853.914	20743
854.048	20887
854.183	20792
854.317	20800
854.451	20998
854.585	20918
854.72	20891
854.854	20823
854.988	20701
855.122	20819
855.256	20663
855.39	20944
855.524	20979
855.658	20804
855.792	20902
855.926	20914
856.06	20948
856.194	21009
856.327	20792
856.461	20830
856.595	20807
856.729	20883
856.862	20906
856.996	20891
857.13	20960
857.263	20990
857.397	21005
857.53	20826
857.664	20872
857.797	20876
857.931	20765
858.064	20986
858.197	20944
858.331	20773
858.464	20727
858.597	20773
858.731	20921
858.864	20815
858.997	20727
859.13	20701
859.263	20876
859.396	20956
859.529	20960
859.662	20731
859.795	20731
859.928	20811
860.061	20948
860.194	21108
860.327	20910
860.46	20876
860.592	21047
860.725	21116
860.858	20914
860.99	20868
861.123	20845
861.256	20804
861.388	20754
861.521	21439
861.653	20708
861.786	20667
861.918	20686
862.05	20712
862.183	20739
862.315	20864
862.447	20830
862.58	20724
862.712	20575
862.844	20537
862.976	20583
863.108	20602
863.24	21036
863.372	20473
863.504	20609
863.636	20442
863.768	20564
863.9	20583
864.032	20518
864.164	20476
864.296	20659
864.428	20701
864.559	20636
864.691	20598
864.823	20503
864.954	20530
865.086	20621
865.217	20549
865.349	20415
865.48	20461
865.612	20427
865.743	20590
865.875	20480
866.006	20488
866.137	20442
866.269	20507
866.4	20442
866.531	20526
866.662	20389
866.793	20446
866.924	20434
867.055	20393
867.186	20499
867.317	20298
867.448	20301
867.579	20473
867.71	20339
867.841	20442
867.972	20347
868.103	20533
868.233	20358
868.364	20427
868.495	20530
868.625	20648
868.756	20716
868.886	20579
869.017	20678
869.147	20785
869.278	20876
869.408	20632
869.539	20568
869.669	20705
869.799	20724
869.929	20807
870.06	20739
870.19	21047
870.32	20872
870.45	21104
870.58	20952
870.71	21203
870.84	21127
870.97	21081
871.1	21123
871.23	21203
871.36	21233
871.489	21180
871.619	21226
871.749	21138
871.879	21279
872.008	21382
872.138	21332
872.267	21218
872.397	21241
872.526	21112
872.656	21157
872.785	21173
872.915	21237
873.044	21374
873.173	21298
873.303	21184
873.432	21367
873.561	21355
873.69	21294
873.819	21268
873.948	21332
874.077	21260
874.206	21089
874.335	21222
874.464	21393
874.593	21561
874.722	21534
874.851	21534
874.979	21507
875.108	21443
875.237	21485
875.365	21359
875.494	21458
875.623	21637
875.751	21454
875.88	21603
876.008	21694
876.136	21671
876.265	21922
876.393	21968
876.521	21979
876.65	21915
876.778	22044
876.906	21876
877.034	21816
877.162	21720
877.29	21762
877.418	22010
877.546	21895
877.674	21812
877.802	21857
877.93	21903
878.058	21770
878.185	21705
878.313	21869
878.441	21835
878.568	21549
878.696	21816
878.824	21819
878.951	21979
879.079	22013
879.206	22143
879.333	21994
879.461	21945
879.588	22067
879.715	22055
879.842	22070
879.97	22029
880.097	21671
880.224	21694
880.351	21816
880.478	21739
880.605	21625
880.732	21679
880.859	21778
880.986	21694
881.112	21709
881.239	21564
881.366	21382
881.493	21317
881.619	21374
881.746	21287
881.872	21264
881.999	21203
882.125	21237
882.252	21348
882.378	21294
882.505	21473
882.631	21192
882.757	21043
882.883	21024
883.01	21020
883.136	21036
883.262	20750
883.388	20963
883.514	21051
883.64	21005
883.766	20842
883.892	20880
884.018	20842
884.143	20804
884.269	21020
884.395	20689
884.52	20651
884.646	20712
884.772	20541
884.897	20488
885.023	20606
885.148	20724
885.274	20826
885.399	20773
885.524	20583
885.65	20629
885.775	20617
885.9	20583
886.025	20705
886.15	20674
886.275	20575
886.4	20514
886.525	20537
886.65	20564
886.775	20549
886.9	20739
887.025	20895
887.149	20503
887.274	20377
887.399	20362
887.523	20294
887.648	20347
887.773	20298
887.897	20412
888.021	20351
888.146	20347
888.27	20450
888.395	20377
888.519	20362
888.643	20434
888.767	20454
888.891	20366
889.015	20317
889.139	20282
889.263	20153
889.387	20309
889.511	20385
889.635	20351
889.759	20157
889.883	20252
890.006	20218
890.13	20301
890.254	20183
890.377	20081
890.501	19967
890.624	19970
890.748	19967
890.871	19951
890.995	19757
891.118	19662
891.241	19871
891.364	19731
891.488	19864
891.611	19731
891.734	19727
891.857	19822
891.98	19696
892.103	19887
892.226	19765
892.349	19757
892.471	19548
892.594	19715
892.717	19655
892.839	19666
892.962	19731
893.085	19788
893.207	19712
893.33	19518
893.452	19647
893.575	19803
893.697	19662
893.819	19803
893.941	19887
894.064	19788
894.186	19769
894.308	19586
894.43	19830
894.552	19887
894.674	19822
894.796	19601
894.918	19822
895.04	19742
895.161	19776
895.283	19704
895.405	19666
895.526	19757
895.648	19689
895.769	19727
895.891	19719
896.012	19719
896.134	19769
896.255	19757
896.376	19594
896.498	19632
896.619	19704
896.74	19746
896.861	19765
896.982	20027
897.103	20092
897.224	19928
897.345	19887
897.466	19795
897.587	19864
897.708	20043
897.828	20005
897.949	19951
898.07	19723
898.19	19928
898.311	19978
898.431	19864
898.552	19932
898.672	19925
898.792	19925
898.913	19932
899.033	19864
899.153	19681
899.273	19655
899.393	19723
899.513	19613
899.633	19620
899.753	19590
899.873	19502
899.993	19712
900.113	19597
900.232	19723
900.352	19518
900.472	19400
900.591	19335
900.711	19510
900.83	19506
900.95	19540
901.069	19499
901.189	19373
901.308	19061
901.427	19129
901.546	19061
901.665	19107
901.784	19107
901.904	18848
902.023	18890
902.141	18711
902.26	18608
902.379	18719
902.498	18502
902.617	18623
902.735	18456
902.854	18357
902.973	18464
903.091	18323
903.21	18232
903.328	18186
903.446	18152
903.565	17927
903.683	17942
903.801	17813
903.919	18068
904.038	17988
904.156	17779
904.274	17912
904.392	17809
904.51	17889
904.627	17798
904.745	17824
904.863	17859
904.981	17623
905.098	17558
905.216	17528
905.334	17448
905.451	17592
905.569	17486
905.686	17570
905.803	17509
905.921	17254
906.038	17421
906.155	17379
906.272	17223
906.389	17299
906.506	17071
906.623	16942
906.74	17003
906.857	16961
906.974	16953
907.091	16987
907.208	17147
907.324	17033
907.441	16934
907.557	16858
907.674	16740
907.79	16748
907.907	16721
908.023	16862
908.139	16729
908.256	16702
908.372	16725
908.488	16664
908.604	16531
908.72	16504
908.836	16592
908.952	16459
909.068	16500
909.184	16603
909.3	16382
909.415	16550
909.531	16489
909.647	16211
909.762	16173
909.878	16303
909.993	16238
910.108	16238
910.224	16128
910.339	16249
910.454	16154
910.57	16128
910.685	15987
910.8	16253
910.915	16147
911.03	16036
911.145	15842
911.259	15911
911.374	15774
911.489	15759
911.604	15682
911.718	15637
911.833	15561
911.947	15603
912.062	15397
912.176	15545
912.291	15557
912.405	15584
912.519	15732
912.633	15808
912.748	15641
912.862	15473
912.976	15378
913.09	15287
913.204	15393
913.318	15325
913.431	15462
913.545	15504
913.659	15447
913.772	15378
913.886	15340
914	15218
914.113	15211
914.226	15321
914.34	15249
914.453	15077
914.566	15245
914.68	15070
914.793	15070
914.906	14914
915.019	14769
915.132	14864
915.245	14815
915.358	14853
915.47	14830
915.583	14842
915.696	14845
915.809	14933
915.921	14876
916.034	14724
916.146	14830
916.259	14636
916.371	14811
916.483	14800
916.595	14636
916.708	14663
916.82	14575
916.932	14564
917.044	14587
917.156	14556
917.268	14446
917.38	14632
917.491	14431
917.603	14393
917.715	14503
917.826	14579
917.938	14492
918.049	14305
918.161	14393
918.272	14545
918.384	14602
918.495	14434
918.606	14294
918.717	14248
918.828	14343
918.939	14240
919.05	14199
919.161	14180
919.272	14088
919.383	14008
919.494	14309
919.604	14476
919.715	14248
919.826	14149
919.936	14202
920.047	14339
920.157	14252
920.267	14328
920.378	14282
920.488	14180
920.598	14427
920.708	14412
920.818	14389
920.928	14374
921.038	14533
921.148	14393
921.258	14062
921.368	14020
921.477	14077
921.587	13986
921.697	13852
921.806	13982
921.916	13830
922.025	13647
922.134	13624
922.244	13620
922.353	13674
922.462	13525
922.571	13419
922.68	13324
922.789	13278
922.898	13232
923.007	13190
923.116	13266
923.224	13240
923.333	13236
923.442	13164
923.55	13103
923.659	13099
923.767	13118
923.876	12973
923.984	13198
924.092	12954
924.201	12977
924.309	12958
924.417	12878
924.525	13000
924.633	12882
924.741	13906
924.849	12764
924.956	12875
925.064	12650
925.172	12681
925.279	12604
925.387	12711
925.494	12741
925.602	12787
925.709	12681
925.816	12673
925.924	12620
926.031	12662
926.138	12654
926.245	12639
926.352	12532
926.459	12646
926.566	12711
926.673	12517
926.779	12475
926.886	12376
926.993	12311
927.099	12334
927.206	12186
927.312	12186
927.419	12338
927.525	12190
927.631	12254
927.737	12308
927.843	12133
927.95	12022
928.056	12144
928.162	12129
928.267	12117
928.373	12662
928.479	12182
928.585	11904
928.69	12087
928.796	12117
928.901	11992
929.007	11813
929.112	11916
929.218	11950
929.323	11889
929.428	11775
929.533	11904
929.638	11786
929.743	11771
929.848	11737
929.953	11684
930.058	11684
930.163	11444
930.267	11509
930.372	11680
930.477	11501
930.581	11737
930.685	11493
930.79	11395
930.894	11368
930.998	11387
931.103	11551
931.207	11189
931.311	11010
931.415	10991
931.519	10873
931.623	10828
