Data from test_V78500241_1071.txt Node
Date: Fri Mar 25 15:17:18 CST 2022
User: usil
Spectrometer: V785-0024
Trigger mode: 0
Integration Time (sec): 4.000000E-1
Scans to average: 1
Nonlinearity correction enabled: false
Boxcar width: 0
Storing dark spectrum: false
XAxis mode: Wavelengths
Number of Pixels in Spectrum: 1024
>>>>>Begin Spectral Data<<<<<
801.071	28272
801.214	28154
801.356	28006
801.499	27918
801.641	27774
801.783	27705
801.926	27857
802.068	27663
802.211	27656
802.353	27641
802.496	27443
802.638	27549
802.78	27336
802.923	27405
803.065	27287
803.208	27374
803.35	27317
803.492	27462
803.635	27583
803.777	27485
803.919	27614
804.061	27918
804.204	27793
804.346	27481
804.488	27591
804.63	27641
804.773	27580
804.915	27694
805.057	27694
805.199	27614
805.341	27652
805.483	27808
805.626	27838
805.768	27610
805.91	27633
806.052	27743
806.194	27694
806.336	27968
806.478	27842
806.62	27823
806.762	27934
806.904	28147
807.046	28344
807.188	28181
807.33	28318
807.472	28242
807.614	28032
807.756	28158
807.898	28135
808.04	28090
808.182	27934
808.324	28090
808.465	28078
808.607	28276
808.749	28303
808.891	28489
809.033	28379
809.174	28455
809.316	28451
809.458	28367
809.6	28421
809.741	28588
809.883	28611
810.025	28710
810.166	28622
810.308	28790
810.45	28653
810.591	28584
810.733	28443
810.875	28569
811.016	28207
811.158	28329
811.299	28462
811.441	28470
811.582	28519
811.724	28615
811.865	28333
812.007	28428
812.148	28386
812.29	28538
812.431	28580
812.573	28793
812.714	28885
812.855	28968
812.997	29086
813.138	29109
813.279	29258
813.421	28995
813.562	28942
813.703	28755
813.845	28698
813.986	28382
814.127	28181
814.268	28169
814.41	28162
814.551	28074
814.692	28063
814.833	27945
814.974	27983
815.115	28207
815.256	28158
815.397	28032
815.539	28032
815.68	27914
815.821	27937
815.962	28006
816.103	27937
816.244	27816
816.385	27743
816.526	27778
816.666	27599
816.807	27454
816.948	27561
817.089	27720
817.23	27443
817.371	27576
817.512	27633
817.653	27580
817.793	27393
817.934	27367
818.075	27515
818.216	27408
818.356	27542
818.497	27249
818.638	27184
818.778	27252
818.919	27340
819.06	27291
819.2	27317
819.341	27507
819.481	27424
819.622	27553
819.762	27766
819.903	27778
820.043	27709
820.184	27538
820.324	27599
820.465	27648
820.605	27603
820.746	27561
820.886	27523
821.026	27568
821.167	27583
821.307	27637
821.447	27568
821.588	27519
821.728	27386
821.868	27051
822.008	26921
822.149	27043
822.289	26944
822.429	26659
822.569	26568
822.709	26640
822.849	26434
822.99	26522
823.13	26381
823.27	26427
823.41	26389
823.55	26248
823.69	26332
823.83	26240
823.97	26134
824.11	26191
824.25	26206
824.389	26050
824.529	26256
824.669	26111
824.809	26362
824.949	26286
825.089	26267
825.228	26214
825.368	25986
825.508	25951
825.648	26031
825.787	26088
825.927	26134
826.067	26005
826.206	25951
826.346	26035
826.485	26153
826.625	26122
826.765	26050
826.904	25944
827.044	25799
827.183	25750
827.323	25807
827.462	25898
827.601	25803
827.741	25658
827.88	25704
828.02	25590
828.159	25670
828.298	25772
828.437	25761
828.577	25693
828.716	26001
828.855	25658
828.994	25601
829.134	25434
829.273	25449
829.412	25419
829.551	25468
829.69	25445
829.829	25457
829.968	25499
830.107	25616
830.246	25533
830.385	25377
830.524	25346
830.663	25411
830.802	25263
830.941	25183
831.08	25004
831.219	25152
831.357	25194
831.496	25384
831.635	25194
831.774	25061
831.913	24947
832.051	24863
832.19	24852
832.329	24894
832.467	24719
832.606	24650
832.744	24719
832.883	24764
833.022	24791
833.16	24749
833.299	24901
833.437	24783
833.576	24840
833.714	24821
833.852	24924
833.991	24924
834.129	24962
834.267	24852
834.406	24749
834.544	24844
834.682	24954
834.821	24776
834.959	25046
835.097	24738
835.235	24844
835.373	24909
835.511	24829
835.65	24787
835.788	24665
835.926	24585
836.064	24528
836.202	24578
836.34	24738
836.478	24673
836.615	24772
836.753	24837
836.891	24817
837.029	24646
837.167	24635
837.305	24620
837.443	24498
837.58	24467
837.718	24566
837.856	24604
837.993	24509
838.131	24490
838.269	24388
838.406	24559
838.544	24308
838.681	24140
838.819	24106
838.956	24072
839.094	24064
839.231	24125
839.369	24079
839.506	24342
839.643	24213
839.781	23999
839.918	23916
840.055	24015
840.193	23977
840.33	23885
840.467	23912
840.604	23912
840.742	24159
840.879	23882
841.016	23874
841.153	23745
841.29	24057
841.427	23916
841.564	24030
841.701	23950
841.838	23824
841.975	23798
842.112	23714
842.249	23771
842.385	23573
842.522	23817
842.659	23657
842.796	23554
842.933	23611
843.069	23577
843.206	23600
843.343	23687
843.479	23562
843.616	23745
843.752	23589
843.889	23471
844.025	23577
844.162	23410
844.298	23448
844.435	23509
844.571	23360
844.708	23322
844.844	23528
844.98	23566
845.117	23668
845.253	23368
845.389	23315
845.525	23296
845.661	23239
845.798	22976
845.934	23170
846.07	23143
846.206	23159
846.342	23280
846.478	23231
846.614	22946
846.75	22778
846.886	22923
847.022	22965
847.158	22904
847.294	22968
847.429	22999
847.565	22869
847.701	23239
847.837	22626
847.972	22546
848.108	22683
848.244	22740
848.379	22588
848.515	22561
848.65	22455
848.786	22550
848.921	22519
849.057	22459
849.192	22512
849.328	22550
849.463	22588
849.598	22447
849.734	22356
849.869	22447
850.004	22196
850.14	22329
850.275	22257
850.41	22238
850.545	22150
850.68	22287
850.815	22249
850.95	22310
851.085	22424
851.22	22402
851.355	22249
851.49	22177
851.625	22341
851.76	22211
851.895	22131
852.03	22143
852.165	22280
852.299	22226
852.434	22207
852.569	22207
852.703	22211
852.838	22299
852.973	22268
853.107	22333
853.242	22188
853.376	22105
853.511	21926
853.645	22029
853.78	22181
853.914	22131
854.048	22040
854.183	22074
854.317	22192
854.451	22306
854.585	22128
854.72	22124
854.854	22253
854.988	22116
855.122	22029
855.256	21994
855.39	22048
855.524	22204
855.658	22040
855.792	22070
855.926	22230
856.06	22090
856.194	22230
856.327	22055
856.461	22070
856.595	22162
856.729	22150
856.862	22124
856.996	22150
857.13	22188
857.263	22204
857.397	22173
857.53	22002
857.664	22192
857.797	22120
857.931	22116
858.064	22021
858.197	22238
858.331	22074
858.464	22040
858.597	22044
858.731	22154
858.864	22051
858.997	21991
859.13	22093
859.263	22036
859.396	22150
859.529	22078
859.662	21975
859.795	22074
859.928	21953
860.061	22230
860.194	22337
860.327	22215
860.46	22067
860.592	22287
860.725	22226
860.858	22196
860.99	22090
861.123	22059
861.256	21934
861.388	22025
861.521	22729
861.653	21899
861.786	21956
861.918	21949
862.05	21934
862.183	22036
862.315	22021
862.447	22029
862.58	22021
862.712	21743
862.844	21728
862.976	21873
863.108	21789
863.24	22261
863.372	21690
863.504	21789
863.636	21781
863.768	21800
863.9	21736
864.032	21709
864.164	21663
864.296	21861
864.428	21785
864.559	21835
864.691	21728
864.823	21804
864.954	21774
865.086	21736
865.217	21682
865.349	21553
865.48	21690
865.612	21656
865.743	21831
865.875	21660
866.006	21534
866.137	21679
866.269	21652
866.4	21614
866.531	21595
866.662	21633
866.793	21583
866.924	21606
867.055	21530
867.186	21622
867.317	21504
867.448	21538
867.579	21637
867.71	21367
867.841	21557
867.972	21500
868.103	21572
868.233	21606
868.364	21580
868.495	21606
868.625	21739
868.756	21899
868.886	21736
869.017	21857
869.147	21964
869.278	21960
869.408	21842
869.539	21842
869.669	21922
869.799	21781
869.929	21880
870.06	21915
870.19	22082
870.32	22139
870.45	22219
870.58	22226
870.71	22131
870.84	22405
870.97	22257
871.1	22265
871.23	22310
871.36	22375
871.489	22303
871.619	22394
871.749	22413
871.879	22367
872.008	22523
872.138	22356
872.267	22344
872.397	22261
872.526	22318
872.656	22280
872.785	22188
872.915	22413
873.044	22508
873.173	22421
873.303	22409
873.432	22451
873.561	22584
873.69	22451
873.819	22474
873.948	22417
874.077	22478
874.206	22379
874.335	22451
874.464	22538
874.593	22641
874.722	22478
874.851	22740
874.979	22698
875.108	22592
875.237	22535
875.365	22527
875.494	22630
875.623	22656
875.751	22607
875.88	22679
876.008	22797
876.136	22908
876.265	23003
876.393	23075
876.521	23113
876.65	23056
876.778	22942
876.906	22984
877.034	22911
877.162	23056
877.29	22999
877.418	22923
877.546	23048
877.674	22843
877.802	22919
877.93	22831
878.058	22862
878.185	22873
878.313	22889
878.441	22957
878.568	22824
878.696	22740
878.824	22972
878.951	23018
879.079	23083
879.206	23178
879.333	23155
879.461	23018
879.588	23010
879.715	23052
879.842	23254
879.97	23025
880.097	22706
880.224	22752
880.351	22904
880.478	22835
880.605	22706
880.732	22774
880.859	23033
880.986	22866
881.112	22843
881.239	22668
881.366	22478
881.493	22421
881.619	22508
881.746	22485
881.872	22470
881.999	22371
882.125	22284
882.252	22527
882.378	22356
882.505	22379
882.631	22154
882.757	22124
882.883	22093
883.01	22059
883.136	22093
883.262	22032
883.388	21895
883.514	22032
883.64	22010
883.766	22036
883.892	21751
884.018	21835
884.143	21968
884.269	22048
884.395	21759
884.52	21694
884.646	21606
884.772	21686
884.897	21637
885.023	21660
885.148	21743
885.274	21808
885.399	21797
885.524	21610
885.65	21759
885.775	21675
885.9	21720
886.025	21751
886.15	21888
886.275	21587
886.4	21606
886.525	21534
886.65	21652
886.775	21606
886.9	21827
887.025	21827
887.149	21652
887.274	21424
887.399	21435
887.523	21401
887.648	21363
887.773	21348
887.897	21542
888.021	21435
888.146	21363
888.27	21473
888.395	21450
888.519	21485
888.643	21496
888.767	21462
888.891	21348
889.015	21195
889.139	21302
889.263	21222
889.387	21287
889.511	21428
889.635	21275
889.759	21184
889.883	21131
890.006	21245
890.13	21458
890.254	21176
890.377	21199
890.501	21024
890.624	20994
890.748	20990
890.871	20861
890.995	20861
891.118	20758
891.241	20724
891.364	20686
891.488	20914
891.611	20762
891.734	20777
891.857	20918
891.98	20815
892.103	20876
892.226	20823
892.349	20765
892.471	20594
892.594	20746
892.717	20883
892.839	20659
892.962	20724
893.085	20708
893.207	20644
893.33	20590
893.452	20552
893.575	20686
893.697	20613
893.819	20906
893.941	20781
894.064	20845
894.186	20564
894.308	20640
894.43	20785
894.552	20773
894.674	20750
894.796	20651
894.918	20636
895.04	20659
895.161	20659
895.283	20754
895.405	20625
895.526	20663
895.648	20682
895.769	20678
895.891	20644
896.012	20716
896.134	20853
896.255	20651
896.376	20663
896.498	20598
896.619	20682
896.74	20670
896.861	20701
896.982	21001
897.103	21051
897.224	20967
897.345	20933
897.466	20838
897.587	20887
897.708	20944
897.828	20887
897.949	20788
898.07	20788
898.19	20838
898.311	20921
898.431	20849
898.552	20758
898.672	20933
898.792	20937
898.913	20861
899.033	20826
899.153	20716
899.273	20564
899.393	20606
899.513	20648
899.633	20648
899.753	20659
899.873	20564
899.993	20587
900.113	20484
900.232	20549
900.352	20518
900.472	20404
900.591	20347
900.711	20347
900.83	20290
900.95	20427
901.069	20419
901.189	20263
901.308	19986
901.427	20001
901.546	19951
901.665	20024
901.784	19917
901.904	19776
902.023	19795
902.141	19529
902.26	19521
902.379	19540
902.498	19400
902.617	19449
902.735	19350
902.854	19384
902.973	19289
903.091	19114
903.21	19080
903.328	19141
903.446	19004
903.565	18943
903.683	19000
903.801	18779
903.919	18829
904.038	18856
904.156	18684
904.274	18730
904.392	18673
904.51	18601
904.627	18669
904.745	18658
904.863	18745
904.981	18551
905.098	18426
905.216	18369
905.334	18388
905.451	18308
905.569	18350
905.686	18422
905.803	18376
905.921	18232
906.038	18209
906.155	18155
906.272	18034
906.389	18076
906.506	17874
906.623	17824
906.74	17843
906.857	17687
906.974	17775
907.091	17927
907.208	17939
907.324	17965
907.441	17863
907.557	17710
907.674	17516
907.79	17532
907.907	17611
908.023	17699
908.139	17611
908.256	17577
908.372	17436
908.488	17436
908.604	17307
908.72	17322
908.836	17376
908.952	17250
909.068	17341
909.184	17383
909.3	17364
909.415	17349
909.531	17292
909.647	16987
909.762	16995
909.878	17079
909.993	17025
910.108	17079
910.224	16949
910.339	16961
910.454	16881
910.57	16889
910.685	16725
910.8	17048
910.915	16854
911.03	16763
911.145	16687
911.259	16542
911.374	16683
911.489	16485
911.604	16538
911.718	16314
911.833	16333
911.947	16215
912.062	16246
912.176	16242
912.291	16268
912.405	16318
912.519	16558
912.633	16599
912.748	16360
912.862	16287
912.976	16173
913.09	16086
913.204	16181
913.318	16074
913.431	16230
913.545	16139
913.659	16242
913.772	16078
913.886	15903
914	15960
914.113	16116
914.226	16029
914.34	15983
914.453	15941
914.566	15865
914.68	15770
914.793	15743
914.906	15644
915.019	15553
915.132	15553
915.245	15561
915.358	15595
915.47	15576
915.583	15526
915.696	15641
915.809	15663
915.921	15652
916.034	15500
916.146	15439
916.259	15363
916.371	15637
916.483	15458
916.595	15405
916.708	15306
916.82	15370
916.932	15378
917.044	15302
917.156	15294
917.268	15180
917.38	15176
917.491	15214
917.603	15154
917.715	15173
917.826	15245
917.938	15093
918.049	15058
918.161	15138
918.272	15321
918.384	15188
918.495	15184
918.606	14971
918.717	14796
918.828	14960
918.939	14963
919.05	14765
919.161	14902
919.272	14670
919.383	14777
919.494	14971
919.604	15184
919.715	15009
919.826	14811
919.936	14849
920.047	14975
920.157	14864
920.267	15093
920.378	14941
920.488	14902
920.598	14994
920.708	15203
920.818	14971
920.928	14933
921.038	15226
921.148	15062
921.258	14796
921.368	14792
921.477	14701
921.587	14598
921.697	14526
921.806	14560
921.916	14480
922.025	14294
922.134	14172
922.244	14126
922.353	14328
922.462	14126
922.571	14062
922.68	13967
922.789	13925
922.898	13913
923.007	13928
923.116	13913
923.224	13894
923.333	13784
923.442	13708
923.55	13750
923.659	13670
923.767	13822
923.876	13693
923.984	13712
924.092	13559
924.201	13719
924.309	13620
924.417	13639
924.525	13464
924.633	13434
924.741	14507
924.849	13396
924.956	13499
925.064	13316
925.172	13244
925.279	13266
925.387	13285
925.494	13263
925.602	13400
925.709	13449
925.816	13240
925.924	13270
926.031	13316
926.138	13209
926.245	13244
926.352	13149
926.459	13156
926.566	13304
926.673	13236
926.779	12977
926.886	13099
926.993	12913
927.099	12856
927.206	12852
927.312	12753
927.419	12890
927.525	12829
927.631	12886
927.737	12677
927.843	12703
927.95	12559
928.056	12555
928.162	12658
928.267	12776
928.373	13407
928.479	12700
928.585	12559
928.69	12479
928.796	12623
928.901	12597
929.007	12357
929.112	12452
929.218	12471
929.323	12380
929.428	12361
929.533	12521
929.638	12289
929.743	12353
929.848	12365
929.953	12262
930.058	12190
930.163	12060
930.267	12098
930.372	12228
930.477	12083
930.581	12270
930.685	12133
930.79	11855
930.894	11931
930.998	11950
931.103	12076
931.207	11714
931.311	11653
931.415	11433
931.519	11330
931.623	11254
