Data from test_V78500241_1680.txt Node
Date: Fri Mar 25 15:21:33 CST 2022
User: usil
Spectrometer: V785-0024
Trigger mode: 0
Integration Time (sec): 4.000000E-1
Scans to average: 1
Nonlinearity correction enabled: false
Boxcar width: 0
Storing dark spectrum: false
XAxis mode: Wavelengths
Number of Pixels in Spectrum: 1024
>>>>>Begin Spectral Data<<<<<
801.071	27968
801.214	28086
801.356	27812
801.499	27751
801.641	27511
801.783	27435
801.926	27682
802.068	27568
802.211	27462
802.353	27363
802.496	27310
802.638	27195
802.78	27230
802.923	27272
803.065	27051
803.208	27169
803.35	27264
803.492	27348
803.635	27241
803.777	27211
803.919	27450
804.061	27652
804.204	27496
804.346	27401
804.488	27408
804.63	27310
804.773	27355
804.915	27306
805.057	27580
805.199	27401
805.341	27469
805.483	27701
805.626	27561
805.768	27405
805.91	27553
806.052	27545
806.194	27492
806.336	27816
806.478	27671
806.62	27473
806.762	27652
806.904	27736
807.046	27934
807.188	27876
807.33	27941
807.472	28032
807.614	27857
807.756	27922
807.898	27865
808.04	27835
808.182	27766
808.324	27869
808.465	27983
808.607	28059
808.749	28169
808.891	28303
809.033	28329
809.174	28166
809.316	28109
809.458	28090
809.6	28166
809.741	28440
809.883	28363
810.025	28653
810.166	28466
810.308	28504
810.45	28573
810.591	28356
810.733	28200
810.875	28013
811.016	28074
811.158	28017
811.299	28280
811.441	28318
811.582	28310
811.724	28226
811.865	28109
812.007	28124
812.148	28109
812.29	28192
812.431	28428
812.573	28557
812.714	28740
812.855	28660
812.997	28831
813.138	28976
813.279	28919
813.421	28740
813.562	28653
813.703	28516
813.845	28329
813.986	28055
814.127	28101
814.268	27869
814.41	27899
814.551	27831
814.692	27968
814.833	27846
814.974	27934
815.115	28010
815.256	27812
815.397	27964
815.539	27800
815.68	27739
815.821	27545
815.962	27793
816.103	27816
816.244	27625
816.385	27526
816.526	27374
816.666	27348
816.807	27157
816.948	27268
817.089	27245
817.23	27081
817.371	27100
817.512	27176
817.653	27245
817.793	27066
817.934	27207
818.075	27051
818.216	27161
818.356	27112
818.497	27055
818.638	26933
818.778	26948
818.919	26880
819.06	27055
819.2	27131
819.341	27138
819.481	27268
819.622	27180
819.762	27580
819.903	27435
820.043	27473
820.184	27378
820.324	27329
820.465	27359
820.605	27298
820.746	27260
820.886	27039
821.026	27279
821.167	27249
821.307	27378
821.447	27169
821.588	27119
821.728	26872
821.868	26845
822.008	26720
822.149	26648
822.289	26590
822.429	26313
822.569	26282
822.709	26358
822.849	26050
822.99	26107
823.13	26111
823.27	26058
823.41	26035
823.55	25830
823.69	25986
823.83	26031
823.97	26012
824.11	25811
824.25	25738
824.389	25719
824.529	25951
824.669	25826
824.809	25791
824.949	25974
825.089	25879
825.228	25940
825.368	25632
825.508	25632
825.648	25742
825.787	25605
825.927	25708
826.067	25681
826.206	25681
826.346	25769
826.485	25658
826.625	25624
826.765	25689
826.904	25666
827.044	25502
827.183	25499
827.323	25259
827.462	25586
827.601	25343
827.741	25343
827.88	25445
828.02	25308
828.159	25411
828.298	25396
828.437	25365
828.577	25373
828.716	25445
828.855	25301
828.994	25137
829.134	25118
829.273	25213
829.412	25015
829.551	25145
829.69	25023
829.829	25206
829.968	25217
830.107	25103
830.246	25027
830.385	25000
830.524	24913
830.663	24916
830.802	24795
830.941	24856
831.08	24692
831.219	24787
831.357	24711
831.496	24928
831.635	24779
831.774	24608
831.913	24620
832.051	24509
832.19	24460
832.329	24361
832.467	24357
832.606	24448
832.744	24197
832.883	24281
833.022	24251
833.16	24410
833.299	24395
833.437	24330
833.576	24391
833.714	24365
833.852	24589
833.991	24475
834.129	24700
834.267	24467
834.406	24384
834.544	24422
834.682	24460
834.821	24342
834.959	24547
835.097	24407
835.235	24498
835.373	24361
835.511	24441
835.65	24353
835.788	24327
835.926	24224
836.064	24144
836.202	24136
836.34	24258
836.478	24426
836.615	24270
836.753	24201
836.891	24323
837.029	24338
837.167	24239
837.305	24232
837.443	24171
837.58	24045
837.718	24220
837.856	24144
837.993	24030
838.131	24114
838.269	23889
838.406	24102
838.544	23958
838.681	23851
838.819	23771
838.956	23551
839.094	23619
839.231	23642
839.369	23699
839.506	23939
839.643	23843
839.781	23726
839.918	23547
840.055	23634
840.193	23558
840.33	23638
840.467	23520
840.604	23535
840.742	23817
840.879	23292
841.016	23436
841.153	23379
841.29	23535
841.427	23493
841.564	23547
841.701	23425
841.838	23459
841.975	23334
842.112	23391
842.249	23349
842.385	23185
842.522	23471
842.659	23212
842.796	23200
842.933	23299
843.069	23193
843.206	23166
843.343	23296
843.479	23258
843.616	23208
843.752	23060
843.889	23113
844.025	23261
844.162	22904
844.298	23269
844.435	23018
844.571	23044
844.708	23121
844.844	23086
844.98	23166
845.117	23113
845.253	22892
845.389	22831
845.525	22892
845.661	22900
845.798	22752
845.934	22767
846.07	22763
846.206	22869
846.342	22919
846.478	22687
846.614	22504
846.75	22417
846.886	22428
847.022	22565
847.158	22577
847.294	22565
847.429	22592
847.565	22493
847.701	22809
847.837	22124
847.972	22204
848.108	22417
848.244	22306
848.379	22105
848.515	22158
848.65	22025
848.786	22021
848.921	22078
849.057	22169
849.192	22204
849.328	22173
849.463	22074
849.598	22090
849.734	21926
849.869	21892
850.004	21895
850.14	21709
850.275	21842
850.41	21762
850.545	21770
850.68	21861
850.815	21827
850.95	21876
851.085	21972
851.22	21998
851.355	21861
851.49	21785
851.625	21618
851.76	21736
851.895	21701
852.03	21675
852.165	21850
852.299	21770
852.434	21937
852.569	21850
852.703	21751
852.838	21911
852.973	21922
853.107	21892
853.242	21633
853.376	21633
853.511	21553
853.645	21660
853.78	21766
853.914	21701
854.048	21614
854.183	21781
854.317	21686
854.451	21789
854.585	21698
854.72	21686
854.854	21899
854.988	21526
855.122	21561
855.256	21538
855.39	21656
855.524	21728
855.658	21713
855.792	21637
855.926	21663
856.06	21743
856.194	21713
856.327	21682
856.461	21652
856.595	21542
856.729	21641
856.862	21755
856.996	21759
857.13	21743
857.263	21766
857.397	21778
857.53	21583
857.664	21762
857.797	21698
857.931	21679
858.064	21648
858.197	21682
858.331	21644
858.464	21606
858.597	21603
858.731	21538
858.864	21641
858.997	21644
859.13	21606
859.263	21622
859.396	21709
859.529	21534
859.662	21603
859.795	21671
859.928	21656
860.061	21869
860.194	21816
860.327	21694
860.46	21599
860.592	21747
860.725	21812
860.858	21869
860.99	21713
861.123	21488
861.256	21622
861.388	21500
861.521	22310
861.653	21526
861.786	21515
861.918	21549
862.05	21583
862.183	21587
862.315	21629
862.447	21751
862.58	21580
862.712	21420
862.844	21264
862.976	21367
863.108	21401
863.24	21876
863.372	21298
863.504	21287
863.636	21428
863.768	21378
863.9	21237
864.032	21466
864.164	21340
864.296	21397
864.428	21450
864.559	21500
864.691	21424
864.823	21306
864.954	21321
865.086	21142
865.217	21351
865.349	21127
865.48	21214
865.612	21237
865.743	21401
865.875	21291
866.006	21127
866.137	21233
866.269	21313
866.4	21268
866.531	21298
866.662	21230
866.793	21001
866.924	21150
867.055	21302
867.186	21138
867.317	21009
867.448	21055
867.579	21077
867.71	21184
867.841	21131
867.972	21199
868.103	21195
868.233	21184
868.364	21096
868.495	21298
868.625	21416
868.756	21466
868.886	21195
869.017	21428
869.147	21416
869.278	21610
869.408	21504
869.539	21439
869.669	21477
869.799	21424
869.929	21580
870.06	21447
870.19	21827
870.32	21690
870.45	21759
870.58	21800
870.71	21899
870.84	21880
870.97	21808
871.1	21698
871.23	21968
871.36	21998
871.489	21831
871.619	21915
871.749	21975
871.879	22059
872.008	22109
872.138	21975
872.267	22109
872.397	21869
872.526	21945
872.656	21926
872.785	21857
872.915	21968
873.044	22093
873.173	22013
873.303	22017
873.432	22067
873.561	22116
873.69	22055
873.819	22067
873.948	21991
874.077	22021
874.206	22070
874.335	21975
874.464	22177
874.593	22219
874.722	22185
874.851	22322
874.979	22303
875.108	22303
875.237	22230
875.365	22188
875.494	22295
875.623	22409
875.751	22219
875.88	22265
876.008	22337
876.136	22523
876.265	22592
876.393	22733
876.521	22854
876.65	22759
876.778	22717
876.906	22653
877.034	22645
877.162	22634
877.29	22554
877.418	22653
877.546	22672
877.674	22691
877.802	22653
877.93	22577
878.058	22550
878.185	22371
878.313	22459
878.441	22523
878.568	22443
878.696	22443
878.824	22653
878.951	22630
879.079	22649
879.206	22892
879.333	22801
879.461	22706
879.588	22653
879.715	22782
879.842	22862
879.97	22626
880.097	22295
880.224	22246
880.351	22523
880.478	22500
880.605	22428
880.732	22360
880.859	22649
880.986	22363
881.112	22405
881.239	22325
881.366	22265
881.493	22200
881.619	22067
881.746	22017
881.872	21972
881.999	21960
882.125	21941
882.252	22067
882.378	22021
882.505	22124
882.631	21850
882.757	21747
882.883	21743
883.01	21564
883.136	21705
883.262	21519
883.388	21530
883.514	21656
883.64	21720
883.766	21694
883.892	21420
884.018	21504
884.143	21629
884.269	21660
884.395	21378
884.52	21298
884.646	21298
884.772	21306
884.897	21173
885.023	21359
885.148	21450
885.274	21382
885.399	21367
885.524	21287
885.65	21348
885.775	21363
885.9	21306
886.025	21481
886.15	21306
886.275	21344
886.4	21241
886.525	21241
886.65	21192
886.775	21169
886.9	21382
887.025	21538
887.149	21173
887.274	21150
887.399	21207
887.523	21100
887.648	21081
887.773	20960
887.897	21131
888.021	21131
888.146	21043
888.27	21192
888.395	21241
888.519	21112
888.643	21237
888.767	21268
888.891	21009
889.015	20830
889.139	20902
889.263	20861
889.387	20990
889.511	21123
889.635	21039
889.759	20800
889.883	20861
890.006	20948
890.13	21070
890.254	20880
890.377	20762
890.501	20659
890.624	20537
890.748	20731
890.871	20537
890.995	20465
891.118	20412
891.241	20484
891.364	20427
891.488	20587
891.611	20590
891.734	20579
891.857	20560
891.98	20533
892.103	20385
892.226	20370
892.349	20450
892.471	20176
892.594	20404
892.717	20355
892.839	20324
892.962	20381
893.085	20431
893.207	20347
893.33	20278
893.452	20263
893.575	20461
893.697	20278
893.819	20419
893.941	20552
894.064	20484
894.186	20301
894.308	20244
894.43	20389
894.552	20434
894.674	20366
894.796	20294
894.918	20221
895.04	20374
895.161	20419
895.283	20408
895.405	20244
895.526	20275
895.648	20267
895.769	20438
895.891	20385
896.012	20400
896.134	20301
896.255	20355
896.376	20180
896.498	20419
896.619	20313
896.74	20317
896.861	20442
896.982	20594
897.103	20769
897.224	20533
897.345	20495
897.466	20552
897.587	20541
897.708	20594
897.828	20571
897.949	20419
898.07	20370
898.19	20484
898.311	20564
898.431	20522
898.552	20503
898.672	20651
898.792	20545
898.913	20469
899.033	20419
899.153	20507
899.273	20233
899.393	20244
899.513	20393
899.633	20187
899.753	20442
899.873	20282
899.993	20298
900.113	20202
900.232	20366
900.352	20145
900.472	20088
900.591	20058
900.711	20043
900.83	20130
900.95	20115
901.069	20077
901.189	19970
901.308	19677
901.427	19559
901.546	19704
901.665	19712
901.784	19674
901.904	19441
902.023	19521
902.141	19213
902.26	19232
902.379	19198
902.498	19107
902.617	19015
902.735	19206
902.854	19008
902.973	18993
903.091	18856
903.21	18749
903.328	18753
903.446	18688
903.565	18692
903.683	18734
903.801	18589
903.919	18551
904.038	18563
904.156	18433
904.274	18460
904.392	18441
904.51	18330
904.627	18361
904.745	18399
904.863	18494
904.981	18155
905.098	18174
905.216	18049
905.334	18057
905.451	18045
905.569	17984
905.686	18057
905.803	18083
905.921	17836
906.038	18022
906.155	17946
906.272	17805
906.389	17794
906.506	17615
906.623	17608
906.74	17592
906.857	17402
906.974	17566
907.091	17783
907.208	17726
907.324	17646
907.441	17524
907.557	17360
907.674	17356
907.79	17170
907.907	17235
908.023	17280
908.139	17261
908.256	17242
908.372	17242
908.488	17094
908.604	17124
908.72	16957
908.836	17105
908.952	16923
909.068	17033
909.184	17094
909.3	17132
909.415	17143
909.531	16991
909.647	16831
909.762	16816
909.878	16748
909.993	16679
910.108	16702
910.224	16702
910.339	16729
910.454	16561
910.57	16668
910.685	16451
910.8	16748
910.915	16717
911.03	16459
911.145	16375
911.259	16284
911.374	16375
911.489	16318
911.604	16192
911.718	15922
911.833	16032
911.947	15842
912.062	15884
912.176	16029
912.291	16101
912.405	16051
912.519	16223
912.633	16158
912.748	15994
912.862	16067
912.976	15926
913.09	15789
913.204	15781
913.318	15983
913.431	16025
913.545	15953
913.659	16010
913.772	15804
913.886	15724
914	15599
914.113	15667
914.226	15770
914.34	15694
914.453	15553
914.566	15736
914.68	15580
914.793	15606
914.906	15332
915.019	15226
915.132	15279
915.245	15283
915.358	15275
915.47	15279
915.583	15241
915.696	15336
915.809	15431
915.921	15443
916.034	15226
916.146	15237
916.259	15108
916.371	15294
916.483	15154
916.595	15100
916.708	15039
916.82	15108
916.932	15032
917.044	15039
917.156	15074
917.268	14910
917.38	14842
917.491	14963
917.603	14815
917.715	15009
917.826	14914
917.938	14811
918.049	14788
918.161	14914
918.272	15005
918.384	15036
918.495	14758
918.606	14655
918.717	14579
918.828	14735
918.939	14648
919.05	14598
919.161	14659
919.272	14541
919.383	14560
919.494	14796
919.604	14902
919.715	14693
919.826	14556
919.936	14617
920.047	14655
920.157	14651
920.267	14796
920.378	14598
920.488	14686
920.598	14781
920.708	14929
920.818	14842
920.928	14769
921.038	14872
921.148	14880
921.258	14552
921.368	14476
921.477	14374
921.587	14320
921.697	14294
921.806	14282
921.916	14244
922.025	14119
922.134	14001
922.244	13989
922.353	13951
922.462	13875
922.571	13887
922.68	13700
922.789	13647
922.898	13651
923.007	13613
923.116	13651
923.224	13666
923.333	13651
923.442	13476
923.55	13571
923.659	13537
923.767	13514
923.876	13476
923.984	13510
924.092	13411
924.201	13441
924.309	13392
924.417	13297
924.525	13278
924.633	13232
924.741	14084
924.849	13133
924.956	13225
925.064	13129
925.172	12993
925.279	12916
925.387	13080
925.494	13088
925.602	13183
925.709	13160
925.816	13061
925.924	13057
926.031	13179
926.138	12935
926.245	13057
926.352	12848
926.459	13000
926.566	13027
926.673	12878
926.779	12871
926.886	12856
926.993	12700
927.099	12688
927.206	12574
927.312	12536
927.419	12684
927.525	12620
927.631	12593
927.737	12601
927.843	12460
927.95	12262
928.056	12388
928.162	12483
928.267	12502
928.373	12905
928.479	12452
928.585	12228
928.69	12547
928.796	12346
928.901	12262
929.007	12155
929.112	12235
929.218	12247
929.323	12209
929.428	12133
929.533	12300
929.638	12068
929.743	12079
929.848	12079
929.953	12140
930.058	12038
930.163	11828
930.267	11836
930.372	11984
930.477	11817
930.581	11950
930.685	11904
930.79	11699
930.894	11783
930.998	11767
931.103	11817
931.207	11436
931.311	11376
931.415	11322
931.519	11197
931.623	11025
