Data from test_V78500241_2985.txt Node
Date: Fri Mar 25 15:30:38 CST 2022
User: usil
Spectrometer: V785-0024
Trigger mode: 0
Integration Time (sec): 4.000000E-1
Scans to average: 1
Nonlinearity correction enabled: false
Boxcar width: 0
Storing dark spectrum: false
XAxis mode: Wavelengths
Number of Pixels in Spectrum: 1024
>>>>>Begin Spectral Data<<<<<
801.071	27306
801.214	27161
801.356	26967
801.499	26849
801.641	26826
801.783	26857
801.926	26781
802.068	26705
802.211	26571
802.353	26511
802.496	26469
802.638	26457
802.78	26393
802.923	26423
803.065	26267
803.208	26214
803.35	26355
803.492	26511
803.635	26579
803.777	26362
803.919	26503
804.061	26819
804.204	26522
804.346	26450
804.488	26366
804.63	26461
804.773	26412
804.915	26415
805.057	26689
805.199	26579
805.341	26552
805.483	26575
805.626	26670
805.768	26446
805.91	26689
806.052	26697
806.194	26613
806.336	26785
806.478	26621
806.62	26590
806.762	26689
806.904	26849
807.046	27123
807.188	26986
807.33	27100
807.472	27077
807.614	26971
807.756	27173
807.898	26895
808.04	26819
808.182	26769
808.324	26849
808.465	26975
808.607	27036
808.749	27222
808.891	27291
809.033	27435
809.174	27245
809.316	27199
809.458	27287
809.6	27256
809.741	27321
809.883	27310
810.025	27511
810.166	27519
810.308	27515
810.45	27355
810.591	27348
810.733	27245
810.875	27165
811.016	27203
811.158	27066
811.299	27207
811.441	27370
811.582	27420
811.724	27351
811.865	27203
812.007	27184
812.148	27195
812.29	27173
812.431	27378
812.573	27576
812.714	27679
812.855	27724
812.997	27785
813.138	27808
813.279	27800
813.421	27705
813.562	27663
813.703	27603
813.845	27435
813.986	27176
814.127	27093
814.268	26944
814.41	26921
814.551	26910
814.692	26929
814.833	26838
814.974	26849
815.115	26849
815.256	26606
815.397	26648
815.539	26773
815.68	26735
815.821	26594
815.962	26686
816.103	26564
816.244	26541
816.385	26381
816.526	26457
816.666	26187
816.807	25966
816.948	26100
817.089	26324
817.23	26039
817.371	26199
817.512	26073
817.653	26039
817.793	26005
817.934	26111
818.075	26153
818.216	26187
818.356	26016
818.497	25921
818.638	25868
818.778	25871
818.919	25894
819.06	25860
819.2	26065
819.341	26088
819.481	26046
819.622	26210
819.762	26488
819.903	26332
820.043	26370
820.184	26138
820.324	26278
820.465	26252
820.605	26259
820.746	26214
820.886	26001
821.026	26119
821.167	26058
821.307	26221
821.447	26054
821.588	26153
821.728	26081
821.868	25803
822.008	25662
822.149	25632
822.289	25548
822.429	25282
822.569	25244
822.709	25381
822.849	25141
822.99	25076
823.13	25019
823.27	24977
823.41	25099
823.55	24802
823.69	25053
823.83	24871
823.97	24951
824.11	24768
824.25	24700
824.389	24817
824.529	24738
824.669	24642
824.809	24867
824.949	24795
825.089	24726
825.228	24642
825.368	24642
825.508	24601
825.648	24696
825.787	24608
825.927	24669
826.067	24551
826.206	24585
826.346	24681
826.485	24783
826.625	24563
826.765	24642
826.904	24673
827.044	24334
827.183	24460
827.323	24304
827.462	24273
827.601	24330
827.741	24342
827.88	24311
828.02	24144
828.159	24258
828.298	24372
828.437	24311
828.577	24174
828.716	24270
828.855	24201
828.994	23969
829.134	23999
829.273	23984
829.412	24045
829.551	23946
829.69	23973
829.829	24034
829.968	24007
830.107	24072
830.246	24167
830.385	23954
830.524	23920
830.663	23794
830.802	23748
830.941	23733
831.08	23756
831.219	23646
831.357	23695
831.496	23828
831.635	23630
831.774	23467
831.913	23467
832.051	23490
832.19	23482
832.329	23296
832.467	23376
832.606	23273
832.744	23239
832.883	23242
833.022	23235
833.16	23239
833.299	23239
833.437	23341
833.576	23372
833.714	23349
833.852	23288
833.991	23223
834.129	23421
834.267	23360
834.406	23497
834.544	23368
834.682	23379
834.821	23356
834.959	23585
835.097	23284
835.235	23326
835.373	23193
835.511	23303
835.65	23265
835.788	23216
835.926	23075
836.064	22949
836.202	22923
836.34	23223
836.478	23246
836.615	23132
836.753	23181
836.891	23197
837.029	23212
837.167	23079
837.305	23060
837.443	23022
837.58	23041
837.718	23079
837.856	23056
837.993	22847
838.131	22820
838.269	22934
838.406	22896
838.544	22850
838.681	22706
838.819	22668
838.956	22402
839.094	22527
839.231	22637
839.369	22607
839.506	22869
839.643	22782
839.781	22459
839.918	22550
840.055	22588
840.193	22523
840.33	22443
840.467	22382
840.604	22538
840.742	22805
840.879	22497
841.016	22314
841.153	22276
841.29	22577
841.427	22493
841.564	22535
841.701	22436
841.838	22382
841.975	22329
842.112	22394
842.249	22166
842.385	22295
842.522	22386
842.659	22265
842.796	22150
842.933	22124
843.069	22181
843.206	22105
843.343	22287
843.479	22295
843.616	22192
843.752	21998
843.889	21945
844.025	22082
844.162	21968
844.298	21998
844.435	21918
844.571	21945
844.708	21937
844.844	22070
844.98	22070
845.117	22112
845.253	21956
845.389	21850
845.525	21850
845.661	21835
845.798	21534
845.934	21766
846.07	21690
846.206	21686
846.342	21785
846.478	21701
846.614	21523
846.75	21428
846.886	21614
847.022	21530
847.158	21519
847.294	21431
847.429	21515
847.565	21268
847.701	21751
847.837	21283
847.972	21135
848.108	21313
848.244	21195
848.379	21039
848.515	21062
848.65	21051
848.786	21074
848.921	21169
849.057	21062
849.192	21077
849.328	21047
849.463	21017
849.598	20979
849.734	20910
849.869	20861
850.004	20788
850.14	20861
850.275	20872
850.41	20804
850.545	20746
850.68	20769
850.815	20807
850.95	20785
851.085	20887
851.22	20853
851.355	20743
851.49	20785
851.625	20785
851.76	20682
851.895	20712
852.03	20762
852.165	20868
852.299	20933
852.434	20918
852.569	20811
852.703	20918
852.838	20792
852.973	21066
853.107	20986
853.242	20735
853.376	20655
853.511	20571
853.645	20480
853.78	20663
853.914	20655
854.048	20537
854.183	20526
854.317	20667
854.451	20689
854.585	20621
854.72	20625
854.854	20674
854.988	20526
855.122	20568
855.256	20446
855.39	20625
855.524	20689
855.658	20651
855.792	20594
855.926	20716
856.06	20667
856.194	20663
856.327	20678
856.461	20560
856.595	20511
856.729	20625
856.862	20682
856.996	20625
857.13	20670
857.263	20708
857.397	20746
857.53	20575
857.664	20533
857.797	20644
857.931	20762
858.064	20651
858.197	20648
858.331	20587
858.464	20579
858.597	20545
858.731	20583
858.864	20526
858.997	20454
859.13	20640
859.263	20617
859.396	20754
859.529	20568
859.662	20625
859.795	20419
859.928	20632
860.061	20883
860.194	20815
860.327	20640
860.46	20613
860.592	20781
860.725	20769
860.858	20651
860.99	20571
861.123	20526
861.256	20651
861.388	20568
861.521	21226
861.653	20518
861.786	20393
861.918	20473
862.05	20461
862.183	20606
862.315	20480
862.447	20549
862.58	20621
862.712	20419
862.844	20298
862.976	20415
863.108	20381
863.24	20804
863.372	20278
863.504	20278
863.636	20450
863.768	20377
863.9	20400
864.032	20202
864.164	20286
864.296	20298
864.428	20419
864.559	20309
864.691	20469
864.823	20343
864.954	20263
865.086	20294
865.217	20248
865.349	20103
865.48	20240
865.612	20229
865.743	20324
865.875	20218
866.006	20252
866.137	20229
866.269	20305
866.4	20138
866.531	20149
866.662	20054
866.793	20100
866.924	20126
867.055	20138
867.186	20267
867.317	20229
867.448	20103
867.579	20077
867.71	20221
867.841	20153
867.972	20153
868.103	20149
868.233	20195
868.364	20145
868.495	20206
868.625	20442
868.756	20434
868.886	20332
869.017	20431
869.147	20560
869.278	20545
869.408	20469
869.539	20317
869.669	20366
869.799	20499
869.929	20511
870.06	20518
870.19	20640
870.32	20762
870.45	20842
870.58	20861
870.71	20880
870.84	20868
870.97	20800
871.1	20758
871.23	20906
871.36	21036
871.489	20998
871.619	20918
871.749	20963
871.879	21066
872.008	21051
872.138	21066
872.267	21017
872.397	20986
872.526	20857
872.656	20914
872.785	20876
872.915	20979
873.044	21108
873.173	20986
873.303	21062
873.432	21093
873.561	21169
873.69	21043
873.819	21024
873.948	21112
874.077	21085
874.206	21066
874.335	21081
874.464	21146
874.593	21283
874.722	21211
874.851	21332
874.979	21203
875.108	21279
875.237	21184
875.365	21157
875.494	21169
875.623	21298
875.751	21138
875.88	21332
876.008	21439
876.136	21530
876.265	21736
876.393	21766
876.521	21732
876.65	21747
876.778	21686
876.906	21614
877.034	21496
877.162	21686
877.29	21576
877.418	21720
877.546	21667
877.674	21644
877.802	21743
877.93	21587
878.058	21534
878.185	21443
878.313	21504
878.441	21485
878.568	21389
878.696	21572
878.824	21717
878.951	21667
879.079	21713
879.206	22025
879.333	21888
879.461	21671
879.588	21739
879.715	21789
879.842	21899
879.97	21675
880.097	21393
880.224	21614
880.351	21519
880.478	21473
880.605	21370
880.732	21572
880.859	21751
880.986	21469
881.112	21511
881.239	21237
881.366	21142
881.493	21192
881.619	21013
881.746	21146
881.872	21112
881.999	21024
882.125	20960
882.252	20998
882.378	21017
882.505	21062
882.631	20883
882.757	20792
882.883	20819
883.01	20663
883.136	20705
883.262	20640
883.388	20659
883.514	20602
883.64	20845
883.766	20667
883.892	20537
884.018	20549
884.143	20712
884.269	20754
884.395	20488
884.52	20374
884.646	20484
884.772	20313
884.897	20301
885.023	20427
885.148	20427
885.274	20579
885.399	20533
885.524	20438
885.65	20530
885.775	20431
885.9	20377
886.025	20404
886.15	20396
886.275	20385
886.4	20271
886.525	20278
886.65	20347
886.775	20298
886.9	20492
887.025	20590
887.149	20271
887.274	20191
887.399	20210
887.523	20119
887.648	20157
887.773	20031
887.897	20244
888.021	20233
888.146	19997
888.27	20229
888.395	20290
888.519	20214
888.643	20202
888.767	20229
888.891	20161
889.015	19890
889.139	19970
889.263	20027
889.387	20046
889.511	20237
889.635	20096
889.759	19982
889.883	19860
890.006	19940
890.13	20027
890.254	19875
890.377	19887
890.501	19780
890.624	19704
890.748	19791
890.871	19616
890.995	19575
891.118	19449
891.241	19521
891.364	19704
891.488	19738
891.611	19601
891.734	19689
891.857	19529
891.98	19582
892.103	19601
892.226	19624
892.349	19426
892.471	19373
892.594	19438
892.717	19533
892.839	19476
892.962	19422
893.085	19681
893.207	19487
893.33	19289
893.452	19476
893.575	19544
893.697	19464
893.819	19578
893.941	19677
894.064	19616
894.186	19525
894.308	19377
894.43	19548
894.552	19601
894.674	19628
894.796	19377
894.918	19476
895.04	19529
895.161	19597
895.283	19422
895.405	19403
895.526	19403
895.648	19434
895.769	19430
895.891	19487
896.012	19521
896.134	19453
896.255	19540
896.376	19415
896.498	19601
896.619	19460
896.74	19468
896.861	19597
896.982	19864
897.103	19951
897.224	19715
897.345	19742
897.466	19567
897.587	19544
897.708	19913
897.828	19689
897.949	19731
898.07	19537
898.19	19666
898.311	19780
898.431	19677
898.552	19605
898.672	19753
898.792	19833
898.913	19765
899.033	19540
899.153	19491
899.273	19350
899.393	19472
899.513	19556
899.633	19563
899.753	19521
899.873	19453
899.993	19373
900.113	19411
900.232	19396
900.352	19274
900.472	19289
900.591	19221
900.711	19335
900.83	19301
900.95	19289
901.069	19377
901.189	19179
901.308	18996
901.427	18882
901.546	18871
901.665	18916
901.784	18779
901.904	18665
902.023	18658
902.141	18467
902.26	18315
902.379	18433
902.498	18517
902.617	18281
902.735	18555
902.854	18353
902.973	18194
903.091	18057
903.21	18091
903.328	18064
903.446	17927
903.565	17935
903.683	17866
903.801	17786
903.919	17889
904.038	17729
904.156	17657
904.274	17710
904.392	17573
904.51	17634
904.627	17589
904.745	17608
904.863	17748
904.981	17440
905.098	17360
905.216	17303
905.334	17277
905.451	17269
905.569	17296
905.686	17345
905.803	17239
905.921	17079
906.038	17181
906.155	17128
906.272	17037
906.389	16984
906.506	16850
906.623	16828
906.74	16900
906.857	16729
906.974	16683
907.091	16854
907.208	17029
907.324	16835
907.441	16736
907.557	16626
907.674	16466
907.79	16634
907.907	16588
908.023	16641
908.139	16558
908.256	16508
908.372	16417
908.488	16432
908.604	16303
908.72	16257
908.836	16341
908.952	16185
909.068	16405
909.184	16436
909.3	16295
909.415	16261
909.531	16280
909.647	15934
909.762	15979
909.878	15949
909.993	15934
910.108	15975
910.224	15983
910.339	16006
910.454	15911
910.57	15781
910.685	15698
910.8	16017
910.915	15953
911.03	15819
911.145	15618
911.259	15648
911.374	15728
911.489	15496
911.604	15485
911.718	15401
911.833	15298
911.947	15329
912.062	15222
912.176	15363
912.291	15473
912.405	15435
912.519	15625
912.633	15553
912.748	15325
912.862	15428
912.976	15131
913.09	15058
913.204	15214
913.318	15184
913.431	15233
913.545	15226
913.659	15321
913.772	15085
913.886	14986
914	14876
914.113	15081
914.226	15047
914.34	15081
914.453	14815
914.566	15028
914.68	14921
914.793	14895
914.906	14667
915.019	14655
915.132	14621
915.245	14651
915.358	14549
915.47	14632
915.583	14621
915.696	14617
915.809	14746
915.921	14765
916.034	14564
916.146	14434
916.259	14465
916.371	14587
916.483	14556
916.595	14473
916.708	14492
916.82	14484
916.932	14503
917.044	14400
917.156	14278
917.268	14240
917.38	14408
917.491	14282
917.603	14282
917.715	14339
917.826	14377
917.938	14301
918.049	14191
918.161	14214
918.272	14404
918.384	14275
918.495	14244
918.606	13955
918.717	14001
918.828	14107
918.939	14138
919.05	13932
919.161	14100
919.272	13795
919.383	13982
919.494	14081
919.604	14267
919.715	14046
919.826	13963
919.936	14020
920.047	14065
920.157	14012
920.267	14195
920.378	14001
920.488	14020
920.598	14202
920.708	14259
920.818	14081
920.928	14168
921.038	14271
921.148	14301
921.258	14084
921.368	13887
921.477	13837
921.587	13761
921.697	13651
921.806	13795
921.916	13670
922.025	13457
922.134	13434
922.244	13331
922.353	13480
922.462	13339
922.571	13217
922.68	13114
922.789	13015
922.898	13046
923.007	13076
923.116	13027
923.224	13015
923.333	13004
923.442	12932
923.55	12935
923.659	12962
923.767	12943
923.876	12817
923.984	12916
924.092	12764
924.201	12886
924.309	12886
924.417	12787
924.525	12707
924.633	12779
924.741	13525
924.849	12517
924.956	12631
925.064	12483
925.172	12498
925.279	12540
925.387	12544
925.494	12521
925.602	12563
925.709	12517
925.816	12388
925.924	12441
926.031	12517
926.138	12429
926.245	12494
926.352	12353
926.459	12513
926.566	12593
926.673	12410
926.779	12319
926.886	12350
926.993	12121
927.099	12117
927.206	12117
927.312	12125
927.419	12121
927.525	12045
927.631	12152
927.737	12019
927.843	11866
927.95	11889
928.056	11863
928.162	11980
928.267	11980
928.373	12422
928.479	12140
928.585	11764
928.69	11866
928.796	11904
928.901	11699
929.007	11680
929.112	11824
929.218	11752
929.323	11691
929.428	11554
929.533	11783
929.638	11551
929.743	11729
929.848	11676
929.953	11589
930.058	11596
930.163	11463
930.267	11337
930.372	11570
930.477	11341
930.581	11539
930.685	11383
930.79	11277
930.894	11315
930.998	11170
931.103	11444
931.207	10995
931.311	10854
931.415	10976
931.519	10615
931.623	10618
