Data from test_V78500241_2046.txt Node
Date: Fri Mar 25 15:24:06 CST 2022
User: usil
Spectrometer: V785-0024
Trigger mode: 0
Integration Time (sec): 4.000000E-1
Scans to average: 1
Nonlinearity correction enabled: false
Boxcar width: 0
Storing dark spectrum: false
XAxis mode: Wavelengths
Number of Pixels in Spectrum: 1024
>>>>>Begin Spectral Data<<<<<
801.071	27774
801.214	27747
801.356	27542
801.499	27435
801.641	27389
801.783	27439
801.926	27306
802.068	27332
802.211	27306
802.353	27157
802.496	27051
802.638	27085
802.78	26937
802.923	26887
803.065	26861
803.208	26815
803.35	26963
803.492	27104
803.635	27135
803.777	27043
803.919	27138
804.061	27538
804.204	27344
804.346	27131
804.488	27077
804.63	27135
804.773	27218
804.915	27237
805.057	27298
805.199	27256
805.341	27214
805.483	27344
805.626	27287
805.768	27207
805.91	27283
806.052	27321
806.194	27211
806.336	27378
806.478	27374
806.62	27279
806.762	27401
806.904	27553
807.046	27766
807.188	27804
807.33	27629
807.472	27755
807.614	27534
807.756	27663
807.898	27530
808.04	27466
808.182	27580
808.324	27519
808.465	27599
808.607	27766
808.749	27835
808.891	28013
809.033	28036
809.174	27972
809.316	27895
809.458	27903
809.6	27975
809.741	28090
809.883	28010
810.025	28215
810.166	28185
810.308	28169
810.45	28082
810.591	28093
810.733	27831
810.875	27690
811.016	27690
811.158	27793
811.299	27895
811.441	28021
811.582	27975
811.724	27869
811.865	27827
812.007	27960
812.148	27983
812.29	28002
812.431	28048
812.573	28207
812.714	28424
812.855	28546
812.997	28550
813.138	28561
813.279	28508
813.421	28470
813.562	28409
813.703	28211
813.845	28204
813.986	27895
814.127	27747
814.268	27591
814.41	27599
814.551	27500
814.692	27656
814.833	27416
814.974	27603
815.115	27698
815.256	27481
815.397	27511
815.539	27447
815.68	27397
815.821	27291
815.962	27321
816.103	27431
816.244	27340
816.385	27150
816.526	27192
816.666	26986
816.807	26994
816.948	27055
817.089	26963
817.23	26929
817.371	26842
817.512	26975
817.653	26906
817.793	26845
817.934	26845
818.075	26902
818.216	26853
818.356	26899
818.497	26731
818.638	26590
818.778	26564
818.919	26617
819.06	26648
819.2	26845
819.341	26910
819.481	26872
819.622	27058
819.762	27203
819.903	27077
820.043	27188
820.184	27001
820.324	26921
820.465	27051
820.605	27081
820.746	27157
820.886	26876
821.026	26986
821.167	26960
821.307	26910
821.447	26773
821.588	26960
821.728	26678
821.868	26480
822.008	26374
822.149	26446
822.289	26328
822.429	26210
822.569	26111
822.709	26020
822.849	25875
822.99	25875
823.13	25784
823.27	25738
823.41	25704
823.55	25635
823.69	25746
823.83	25651
823.97	25719
824.11	25563
824.25	25476
824.389	25445
824.529	25590
824.669	25559
824.809	25639
824.949	25571
825.089	25464
825.228	25529
825.368	25392
825.508	25339
825.648	25430
825.787	25422
825.927	25548
826.067	25274
826.206	25312
826.346	25419
826.485	25384
826.625	25335
826.765	25430
826.904	25422
827.044	25206
827.183	25023
827.323	25088
827.462	25206
827.601	25175
827.741	25148
827.88	25072
828.02	24966
828.159	24996
828.298	25027
828.437	25126
828.577	25027
828.716	25160
828.855	24970
828.994	24707
829.134	24909
829.273	24791
829.412	24715
829.551	24802
829.69	24779
829.829	24764
829.968	24878
830.107	24802
830.246	24757
830.385	24711
830.524	24627
830.663	24525
830.802	24528
830.941	24384
831.08	24304
831.219	24426
831.357	24467
831.496	24513
831.635	24292
831.774	24338
831.913	24213
832.051	24171
832.19	24171
832.329	24251
832.467	24205
832.606	23977
832.744	23984
832.883	23977
833.022	24114
833.16	24079
833.299	24125
833.437	24235
833.576	24060
833.714	24106
833.852	24201
833.991	24216
834.129	24163
834.267	24190
834.406	24194
834.544	24251
834.682	24159
834.821	24152
834.959	24311
835.097	24022
835.235	24053
835.373	24106
835.511	24258
835.65	23969
835.788	23840
835.926	23912
836.064	23878
836.202	23859
836.34	24030
836.478	24159
836.615	24038
836.753	23988
836.891	24049
837.029	24068
837.167	23805
837.305	23920
837.443	23851
837.58	23767
837.718	23790
837.856	24011
837.993	23687
838.131	23710
838.269	23668
838.406	23699
838.544	23684
838.681	23471
838.819	23467
838.956	23288
839.094	23311
839.231	23273
839.369	23440
839.506	23668
839.643	23505
839.781	23254
839.918	23174
840.055	23303
840.193	23193
840.33	23200
840.467	23170
840.604	23227
840.742	23509
840.879	23090
841.016	23067
841.153	23075
841.29	23284
841.427	23166
841.564	23200
841.701	23178
841.838	23223
841.975	23044
842.112	23018
842.249	23010
842.385	22938
842.522	23113
842.659	22984
842.796	22995
842.933	22892
843.069	22927
843.206	22839
843.343	22976
843.479	22953
843.616	22930
843.752	22653
843.889	22748
844.025	22820
844.162	22793
844.298	22801
844.435	22755
844.571	22656
844.708	22713
844.844	22790
844.98	23014
845.117	22774
845.253	22630
845.389	22577
845.525	22691
845.661	22634
845.798	22577
845.934	22573
846.07	22402
846.206	22432
846.342	22596
846.478	22398
846.614	22303
846.75	22109
846.886	22169
847.022	22215
847.158	22253
847.294	22196
847.429	22204
847.565	22147
847.701	22398
847.837	21975
847.972	21911
848.108	21915
848.244	21972
848.379	21865
848.515	21880
848.65	21682
848.786	21781
848.921	21660
849.057	22021
849.192	21827
849.328	21808
849.463	21808
849.598	21660
849.734	21682
849.869	21660
850.004	21629
850.14	21629
850.275	21542
850.41	21473
850.545	21488
850.68	21519
850.815	21515
850.95	21507
851.085	21816
851.22	21583
851.355	21679
851.49	21652
851.625	21485
851.76	21504
851.895	21412
852.03	21500
852.165	21568
852.299	21519
852.434	21679
852.569	21519
852.703	21519
852.838	21583
852.973	21583
853.107	21614
853.242	21488
853.376	21389
853.511	21329
853.645	21344
853.78	21344
853.914	21405
854.048	21428
854.183	21477
854.317	21367
854.451	21572
854.585	21325
854.72	21378
854.854	21545
854.988	21317
855.122	21355
855.256	21249
855.39	21287
855.524	21469
855.658	21458
855.792	21443
855.926	21306
856.06	21294
856.194	21439
856.327	21355
856.461	21264
856.595	21272
856.729	21344
856.862	21458
856.996	21473
857.13	21485
857.263	21504
857.397	21469
857.53	21287
857.664	21264
857.797	21477
857.931	21462
858.064	21424
858.197	21408
858.331	21496
858.464	21450
858.597	21218
858.731	21249
858.864	21321
858.997	21348
859.13	21420
859.263	21466
859.396	21477
859.529	21519
859.662	21180
859.795	21370
859.928	21336
860.061	21500
860.194	21572
860.327	21504
860.46	21348
860.592	21447
860.725	21561
860.858	21416
860.99	21416
861.123	21359
861.256	21313
861.388	21283
861.521	21998
861.653	21096
861.786	21207
861.918	21268
862.05	21321
862.183	21310
862.315	21199
862.447	21424
862.58	21287
862.712	21173
862.844	21104
862.976	21169
863.108	21226
863.24	21370
863.372	21039
863.504	21036
863.636	21180
863.768	21116
863.9	21074
864.032	20887
864.164	21127
864.296	21123
864.428	21165
864.559	21142
864.691	21123
864.823	21081
864.954	20948
865.086	20982
865.217	20967
865.349	20933
865.48	20899
865.612	20982
865.743	21207
865.875	20994
866.006	21093
866.137	20910
866.269	20990
866.4	20899
866.531	20895
866.662	20845
866.793	20891
866.924	20979
867.055	20967
867.186	20937
867.317	20941
867.448	20785
867.579	20823
867.71	20826
867.841	20800
867.972	20895
868.103	20823
868.233	20929
868.364	20906
868.495	20994
868.625	21123
868.756	21211
868.886	21039
869.017	21123
869.147	21176
869.278	21275
869.408	21157
869.539	21119
869.669	21207
869.799	21218
869.929	21237
870.06	21226
870.19	21435
870.32	21431
870.45	21515
870.58	21599
870.71	21587
870.84	21542
870.97	21507
871.1	21458
871.23	21743
871.36	21770
871.489	21599
871.619	21759
871.749	21671
871.879	21679
872.008	21876
872.138	21812
872.267	21667
872.397	21523
872.526	21603
872.656	21515
872.785	21603
872.915	21857
873.044	21892
873.173	21804
873.303	21736
873.432	21759
873.561	21812
873.69	21808
873.819	21713
873.948	21816
874.077	21876
874.206	21644
874.335	21918
874.464	21812
874.593	21975
874.722	21975
874.851	21949
874.979	22112
875.108	22032
875.237	22032
875.365	21960
875.494	21907
875.623	22097
875.751	22029
875.88	22013
876.008	22070
876.136	22230
876.265	22341
876.393	22462
876.521	22459
876.65	22402
876.778	22314
876.906	22192
877.034	22215
877.162	22341
877.29	22382
877.418	22455
877.546	22295
877.674	22318
877.802	22299
877.93	22291
878.058	22284
878.185	22215
878.313	22226
878.441	22207
878.568	22135
878.696	22246
878.824	22489
878.951	22432
879.079	22584
879.206	22611
879.333	22538
879.461	22322
879.588	22428
879.715	22542
879.842	22626
879.97	22409
880.097	22032
880.224	22082
880.351	22086
880.478	22154
880.605	22204
880.732	22150
880.859	22367
880.986	22196
881.112	22177
881.239	22021
881.366	21846
881.493	21846
881.619	21736
881.746	21884
881.872	21778
881.999	21644
882.125	21656
882.252	21728
882.378	21701
882.505	21873
882.631	21595
882.757	21500
882.883	21568
883.01	21466
883.136	21291
883.262	21363
883.388	21348
883.514	21469
883.64	21454
883.766	21294
883.892	21218
884.018	21283
884.143	21359
884.269	21454
884.395	21119
884.52	21119
884.646	21070
884.772	20960
884.897	21001
885.023	21142
885.148	21085
885.274	21230
885.399	21382
885.524	21047
885.65	21104
885.775	21077
885.9	21077
886.025	21195
886.15	21062
886.275	21017
886.4	20994
886.525	21013
886.65	21032
886.775	21032
886.9	21203
887.025	21233
887.149	20914
887.274	20899
887.399	20861
887.523	20948
887.648	20762
887.773	20724
887.897	20853
888.021	20743
888.146	20746
888.27	20982
888.395	20933
888.519	20975
888.643	20861
888.767	20868
888.891	20735
889.015	20701
889.139	20571
889.263	20697
889.387	20693
889.511	20910
889.635	20765
889.759	20602
889.883	20590
890.006	20625
890.13	20906
890.254	20549
890.377	20545
890.501	20404
890.624	20218
890.748	20370
890.871	20313
890.995	20183
891.118	20122
891.241	20298
891.364	20050
891.488	20370
891.611	20065
891.734	20218
891.857	20320
891.98	20195
892.103	20202
892.226	20195
892.349	20134
892.471	20046
892.594	20164
892.717	20126
892.839	19925
892.962	20084
893.085	20244
893.207	20161
893.33	20035
893.452	20035
893.575	20225
893.697	20107
893.819	20301
893.941	20263
894.064	20180
894.186	20145
894.308	20100
894.43	20145
894.552	20256
894.674	20107
894.796	19993
894.918	20180
895.04	19997
895.161	20069
895.283	20043
895.405	19959
895.526	20100
895.648	20122
895.769	20005
895.891	20191
896.012	20221
896.134	20172
896.255	20126
896.376	20107
896.498	20161
896.619	20081
896.74	20214
896.861	20138
896.982	20423
897.103	20560
897.224	20442
897.345	20290
897.466	20282
897.587	20263
897.708	20358
897.828	20389
897.949	20180
898.07	20142
898.19	20225
898.311	20461
898.431	20172
898.552	20328
898.672	20377
898.792	20358
898.913	20396
899.033	20180
899.153	20050
899.273	20008
899.393	20115
899.513	20027
899.633	19997
899.753	20058
899.873	19986
899.993	20065
900.113	19944
900.232	19967
900.352	19970
900.472	19868
900.591	19791
900.711	19833
900.83	19837
900.95	19921
901.069	19875
901.189	19765
901.308	19559
901.427	19434
901.546	19407
901.665	19415
901.784	19453
901.904	19175
902.023	19274
902.141	18996
902.26	18981
902.379	19015
902.498	18977
902.617	18878
902.735	18981
902.854	18867
902.973	18802
903.091	18711
903.21	18525
903.328	18597
903.446	18532
903.565	18498
903.683	18395
903.801	18216
903.919	18376
904.038	18391
904.156	18178
904.274	18277
904.392	18220
904.51	18144
904.627	18194
904.745	18140
904.863	18068
904.981	17874
905.098	17855
905.216	17836
905.334	17828
905.451	18045
905.569	17752
905.686	17870
905.803	17809
905.921	17608
906.038	17699
906.155	17714
906.272	17505
906.389	17372
906.506	17433
906.623	17467
906.74	17372
906.857	17284
906.974	17311
907.091	17425
907.208	17490
907.324	17459
907.441	17387
907.557	17117
907.674	17223
907.79	17117
907.907	17003
908.023	17121
908.139	17181
908.256	17098
908.372	16991
908.488	16938
908.604	16869
908.72	16847
908.836	16835
908.952	16710
909.068	16900
909.184	16930
909.3	16854
909.415	16866
909.531	16759
909.647	16599
909.762	16493
909.878	16447
909.993	16573
910.108	16504
910.224	16443
910.339	16447
910.454	16428
910.57	16363
910.685	16371
910.8	16538
910.915	16493
911.03	16329
911.145	16086
911.259	16074
911.374	16196
911.489	16071
911.604	15987
911.718	15941
911.833	15850
911.947	15831
912.062	15648
912.176	15846
912.291	16010
912.405	15850
912.519	16131
912.633	16036
912.748	15869
912.862	15827
912.976	15724
913.09	15743
913.204	15572
913.318	15667
913.431	15785
913.545	15812
913.659	15766
913.772	15728
913.886	15420
914	15519
914.113	15424
914.226	15618
914.34	15530
914.453	15443
914.566	15515
914.68	15351
914.793	15264
914.906	15188
915.019	15138
915.132	15047
915.245	15157
915.358	15154
915.47	15108
915.583	15081
915.696	15138
915.809	15138
915.921	15226
916.034	15070
916.146	14967
916.259	14979
916.371	15055
916.483	15005
916.595	15001
916.708	14887
916.82	14857
916.932	14902
917.044	14876
917.156	14872
917.268	14720
917.38	14762
917.491	14678
917.603	14746
917.715	14739
917.826	14796
917.938	14663
918.049	14507
918.161	14712
918.272	14796
918.384	14800
918.495	14678
918.606	14590
918.717	14457
918.828	14507
918.939	14602
919.05	14473
919.161	14431
919.272	14263
919.383	14305
919.494	14625
919.604	14651
919.715	14598
919.826	14305
919.936	14488
920.047	14522
920.157	14469
920.267	14693
920.378	14442
920.488	14404
920.598	14632
920.708	14807
920.818	14682
920.928	14663
921.038	14804
921.148	14716
921.258	14434
921.368	14434
921.477	14202
921.587	14256
921.697	14065
921.806	14244
921.916	14024
922.025	13982
922.134	13818
922.244	13791
922.353	13898
922.462	13712
922.571	13685
922.68	13552
922.789	13552
922.898	13559
923.007	13495
923.116	13468
923.224	13506
923.333	13491
923.442	13415
923.55	13259
923.659	13320
923.767	13422
923.876	13251
923.984	13255
924.092	13202
924.201	13274
924.309	13202
924.417	13225
924.525	13149
924.633	13213
924.741	13917
924.849	12924
924.956	13160
925.064	12973
925.172	12848
925.279	12916
925.387	12916
925.494	12798
925.602	13069
925.709	13004
925.816	12802
925.924	12802
926.031	12954
926.138	12814
926.245	12905
926.352	12802
926.459	12939
926.566	12943
926.673	12833
926.779	12684
926.886	12738
926.993	12479
927.099	12513
927.206	12467
927.312	12441
927.419	12486
927.525	12521
927.631	12601
927.737	12350
927.843	12251
927.95	12239
928.056	12342
928.162	12254
928.267	12273
928.373	13076
928.479	12327
928.585	12213
928.69	12235
928.796	12346
928.901	12106
929.007	11973
929.112	12163
929.218	12178
929.323	12095
929.428	11999
929.533	12228
929.638	11992
929.743	11889
929.848	11973
929.953	11954
930.058	11882
930.163	11653
930.267	11707
930.372	11866
930.477	11642
930.581	11889
930.685	11699
930.79	11600
930.894	11668
930.998	11554
931.103	11653
931.207	11265
931.311	11242
931.415	11239
931.519	11067
931.623	10999
