Data from test_V78500241_2983.txt Node
Date: Fri Mar 25 15:30:37 CST 2022
User: usil
Spectrometer: V785-0024
Trigger mode: 0
Integration Time (sec): 4.000000E-1
Scans to average: 1
Nonlinearity correction enabled: false
Boxcar width: 0
Storing dark spectrum: false
XAxis mode: Wavelengths
Number of Pixels in Spectrum: 1024
>>>>>Begin Spectral Data<<<<<
801.071	27325
801.214	27214
801.356	26925
801.499	26804
801.641	26777
801.783	26689
801.926	26823
802.068	26602
802.211	26670
802.353	26693
802.496	26450
802.638	26381
802.78	26313
802.923	26400
803.065	26180
803.208	26298
803.35	26180
803.492	26442
803.635	26461
803.777	26499
803.919	26545
804.061	26880
804.204	26621
804.346	26495
804.488	26419
804.63	26499
804.773	26385
804.915	26526
805.057	26495
805.199	26389
805.341	26499
805.483	26621
805.626	26602
805.768	26457
805.91	26640
806.052	26708
806.194	26682
806.336	26815
806.478	26613
806.62	26613
806.762	26606
806.904	26800
807.046	27024
807.188	27066
807.33	27066
807.472	27150
807.614	26929
807.756	26929
807.898	26811
808.04	26883
808.182	26788
808.324	26891
808.465	27039
808.607	27150
808.749	27203
808.891	27439
809.033	27249
809.174	27424
809.316	27184
809.458	27192
809.6	27131
809.741	27355
809.883	27370
810.025	27408
810.166	27526
810.308	27530
810.45	27454
810.591	27359
810.733	27397
810.875	27237
811.016	27154
811.158	27104
811.299	27431
811.441	27534
811.582	27344
811.724	27317
811.865	27165
812.007	27161
812.148	27252
812.29	27131
812.431	27264
812.573	27572
812.714	27618
812.855	27641
812.997	27884
813.138	27819
813.279	27774
813.421	27918
813.562	27614
813.703	27443
813.845	27313
813.986	27119
814.127	26906
814.268	26800
814.41	26773
814.551	26914
814.692	27051
814.833	26975
814.974	26864
815.115	26830
815.256	26785
815.397	26663
815.539	26781
815.68	26731
815.821	26617
815.962	26667
816.103	26568
816.244	26507
816.385	26499
816.526	26374
816.666	26263
816.807	26142
816.948	26176
817.089	26187
817.23	26149
817.371	26046
817.512	26225
817.653	26130
817.793	26180
817.934	26187
818.075	26130
818.216	26210
818.356	26031
818.497	25955
818.638	25830
818.778	25906
818.919	25902
819.06	26027
819.2	25963
819.341	26142
819.481	26221
819.622	26221
819.762	26362
819.903	26290
820.043	26199
820.184	26275
820.324	26244
820.465	26339
820.605	26267
820.746	26214
820.886	26161
821.026	26081
821.167	26092
821.307	26183
821.447	26134
821.588	25974
821.728	25928
821.868	25731
822.008	25559
822.149	25559
822.289	25506
822.429	25206
822.569	25148
822.709	25285
822.849	25160
822.99	25118
823.13	25103
823.27	25080
823.41	24970
823.55	24821
823.69	24916
823.83	25027
823.97	24764
824.11	24757
824.25	24696
824.389	24665
824.529	24730
824.669	24764
824.809	24787
824.949	24745
825.089	24635
825.228	24840
825.368	24570
825.508	24460
825.648	24521
825.787	24578
825.927	24700
826.067	24593
826.206	24517
826.346	24631
826.485	24639
826.625	24612
826.765	24673
826.904	24726
827.044	24418
827.183	24456
827.323	24273
827.462	24365
827.601	24342
827.741	24384
827.88	24365
828.02	24144
828.159	24289
828.298	24262
828.437	24296
828.577	24205
828.716	24251
828.855	24110
828.994	23836
829.134	24011
829.273	24030
829.412	24003
829.551	23901
829.69	23939
829.829	24091
829.968	24148
830.107	24022
830.246	23996
830.385	23847
830.524	23786
830.663	23771
830.802	23604
830.941	23482
831.08	23623
831.219	23691
831.357	23649
831.496	23722
831.635	23535
831.774	23421
831.913	23387
832.051	23478
832.19	23231
832.329	23474
832.467	23330
832.606	23204
832.744	23117
832.883	23250
833.022	23075
833.16	23239
833.299	23345
833.437	23212
833.576	23277
833.714	23315
833.852	23379
833.991	23334
834.129	23364
834.267	23364
834.406	23204
834.544	23216
834.682	23273
834.821	23288
834.959	23497
835.097	23273
835.235	23368
835.373	23315
835.511	23345
835.65	23067
835.788	23174
835.926	22812
836.064	22919
836.202	22873
836.34	23166
836.478	23151
836.615	23105
836.753	23159
836.891	23204
837.029	23060
837.167	23181
837.305	22984
837.443	23006
837.58	22999
837.718	22923
837.856	23044
837.993	22957
838.131	22946
838.269	22869
838.406	22877
838.544	22820
838.681	22645
838.819	22599
838.956	22485
839.094	22394
839.231	22580
839.369	22653
839.506	22847
839.643	22683
839.781	22565
839.918	22443
840.055	22508
840.193	22424
840.33	22398
840.467	22398
840.604	22432
840.742	22611
840.879	22272
841.016	22405
841.153	22306
841.29	22512
841.427	22322
841.564	22348
841.701	22398
841.838	22268
841.975	22223
842.112	22333
842.249	22226
842.385	22223
842.522	22443
842.659	22310
842.796	22162
842.933	22074
843.069	22131
843.206	22090
843.343	22246
843.479	21994
843.616	22253
843.752	21922
843.889	21903
844.025	22070
844.162	21953
844.298	22029
844.435	21869
844.571	21937
844.708	21937
844.844	22105
844.98	22013
845.117	22032
845.253	21762
845.389	21572
845.525	21823
845.661	21720
845.798	21648
845.934	21690
846.07	21656
846.206	21709
846.342	21633
846.478	21644
846.614	21545
846.75	21332
846.886	21382
847.022	21355
847.158	21443
847.294	21420
847.429	21637
847.565	21424
847.701	21641
847.837	21192
847.972	21074
848.108	21268
848.244	21283
848.379	20933
848.515	20921
848.65	21108
848.786	21005
848.921	21001
849.057	21165
849.192	21089
849.328	20971
849.463	21005
849.598	20956
849.734	20952
849.869	20838
850.004	20834
850.14	20811
850.275	20815
850.41	20648
850.545	20678
850.68	20705
850.815	20781
850.95	20758
851.085	20800
851.22	20887
851.355	20705
851.49	20769
851.625	20689
851.76	20800
851.895	20689
852.03	20602
852.165	20743
852.299	20876
852.434	20823
852.569	20811
852.703	20777
852.838	20849
852.973	20864
853.107	20830
853.242	20712
853.376	20564
853.511	20465
853.645	20431
853.78	20708
853.914	20473
854.048	20514
854.183	20457
854.317	20545
854.451	20785
854.585	20617
854.72	20427
854.854	20678
854.988	20621
855.122	20511
855.256	20434
855.39	20431
855.524	20765
855.658	20617
855.792	20530
855.926	20613
856.06	20598
856.194	20552
856.327	20518
856.461	20518
856.595	20530
856.729	20461
856.862	20568
856.996	20590
857.13	20682
857.263	20659
857.397	20708
857.53	20575
857.664	20629
857.797	20682
857.931	20632
858.064	20632
858.197	20686
858.331	20511
858.464	20530
858.597	20511
858.731	20575
858.864	20541
858.997	20415
859.13	20609
859.263	20587
859.396	20716
859.529	20613
859.662	20465
859.795	20590
859.928	20583
860.061	20720
860.194	20644
860.327	20590
860.46	20602
860.592	20594
860.725	20773
860.858	20602
860.99	20549
861.123	20473
861.256	20552
861.388	20556
861.521	21157
861.653	20408
861.786	20336
861.918	20503
862.05	20423
862.183	20358
862.315	20518
862.447	20518
862.58	20465
862.712	20431
862.844	20309
862.976	20332
863.108	20408
863.24	20712
863.372	20107
863.504	20313
863.636	20275
863.768	20271
863.9	20225
864.032	20210
864.164	20271
864.296	20263
864.428	20362
864.559	20374
864.691	20381
864.823	20221
864.954	20320
865.086	20351
865.217	20252
865.349	20149
865.48	20054
865.612	20214
865.743	20259
865.875	20210
866.006	20218
866.137	20183
866.269	20115
866.4	20195
866.531	20119
866.662	20058
866.793	20164
866.924	20115
867.055	20119
867.186	20218
867.317	20126
867.448	20119
867.579	20244
867.71	20100
867.841	20062
867.972	20202
868.103	20050
868.233	20180
868.364	20149
868.495	20202
868.625	20404
868.756	20457
868.886	20446
869.017	20351
869.147	20351
869.278	20575
869.408	20431
869.539	20431
869.669	20400
869.799	20450
869.929	20541
870.06	20545
870.19	20773
870.32	20560
870.45	20727
870.58	20811
870.71	20804
870.84	20815
870.97	20750
871.1	20765
871.23	20944
871.36	21077
871.489	20883
871.619	20933
871.749	20990
871.879	20971
872.008	21085
872.138	21028
872.267	20952
872.397	20876
872.526	20762
872.656	20880
872.785	20857
872.915	21058
873.044	21070
873.173	20956
873.303	21039
873.432	21093
873.561	21119
873.69	21036
873.819	21062
873.948	21047
874.077	20979
874.206	21028
874.335	20883
874.464	21058
874.593	21222
874.722	21119
874.851	21226
874.979	21252
875.108	21154
875.237	21142
875.365	21245
875.494	21272
875.623	21313
875.751	21340
875.88	21348
876.008	21313
876.136	21488
876.265	21663
876.393	21736
876.521	21781
876.65	21762
876.778	21644
876.906	21610
877.034	21515
877.162	21652
877.29	21568
877.418	21603
877.546	21557
877.674	21504
877.802	21591
877.93	21572
878.058	21583
878.185	21408
878.313	21580
878.441	21667
878.568	21492
878.696	21469
878.824	21690
878.951	21648
879.079	21774
879.206	21720
879.333	21728
879.461	21629
879.588	21629
879.715	21907
879.842	21789
879.97	21770
880.097	21431
880.224	21329
880.351	21435
880.478	21355
880.605	21313
880.732	21336
880.859	21583
880.986	21408
881.112	21439
881.239	21233
881.366	21184
881.493	21150
881.619	21108
881.746	21161
881.872	21081
881.999	20960
882.125	21047
882.252	21005
882.378	20990
882.505	21180
882.631	20769
882.757	20689
882.883	20876
883.01	20758
883.136	20568
883.262	20564
883.388	20533
883.514	20743
883.64	20667
883.766	20625
883.892	20415
884.018	20533
884.143	20689
884.269	20773
884.395	20537
884.52	20374
884.646	20415
884.772	20290
884.897	20298
885.023	20423
885.148	20431
885.274	20526
885.399	20541
885.524	20374
885.65	20351
885.775	20377
885.9	20385
886.025	20484
886.15	20328
886.275	20332
886.4	20210
886.525	20351
886.65	20374
886.775	20252
886.9	20415
887.025	20530
887.149	20317
887.274	20199
887.399	20138
887.523	20145
887.648	20020
887.773	20043
887.897	20107
888.021	20176
888.146	20180
888.27	20149
888.395	20229
888.519	20199
888.643	20077
888.767	20214
888.891	20046
889.015	19959
889.139	19982
889.263	19967
889.387	19993
889.511	20100
889.635	20096
889.759	19936
889.883	19856
890.006	19906
890.13	20039
890.254	19951
890.377	19997
890.501	19666
890.624	19723
890.748	19814
890.871	19582
890.995	19441
891.118	19548
891.241	19559
891.364	19518
891.488	19658
891.611	19411
891.734	19499
891.857	19540
891.98	19586
892.103	19521
892.226	19480
892.349	19460
892.471	19346
892.594	19403
892.717	19434
892.839	19369
892.962	19529
893.085	19377
893.207	19434
893.33	19335
893.452	19403
893.575	19518
893.697	19369
893.819	19647
893.941	19704
894.064	19662
894.186	19339
894.308	19426
894.43	19571
894.552	19613
894.674	19575
894.796	19445
894.918	19400
895.04	19407
895.161	19533
895.283	19521
895.405	19388
895.526	19483
895.648	19499
895.769	19445
895.891	19346
896.012	19521
896.134	19468
896.255	19464
896.376	19464
896.498	19377
896.619	19544
896.74	19563
896.861	19514
896.982	19746
897.103	19894
897.224	19761
897.345	19685
897.466	19597
897.587	19723
897.708	19807
897.828	19647
897.949	19624
898.07	19472
898.19	19712
898.311	19849
898.431	19681
898.552	19635
898.672	19868
898.792	19750
898.913	19655
899.033	19643
899.153	19582
899.273	19400
899.393	19487
899.513	19533
899.633	19476
899.753	19468
899.873	19476
899.993	19537
900.113	19354
900.232	19438
900.352	19411
900.472	19278
900.591	19255
900.711	19274
900.83	19213
900.95	19316
901.069	19339
901.189	19206
901.308	18954
901.427	18738
901.546	18825
901.665	18878
901.784	18757
901.904	18749
902.023	18612
902.141	18513
902.26	18323
902.379	18429
902.498	18403
902.617	18300
902.735	18486
902.854	18308
902.973	18174
903.091	18159
903.21	18026
903.328	17977
903.446	17992
903.565	17946
903.683	17965
903.801	17737
903.919	17817
904.038	17703
904.156	17661
904.274	17703
904.392	17672
904.51	17638
904.627	17520
904.745	17619
904.863	17592
904.981	17444
905.098	17315
905.216	17349
905.334	17334
905.451	17307
905.569	17208
905.686	17353
905.803	17288
905.921	17159
906.038	17216
906.155	17140
906.272	16987
906.389	16965
906.506	16946
906.623	16858
906.74	16774
906.857	16771
906.974	16778
907.091	16820
907.208	16934
907.324	16957
907.441	16596
907.557	16611
907.674	16478
907.79	16558
907.907	16516
908.023	16630
908.139	16542
908.256	16519
908.372	16474
908.488	16428
908.604	16268
908.72	16295
908.836	16143
908.952	16230
909.068	16196
909.184	16344
909.3	16238
909.415	16337
909.531	16333
909.647	16135
909.762	15972
909.878	15945
909.993	16078
910.108	15983
910.224	15869
910.339	15934
910.454	15972
910.57	15819
910.685	15724
910.8	15987
910.915	15949
911.03	15823
911.145	15633
911.259	15587
911.374	15694
911.489	15553
911.604	15428
911.718	15412
911.833	15386
911.947	15310
912.062	15218
912.176	15310
912.291	15389
912.405	15519
912.519	15622
912.633	15515
912.748	15386
912.862	15226
912.976	15214
913.09	14982
913.204	15207
913.318	15104
913.431	15332
913.545	15237
913.659	15287
913.772	15093
913.886	14887
914	14861
914.113	15146
914.226	15093
914.34	15028
914.453	14918
914.566	15039
914.68	14880
914.793	14796
914.906	14727
915.019	14629
915.132	14434
915.245	14613
915.358	14670
915.47	14564
915.583	14492
915.696	14545
915.809	14765
915.921	14663
916.034	14583
916.146	14332
916.259	14457
916.371	14552
916.483	14427
916.595	14412
916.708	14511
916.82	14473
916.932	14385
917.044	14393
917.156	14400
917.268	14210
917.38	14355
917.491	14199
917.603	14252
917.715	14290
917.826	14347
917.938	14130
918.049	14149
918.161	14248
918.272	14408
918.384	14259
918.495	14180
918.606	14077
918.717	14035
918.828	14031
918.939	14111
919.05	13898
919.161	14012
919.272	13849
919.383	13913
919.494	14088
919.604	14210
919.715	14077
919.826	13940
919.936	13974
920.047	14054
920.157	14069
920.267	14164
920.378	14077
920.488	13890
920.598	14103
920.708	14305
920.818	14130
920.928	14107
921.038	14313
921.148	14157
921.258	13978
921.368	13894
921.477	13822
921.587	13788
921.697	13658
921.806	13776
921.916	13624
922.025	13426
922.134	13415
922.244	13422
922.353	13434
922.462	13304
922.571	13179
922.68	13137
922.789	13038
922.898	13042
923.007	12894
923.116	13137
923.224	13122
923.333	12973
923.442	12909
923.55	12920
923.659	12875
923.767	12928
923.876	12814
923.984	12951
924.092	12810
924.201	12833
924.309	12738
924.417	12802
924.525	12650
924.633	12817
924.741	13495
924.849	12540
924.956	12707
925.064	12547
925.172	12525
925.279	12502
925.387	12490
925.494	12460
925.602	12631
925.709	12608
925.816	12426
925.924	12433
926.031	12540
926.138	12448
926.245	12528
926.352	12334
926.459	12433
926.566	12563
926.673	12353
926.779	12338
926.886	12243
926.993	12125
927.099	12049
927.206	11988
927.312	12098
927.419	12163
927.525	12110
927.631	12091
927.737	12011
927.843	11946
927.95	11741
928.056	11885
928.162	11889
928.267	11977
928.373	12585
928.479	12076
928.585	11707
928.69	11866
928.796	11897
928.901	11843
929.007	11668
929.112	11684
929.218	11665
929.323	11604
929.428	11649
929.533	11779
929.638	11524
929.743	11630
929.848	11661
929.953	11722
930.058	11486
930.163	11379
930.267	11334
930.372	11471
930.477	11277
930.581	11551
930.685	11421
930.79	11155
930.894	11246
930.998	11162
931.103	11299
931.207	11079
931.311	10961
931.415	10908
931.519	10630
931.623	10683
