Data from test_V78500241_2231.txt Node
Date: Fri Mar 25 15:25:23 CST 2022
User: usil
Spectrometer: V785-0024
Trigger mode: 0
Integration Time (sec): 4.000000E-1
Scans to average: 1
Nonlinearity correction enabled: false
Boxcar width: 0
Storing dark spectrum: false
XAxis mode: Wavelengths
Number of Pixels in Spectrum: 1024
>>>>>Begin Spectral Data<<<<<
801.071	27884
801.214	27686
801.356	27241
801.499	27443
801.641	27233
801.783	27154
801.926	27222
802.068	27310
802.211	27154
802.353	27074
802.496	26887
802.638	26838
802.78	26838
802.923	26830
803.065	26842
803.208	26785
803.35	26929
803.492	26982
803.635	27142
803.777	27104
803.919	27047
804.061	27355
804.204	27116
804.346	27051
804.488	26929
804.63	27119
804.773	26967
804.915	27096
805.057	27058
805.199	26899
805.341	27131
805.483	27108
805.626	27131
805.768	27043
805.91	27287
806.052	27306
806.194	27165
806.336	27340
806.478	27154
806.62	27123
806.762	27370
806.904	27447
807.046	27781
807.188	27614
807.33	27595
807.472	27743
807.614	27583
807.756	27523
807.898	27595
808.04	27386
808.182	27408
808.324	27473
808.465	27633
808.607	27800
808.749	27842
808.891	27892
809.033	27926
809.174	27873
809.316	27747
809.458	27789
809.6	27789
809.741	27835
809.883	27903
810.025	28029
810.166	28013
810.308	28124
810.45	28017
810.591	27998
810.733	27713
810.875	27804
811.016	27576
811.158	27686
811.299	27903
811.441	27907
811.582	27922
811.724	27755
811.865	27895
812.007	27907
812.148	27831
812.29	27709
812.431	27956
812.573	28150
812.714	28265
812.855	28409
812.997	28401
813.138	28550
813.279	28535
813.421	28299
813.562	28276
813.703	28173
813.845	28036
813.986	27789
814.127	27515
814.268	27500
814.41	27542
814.551	27378
814.692	27682
814.833	27469
814.974	27488
815.115	27515
815.256	27329
815.397	27374
815.539	27374
815.68	27252
815.821	27131
815.962	27249
816.103	27195
816.244	27195
816.385	26990
816.526	27112
816.666	26910
816.807	26777
816.948	26895
817.089	26906
817.23	26902
817.371	26807
817.512	26720
817.653	26773
817.793	26754
817.934	26750
818.075	26769
818.216	26819
818.356	26754
818.497	26564
818.638	26446
818.778	26598
818.919	26503
819.06	26587
819.2	26712
819.341	26769
819.481	26598
819.622	26975
819.762	27173
819.903	27081
820.043	26868
820.184	26876
820.324	26914
820.465	26895
820.605	26830
820.746	26891
820.886	26682
821.026	26830
821.167	26693
821.307	26872
821.447	26670
821.588	26781
821.728	26568
821.868	26362
822.008	26309
822.149	26149
822.289	26176
822.429	25947
822.569	25860
822.709	26050
822.849	25776
822.99	25689
823.13	25655
823.27	25677
823.41	25594
823.55	25476
823.69	25575
823.83	25605
823.97	25677
824.11	25392
824.25	25400
824.389	25358
824.529	25472
824.669	25316
824.809	25445
824.949	25449
825.089	25362
825.228	25426
825.368	25247
825.508	25221
825.648	25156
825.787	25247
825.927	25285
826.067	24992
826.206	25209
826.346	25263
826.485	25255
826.625	25221
826.765	25312
826.904	25316
827.044	24920
827.183	24943
827.323	24897
827.462	24939
827.601	25053
827.741	24867
827.88	24939
828.02	24897
828.159	24913
828.298	24973
828.437	24882
828.577	24829
828.716	25019
828.855	24798
828.994	24719
829.134	24658
829.273	24844
829.412	24616
829.551	24521
829.69	24467
829.829	24688
829.968	24654
830.107	24688
830.246	24551
830.385	24631
830.524	24517
830.663	24498
830.802	24292
830.941	24163
831.08	24323
831.219	24410
831.357	24292
831.496	24403
831.635	24304
831.774	24247
831.913	24117
832.051	24049
832.19	24064
832.329	24030
832.467	24003
832.606	23885
832.744	23878
832.883	23927
833.022	23988
833.16	23912
833.299	24003
833.437	23980
833.576	23935
833.714	23897
833.852	23942
833.991	23996
834.129	24102
834.267	23931
834.406	23958
834.544	23874
834.682	23927
834.821	24026
834.959	24117
835.097	23843
835.235	23992
835.373	23954
835.511	23870
835.65	23790
835.788	23809
835.926	23741
836.064	23619
836.202	23592
836.34	23786
836.478	23790
836.615	23707
836.753	23855
836.891	23817
837.029	23851
837.167	23726
837.305	23695
837.443	23691
837.58	23638
837.718	23581
837.856	23779
837.993	23573
838.131	23638
838.269	23474
838.406	23406
838.544	23547
838.681	23318
838.819	23235
838.956	23128
839.094	23155
839.231	23178
839.369	23204
839.506	23528
839.643	23277
839.781	23193
839.918	22957
840.055	23178
840.193	23052
840.33	22995
840.467	23014
840.604	22987
840.742	23311
840.879	22908
841.016	22968
841.153	22869
841.29	23048
841.427	22927
841.564	23056
841.701	23041
841.838	22881
841.975	22797
842.112	22923
842.249	22900
842.385	22679
842.522	23086
842.659	22877
842.796	22698
842.933	22691
843.069	22752
843.206	22691
843.343	22778
843.479	22717
843.616	22733
843.752	22478
843.889	22710
844.025	22668
844.162	22466
844.298	22706
844.435	22390
844.571	22554
844.708	22584
844.844	22740
844.98	22557
845.117	22607
845.253	22485
845.389	22428
845.525	22504
845.661	22409
845.798	22291
845.934	22394
846.07	22230
846.206	22268
846.342	22398
846.478	22238
846.614	22131
846.75	21930
846.886	22017
847.022	22112
847.158	22032
847.294	22067
847.429	22021
847.565	21998
847.701	22287
847.837	21755
847.972	21762
848.108	21869
848.244	21888
848.379	21682
848.515	21526
848.65	21477
848.786	21587
848.921	21682
849.057	21709
849.192	21557
849.328	21568
849.463	21652
849.598	21507
849.734	21515
849.869	21477
850.004	21302
850.14	21408
850.275	21454
850.41	21169
850.545	21310
850.68	21214
850.815	21378
850.95	21416
851.085	21561
851.22	21374
851.355	21466
851.49	21306
851.625	21321
851.76	21397
851.895	21420
852.03	21249
852.165	21325
852.299	21439
852.434	21374
852.569	21325
852.703	21317
852.838	21412
852.973	21450
853.107	21523
853.242	21348
853.376	21325
853.511	21070
853.645	21218
853.78	21298
853.914	21192
854.048	21245
854.183	21070
854.317	21214
854.451	21500
854.585	21119
854.72	21192
854.854	21241
854.988	21104
855.122	21218
855.256	21024
855.39	21180
855.524	21260
855.658	21207
855.792	21150
855.926	21188
856.06	21275
856.194	21279
856.327	21241
856.461	21112
856.595	21203
856.729	21245
856.862	21264
856.996	21287
857.13	21245
857.263	21412
857.397	21287
857.53	21154
857.664	21150
857.797	21321
857.931	21199
858.064	21275
858.197	21218
858.331	21272
858.464	21093
858.597	21055
858.731	21214
858.864	21192
858.997	21081
859.13	21154
859.263	21157
859.396	21306
859.529	21157
859.662	21214
859.795	21207
859.928	21161
860.061	21298
860.194	21382
860.327	21272
860.46	21127
860.592	21363
860.725	21302
860.858	21336
860.99	21275
861.123	21020
861.256	21154
861.388	21165
861.521	21934
861.653	21089
861.786	21028
861.918	21184
862.05	21093
862.183	21104
862.315	21058
862.447	21260
862.58	21043
862.712	20967
862.844	20895
862.976	20944
863.108	20963
863.24	21351
863.372	20849
863.504	20861
863.636	20849
863.768	20963
863.9	20861
864.032	20849
864.164	20876
864.296	20941
864.428	21005
864.559	20960
864.691	21055
864.823	20986
864.954	20864
865.086	20804
865.217	20785
865.349	20670
865.48	20918
865.612	20834
865.743	20933
865.875	20883
866.006	20727
866.137	20750
866.269	20823
866.4	20659
866.531	20788
866.662	20819
866.793	20689
866.924	20697
867.055	20716
867.186	20735
867.317	20727
867.448	20545
867.579	20796
867.71	20636
867.841	20701
867.972	20762
868.103	20849
868.233	20686
868.364	20830
868.495	20861
868.625	20902
868.756	21036
868.886	20895
869.017	20963
869.147	21161
869.278	21135
869.408	21039
869.539	21039
869.669	21028
869.799	21131
869.929	21119
870.06	21135
870.19	21336
870.32	21329
870.45	21313
870.58	21458
870.71	21496
870.84	21428
870.97	21370
871.1	21367
871.23	21648
871.36	21587
871.489	21431
871.619	21583
871.749	21534
871.879	21568
872.008	21793
872.138	21652
872.267	21568
872.397	21363
872.526	21389
872.656	21519
872.785	21488
872.915	21618
873.044	21781
873.173	21599
873.303	21663
873.432	21690
873.561	21637
873.69	21656
873.819	21583
873.948	21648
874.077	21618
874.206	21622
874.335	21462
874.464	21770
874.593	21808
874.722	21865
874.851	21827
874.979	21854
875.108	21911
875.237	21865
875.365	21766
875.494	21720
875.623	21892
875.751	21781
875.88	21873
876.008	21880
876.136	21991
876.265	22261
876.393	22246
876.521	22158
876.65	22348
876.778	22226
876.906	22131
877.034	22109
877.162	22051
877.29	22124
877.418	22143
877.546	22143
877.674	22150
877.802	22299
877.93	22169
878.058	22051
878.185	22177
878.313	22150
878.441	22173
878.568	21968
878.696	22124
878.824	22154
878.951	22211
879.079	22295
879.206	22466
879.333	22329
879.461	22090
879.588	22223
879.715	22348
879.842	22565
879.97	22169
880.097	22044
880.224	21846
880.351	22032
880.478	22013
880.605	21899
880.732	21918
880.859	22238
880.986	22032
881.112	21903
881.239	21793
881.366	21625
881.493	21660
881.619	21553
881.746	21625
881.872	21614
881.999	21435
882.125	21576
882.252	21454
882.378	21496
882.505	21625
882.631	21534
882.757	21195
882.883	21431
883.01	21150
883.136	21211
883.262	21062
883.388	21039
883.514	21260
883.64	21222
883.766	21169
883.892	21028
884.018	21058
884.143	21150
884.269	21245
884.395	21036
884.52	20979
884.646	20967
884.772	20834
884.897	20804
885.023	20925
885.148	21043
885.274	21066
885.399	21009
885.524	20845
885.65	21009
885.775	20960
885.9	20807
886.025	20986
886.15	20956
886.275	20701
886.4	20758
886.525	20960
886.65	20880
886.775	20823
886.9	21020
887.025	21036
887.149	20899
887.274	20735
887.399	20716
887.523	20712
887.648	20541
887.773	20568
887.897	20727
888.021	20842
888.146	20598
888.27	20765
888.395	20765
888.519	20663
888.643	20594
888.767	20796
888.891	20636
889.015	20514
889.139	20457
889.263	20446
889.387	20545
889.511	20743
889.635	20602
889.759	20518
889.883	20594
890.006	20530
890.13	20617
890.254	20530
890.377	20347
890.501	20339
890.624	20122
890.748	20328
890.871	20221
890.995	20031
891.118	20001
891.241	20043
891.364	20142
891.488	20122
891.611	20069
891.734	20111
891.857	20252
891.98	20012
892.103	20168
892.226	20103
892.349	20024
892.471	19947
892.594	19909
892.717	19947
892.839	19997
892.962	19986
893.085	20005
893.207	20031
893.33	19841
893.452	19925
893.575	19997
893.697	19963
893.819	20111
893.941	20172
894.064	20039
894.186	19940
894.308	19841
894.43	20050
894.552	20161
894.674	20058
894.796	20046
894.918	19974
895.04	19974
895.161	20111
895.283	19932
895.405	19925
895.526	19963
895.648	19833
895.769	20039
895.891	19921
896.012	20054
896.134	20100
896.255	20050
896.376	19986
896.498	19974
896.619	19978
896.74	19909
896.861	20096
896.982	20294
897.103	20332
897.224	20290
897.345	20252
897.466	20218
897.587	20290
897.708	20419
897.828	20275
897.949	20092
898.07	20145
898.19	20202
898.311	20339
898.431	20161
898.552	20259
898.672	20278
898.792	20355
898.913	20248
899.033	20065
899.153	20138
899.273	19970
899.393	19970
899.513	19997
899.633	20039
899.753	19925
899.873	19913
899.993	19947
900.113	19799
900.232	19951
900.352	19837
900.472	19776
900.591	19632
900.711	19769
900.83	19811
900.95	19791
901.069	19890
901.189	19655
901.308	19426
901.427	19289
901.546	19362
901.665	19278
901.784	19362
901.904	19183
902.023	19168
902.141	18897
902.26	18924
902.379	19050
902.498	18848
902.617	18768
902.735	18844
902.854	18863
902.973	18646
903.091	18532
903.21	18532
903.328	18502
903.446	18410
903.565	18384
903.683	18323
903.801	18186
903.919	18445
904.038	18308
904.156	18178
904.274	18095
904.392	18072
904.51	18030
904.627	18117
904.745	18064
904.863	18129
904.981	17836
905.098	17809
905.216	17821
905.334	17882
905.451	17760
905.569	17756
905.686	17859
905.803	17775
905.921	17562
906.038	17604
906.155	17547
906.272	17452
906.389	17440
906.506	17318
906.623	17395
906.74	17299
906.857	17136
906.974	17273
907.091	17410
907.208	17444
907.324	17231
907.441	17242
907.557	17098
907.674	17098
907.79	17006
907.907	17079
908.023	17033
908.139	17018
908.256	16877
908.372	16915
908.488	16835
908.604	16771
908.72	16713
908.836	16752
908.952	16691
909.068	16706
909.184	16847
909.3	16740
909.415	16710
909.531	16717
909.647	16573
909.762	16580
909.878	16455
909.993	16474
910.108	16421
910.224	16390
910.339	16398
910.454	16348
910.57	16268
910.685	16162
910.8	16519
910.915	16447
911.03	16230
911.145	16017
911.259	15934
911.374	16040
911.489	15915
911.604	15930
911.718	15835
911.833	15838
911.947	15774
912.062	15587
912.176	15854
912.291	15690
912.405	15728
912.519	15899
912.633	15945
912.748	15865
912.862	15736
912.976	15671
913.09	15485
913.204	15545
913.318	15633
913.431	15717
913.545	15660
913.659	15644
913.772	15462
913.886	15408
914	15443
914.113	15428
914.226	15519
914.34	15534
914.453	15378
914.566	15443
914.68	15378
914.793	15226
914.906	15005
915.019	15017
915.132	14941
915.245	14979
915.358	15024
915.47	14960
915.583	14944
915.696	15116
915.809	15058
915.921	15116
916.034	14899
916.146	14864
916.259	14842
916.371	15017
916.483	15028
916.595	14815
916.708	14800
916.82	14944
916.932	14842
917.044	14708
917.156	14777
917.268	14705
917.38	14731
917.491	14602
917.603	14697
917.715	14720
917.826	14811
917.938	14587
918.049	14568
918.161	14598
918.272	14781
918.384	14743
918.495	14564
918.606	14522
918.717	14389
918.828	14450
918.939	14450
919.05	14366
919.161	14507
919.272	14229
919.383	14313
919.494	14522
919.604	14598
919.715	14396
919.826	14351
919.936	14396
920.047	14476
920.157	14374
920.267	14663
920.378	14362
920.488	14294
920.598	14629
920.708	14678
920.818	14552
920.928	14495
921.038	14629
921.148	14598
921.258	14366
921.368	14187
921.477	14153
921.587	14103
921.697	14050
921.806	14123
921.916	14062
922.025	13879
922.134	13723
922.244	13750
922.353	13818
922.462	13601
922.571	13647
922.68	13434
922.789	13476
922.898	13502
923.007	13358
923.116	13434
923.224	13358
923.333	13327
923.442	13289
923.55	13312
923.659	13297
923.767	13339
923.876	13213
923.984	13308
924.092	13084
924.201	13198
924.309	13164
924.417	13088
924.525	13069
924.633	13095
924.741	13906
924.849	12901
924.956	12954
925.064	12909
925.172	12730
925.279	12867
925.387	12932
925.494	12905
925.602	12985
925.709	12875
925.816	12696
925.924	12791
926.031	12863
926.138	12722
926.245	12798
926.352	12715
926.459	12875
926.566	12814
926.673	12738
926.779	12570
926.886	12563
926.993	12574
927.099	12395
927.206	12384
927.312	12365
927.419	12445
927.525	12407
927.631	12407
927.737	12300
927.843	12292
927.95	12148
928.056	12273
928.162	12186
928.267	12270
928.373	12913
928.479	12369
928.585	12140
928.69	12220
928.796	12205
928.901	12053
929.007	11999
929.112	12060
929.218	12030
929.323	11988
929.428	11912
929.533	12102
929.638	11874
929.743	11897
929.848	11969
929.953	11904
930.058	11798
930.163	11676
930.267	11695
930.372	11840
930.477	11623
930.581	11817
930.685	11760
930.79	11543
930.894	11573
930.998	11604
931.103	11630
931.207	11250
931.311	11197
931.415	11086
931.519	10946
931.623	10889
