Data from test_V78500241_3610.txt Node
Date: Fri Mar 25 15:34:59 CST 2022
User: usil
Spectrometer: V785-0024
Trigger mode: 0
Integration Time (sec): 4.000000E-1
Scans to average: 1
Nonlinearity correction enabled: false
Boxcar width: 0
Storing dark spectrum: false
XAxis mode: Wavelengths
Number of Pixels in Spectrum: 1024
>>>>>Begin Spectral Data<<<<<
801.071	27397
801.214	27283
801.356	27074
801.499	27096
801.641	26777
801.783	26754
801.926	26876
802.068	27001
802.211	26807
802.353	26796
802.496	26667
802.638	26450
802.78	26537
802.923	26339
803.065	26404
803.208	26431
803.35	26590
803.492	26682
803.635	26651
803.777	26621
803.919	26712
804.061	26982
804.204	26746
804.346	26621
804.488	26564
804.63	26587
804.773	26552
804.915	26621
805.057	26792
805.199	26674
805.341	26777
805.483	26853
805.626	26758
805.768	26674
805.91	26708
806.052	26899
806.194	26765
806.336	26963
806.478	26720
806.62	26804
806.762	26838
806.904	27116
807.046	27245
807.188	27298
807.33	27157
807.472	27230
807.614	27283
807.756	27138
807.898	27119
808.04	26956
808.182	26902
808.324	26990
808.465	27146
808.607	27313
808.749	27412
808.891	27367
809.033	27610
809.174	27329
809.316	27340
809.458	27374
809.6	27230
809.741	27378
809.883	27473
810.025	27511
810.166	27667
810.308	27743
810.45	27732
810.591	27538
810.733	27561
810.875	27443
811.016	27298
811.158	27142
811.299	27523
811.441	27618
811.582	27401
811.724	27405
811.865	27370
812.007	27412
812.148	27401
812.29	27485
812.431	27481
812.573	27660
812.714	27804
812.855	27785
812.997	27903
813.138	28135
813.279	27930
813.421	27975
813.562	27842
813.703	27694
813.845	27694
813.986	27264
814.127	27287
814.268	27066
814.41	27070
814.551	27024
814.692	27104
814.833	27020
814.974	26998
815.115	27093
815.256	26952
815.397	26902
815.539	26929
815.68	27047
815.821	26876
815.962	26807
816.103	26765
816.244	26750
816.385	26503
816.526	26697
816.666	26366
816.807	26176
816.948	26381
817.089	26537
817.23	26313
817.371	26233
817.512	26187
817.653	26400
817.793	26263
817.934	26298
818.075	26218
818.216	26358
818.356	26374
818.497	26142
818.638	26096
818.778	26092
818.919	25970
819.06	26187
819.2	26278
819.341	26191
819.481	26317
819.622	26518
819.762	26629
819.903	26530
820.043	26434
820.184	26522
820.324	26370
820.465	26507
820.605	26366
820.746	26328
820.886	26370
821.026	26488
821.167	26339
821.307	26495
821.447	26282
821.588	26199
821.728	26050
821.868	25864
822.008	25868
822.149	25712
822.289	25845
822.429	25578
822.569	25472
822.709	25419
822.849	25255
822.99	25285
823.13	25232
823.27	25206
823.41	25339
823.55	25023
823.69	25209
823.83	25015
823.97	25019
824.11	24958
824.25	24985
824.389	24970
824.529	24977
824.669	24890
824.809	25099
824.949	25034
825.089	25076
825.228	25004
825.368	24654
825.508	24650
825.648	24764
825.787	24825
825.927	24909
826.067	24738
826.206	24791
826.346	24890
826.485	24840
826.625	24631
826.765	25069
826.904	24703
827.044	24715
827.183	24616
827.323	24525
827.462	24521
827.601	24429
827.741	24426
827.88	24642
828.02	24479
828.159	24528
828.298	24578
828.437	24536
828.577	24532
828.716	24544
828.855	24445
828.994	24315
829.134	24273
829.273	24144
829.412	24167
829.551	24167
829.69	24281
829.829	24178
829.968	24243
830.107	24174
830.246	24327
830.385	24186
830.524	24136
830.663	23969
830.802	24045
830.941	23942
831.08	23882
831.219	23840
831.357	23840
831.496	24110
831.635	23794
831.774	23710
831.913	23657
832.051	23699
832.19	23752
832.329	23653
832.467	23611
832.606	23463
832.744	23345
832.883	23619
833.022	23417
833.16	23520
833.299	23539
833.437	23543
833.576	23531
833.714	23509
833.852	23573
833.991	23726
834.129	23551
834.267	23775
834.406	23551
834.544	23581
834.682	23539
834.821	23543
834.959	23813
835.097	23387
835.235	23703
835.373	23592
835.511	23638
835.65	23474
835.788	23539
835.926	23368
836.064	23318
836.202	23288
836.34	23463
836.478	23467
836.615	23459
836.753	23463
836.891	23452
837.029	23471
837.167	23520
837.305	23376
837.443	23303
837.58	23280
837.718	23360
837.856	23216
837.993	23258
838.131	23277
838.269	23155
838.406	23296
838.544	23136
838.681	22930
838.819	22877
838.956	22752
839.094	22774
839.231	22812
839.369	22938
839.506	23227
839.643	22995
839.781	22759
839.918	22767
840.055	22733
840.193	22793
840.33	22668
840.467	22748
840.604	22706
840.742	22987
840.879	22557
841.016	22668
841.153	22447
841.29	22725
841.427	22710
841.564	22755
841.701	22752
841.838	22790
841.975	22611
842.112	22611
842.249	22557
842.385	22538
842.522	22713
842.659	22508
842.796	22523
842.933	22489
843.069	22436
843.206	22405
843.343	22504
843.479	22382
843.616	22478
843.752	22344
843.889	22226
844.025	22306
844.162	22226
844.298	22325
844.435	22333
844.571	22112
844.708	22238
844.844	22474
844.98	22303
845.117	22371
845.253	22173
845.389	22169
845.525	22234
845.661	22128
845.798	21998
845.934	21956
846.07	21888
846.206	21956
846.342	22124
846.478	21911
846.614	21751
846.75	21660
846.886	21751
847.022	21739
847.158	21732
847.294	21774
847.429	21739
847.565	21713
847.701	21903
847.837	21447
847.972	21447
848.108	21481
848.244	21515
848.379	21374
848.515	21332
848.65	21313
848.786	21416
848.921	21199
849.057	21405
849.192	21287
849.328	21283
849.463	21336
849.598	21237
849.734	21256
849.869	21173
850.004	21150
850.14	21058
850.275	21176
850.41	20998
850.545	20952
850.68	21024
850.815	21055
850.95	21089
851.085	21123
851.22	21138
851.355	21157
851.49	21028
851.625	21039
851.76	21005
851.895	20929
852.03	20910
852.165	21058
852.299	21157
852.434	21237
852.569	21062
852.703	21005
852.838	21230
852.973	21093
853.107	21055
853.242	21051
853.376	20921
853.511	20800
853.645	20990
853.78	20986
853.914	20910
854.048	20792
854.183	20845
854.317	20910
854.451	20975
854.585	20823
854.72	20834
854.854	20971
854.988	20857
855.122	20880
855.256	20819
855.39	20811
855.524	20891
855.658	21020
855.792	20899
855.926	20929
856.06	21013
856.194	20906
856.327	20887
856.461	20762
856.595	20830
856.729	20906
856.862	21036
856.996	20895
857.13	20960
857.263	21051
857.397	20956
857.53	20880
857.664	20967
857.797	20864
857.931	21074
858.064	20967
858.197	21032
858.331	20857
858.464	20868
858.597	20785
858.731	20971
858.864	20876
858.997	20811
859.13	20883
859.263	21020
859.396	20941
859.529	20967
859.662	20872
859.795	20906
859.928	20975
860.061	20975
860.194	21116
860.327	20990
860.46	20876
860.592	21005
860.725	21108
860.858	20990
860.99	20967
861.123	20918
861.256	20941
861.388	20872
861.521	21610
861.653	20758
861.786	20701
861.918	20648
862.05	20876
862.183	20796
862.315	20861
862.447	20796
862.58	20648
862.712	20598
862.844	20674
862.976	20739
863.108	20629
863.24	21024
863.372	20663
863.504	20556
863.636	20629
863.768	20594
863.9	20632
864.032	20499
864.164	20552
864.296	20571
864.428	20651
864.559	20678
864.691	20598
864.823	20655
864.954	20670
865.086	20560
865.217	20545
865.349	20602
865.48	20556
865.612	20564
865.743	20655
865.875	20473
866.006	20457
866.137	20575
866.269	20594
866.4	20393
866.531	20438
866.662	20377
866.793	20552
866.924	20358
867.055	20537
867.186	20438
867.317	20442
867.448	20328
867.579	20457
867.71	20461
867.841	20431
867.972	20503
868.103	20480
868.233	20507
868.364	20484
868.495	20518
868.625	20609
868.756	20800
868.886	20659
869.017	20727
869.147	20762
869.278	20769
869.408	20785
869.539	20746
869.669	20674
869.799	20735
869.929	20686
870.06	20765
870.19	20986
870.32	21005
870.45	21058
870.58	20994
870.71	21089
870.84	21173
870.97	21093
871.1	21100
871.23	21165
871.36	21203
871.489	21150
871.619	21256
871.749	21378
871.879	21260
872.008	21325
872.138	21283
872.267	21260
872.397	21017
872.526	21131
872.656	21150
872.785	21100
872.915	21226
873.044	21515
873.173	21397
873.303	21382
873.432	21283
873.561	21568
873.69	21329
873.819	21332
873.948	21397
874.077	21264
874.206	21336
874.335	21310
874.464	21378
874.593	21462
874.722	21507
874.851	21587
874.979	21553
875.108	21561
875.237	21523
875.365	21549
875.494	21553
875.623	21637
875.751	21572
875.88	21595
876.008	21679
876.136	21637
876.265	21975
876.393	22169
876.521	22044
876.65	22204
876.778	22013
876.906	21835
877.034	21876
877.162	21888
877.29	21880
877.418	21907
877.546	21903
877.674	21937
877.802	21831
877.93	21975
878.058	21941
878.185	21701
878.313	21926
878.441	21968
878.568	21717
878.696	21903
878.824	21979
878.951	21968
879.079	21983
879.206	22363
879.333	22010
879.461	21941
879.588	21972
879.715	22029
879.842	22196
879.97	21804
880.097	21816
880.224	21667
880.351	21827
880.478	21778
880.605	21724
880.732	21774
880.859	22078
880.986	21724
881.112	21781
881.239	21572
881.366	21466
881.493	21367
881.619	21287
881.746	21329
881.872	21351
881.999	21264
882.125	21150
882.252	21310
882.378	21325
882.505	21386
882.631	21207
882.757	21020
882.883	21142
883.01	21058
883.136	20982
883.262	20887
883.388	20876
883.514	21005
883.64	20963
883.766	20883
883.892	20667
884.018	20777
884.143	21001
884.269	21127
884.395	20716
884.52	20648
884.646	20678
884.772	20712
884.897	20606
885.023	20731
885.148	20785
885.274	20868
885.399	20716
885.524	20712
885.65	20727
885.775	20648
885.9	20720
886.025	20914
886.15	20682
886.275	20507
886.4	20499
886.525	20640
886.65	20587
886.775	20545
886.9	20781
887.025	20811
887.149	20735
887.274	20434
887.399	20419
887.523	20385
887.648	20313
887.773	20339
887.897	20518
888.021	20507
888.146	20366
888.27	20495
888.395	20625
888.519	20549
888.643	20442
888.767	20594
888.891	20271
889.015	20282
889.139	20229
889.263	20195
889.387	20317
889.511	20556
889.635	20358
889.759	20183
889.883	20229
890.006	20256
890.13	20393
890.254	20240
890.377	20252
890.501	19997
890.624	19913
890.748	19959
890.871	19970
890.995	19871
891.118	19811
891.241	19856
891.364	19807
891.488	20005
891.611	19708
891.734	19791
891.857	19917
891.98	19803
892.103	19833
892.226	19852
892.349	19799
892.471	19567
892.594	19670
892.717	19712
892.839	19784
892.962	19803
893.085	19856
893.207	19772
893.33	19670
893.452	19647
893.575	19879
893.697	19670
893.819	19852
893.941	19963
894.064	19890
894.186	19700
894.308	19723
894.43	19906
894.552	19864
894.674	19677
894.796	19750
894.918	19757
895.04	19620
895.161	19769
895.283	19772
895.405	19590
895.526	19772
895.648	19647
895.769	19791
895.891	19791
896.012	19826
896.134	19818
896.255	19814
896.376	19734
896.498	19807
896.619	19750
896.74	19769
896.861	19772
896.982	20130
897.103	20256
897.224	20096
897.345	19959
897.466	20001
897.587	19955
897.708	20054
897.828	20039
897.949	19856
898.07	19734
898.19	19936
898.311	19932
898.431	19856
898.552	19997
898.672	20077
898.792	20027
898.913	19940
899.033	19967
899.153	19799
899.273	19738
899.393	19765
899.513	19723
899.633	19655
899.753	19757
899.873	19712
899.993	19761
900.113	19647
900.232	19700
900.352	19624
900.472	19487
900.591	19411
900.711	19514
900.83	19422
900.95	19559
901.069	19525
901.189	19377
901.308	19259
901.427	19046
901.546	18993
901.665	18989
901.784	19027
901.904	18909
902.023	18909
902.141	18715
902.26	18547
902.379	18612
902.498	18525
902.617	18582
902.735	18551
902.854	18509
902.973	18551
903.091	18311
903.21	18361
903.328	18395
903.446	18152
903.565	18049
903.683	18022
903.801	17897
903.919	18190
904.038	18003
904.156	17912
904.274	17969
904.392	17836
904.51	17859
904.627	17756
904.745	17828
904.863	17863
904.981	17672
905.098	17512
905.216	17596
905.334	17592
905.451	17551
905.569	17570
905.686	17604
905.803	17547
905.921	17353
906.038	17539
906.155	17349
906.272	17258
906.389	17220
906.506	17060
906.623	17022
906.74	16984
906.857	16946
906.974	17025
907.091	17083
907.208	17299
907.324	17109
907.441	17041
907.557	16885
907.674	16790
907.79	16717
907.907	16774
908.023	16908
908.139	16824
908.256	16736
908.372	16713
908.488	16622
908.604	16588
908.72	16440
908.836	16523
908.952	16432
909.068	16546
909.184	16656
909.3	16504
909.415	16516
909.531	16432
909.647	16207
909.762	16211
909.878	16230
909.993	16207
910.108	16173
910.224	16185
910.339	16215
910.454	16059
910.57	15979
910.685	15964
910.8	16303
910.915	16147
911.03	16074
911.145	15865
911.259	15789
911.374	15876
911.489	15865
911.604	15709
911.718	15629
911.833	15576
911.947	15519
912.062	15488
912.176	15675
912.291	15656
912.405	15774
912.519	15789
912.633	15743
912.748	15679
912.862	15637
912.976	15386
913.09	15279
913.204	15336
913.318	15386
913.431	15473
913.545	15447
913.659	15428
913.772	15428
913.886	15386
914	15070
914.113	15279
914.226	15218
914.34	15264
914.453	15131
914.566	15195
914.68	15074
914.793	15024
914.906	15036
915.019	14777
915.132	14727
915.245	14788
915.358	14777
915.47	14876
915.583	14765
915.696	14861
915.809	14944
915.921	14883
916.034	14845
916.146	14708
916.259	14716
916.371	14830
916.483	14720
916.595	14621
916.708	14804
916.82	14632
916.932	14667
917.044	14606
917.156	14610
917.268	14370
917.38	14377
917.491	14427
917.603	14438
917.715	14511
917.826	14533
917.938	14473
918.049	14309
918.161	14423
918.272	14560
918.384	14522
918.495	14488
918.606	14229
918.717	14210
918.828	14263
918.939	14347
919.05	14183
919.161	14202
919.272	14024
919.383	14062
919.494	14218
919.604	14427
919.715	14229
919.826	14202
919.936	14149
920.047	14294
920.157	14199
920.267	14404
920.378	14221
920.488	14218
920.598	14366
920.708	14568
920.818	14332
920.928	14400
921.038	14556
921.148	14526
921.258	14096
921.368	14145
921.477	13936
921.587	13909
921.697	13780
921.806	13951
921.916	13849
922.025	13605
922.134	13632
922.244	13506
922.353	13636
922.462	13449
922.571	13415
922.68	13209
922.789	13251
922.898	13312
923.007	13133
923.116	13270
923.224	13263
923.333	13145
923.442	13088
923.55	13057
923.659	13069
923.767	13202
923.876	13088
923.984	13099
924.092	12897
924.201	12985
924.309	12966
924.417	13000
924.525	12882
924.633	12943
924.741	13799
924.849	12741
924.956	12867
925.064	12817
925.172	12696
925.279	12658
925.387	12707
925.494	12711
925.602	12768
925.709	12692
925.816	12593
925.924	12688
926.031	12749
926.138	12578
926.245	12684
926.352	12642
926.459	12642
926.566	12627
926.673	12582
926.779	12479
926.886	12388
926.993	12175
927.099	12209
927.206	12190
927.312	12167
927.419	12266
927.525	12251
927.631	12296
927.737	12216
927.843	12133
927.95	12003
928.056	12136
928.162	12087
928.267	12178
928.373	12593
928.479	12194
928.585	11999
928.69	12022
928.796	12079
928.901	11904
929.007	11771
929.112	12011
929.218	11897
929.323	11855
929.428	11901
929.533	11878
929.638	11764
929.743	11710
929.848	11771
929.953	11802
930.058	11630
930.163	11520
930.267	11478
930.372	11592
930.477	11421
930.581	11764
930.685	11638
930.79	11395
930.894	11459
930.998	11364
931.103	11551
931.207	11197
931.311	11075
931.415	10908
931.519	10778
931.623	10816
