Data from test_V78500241_3138.txt Node
Date: Fri Mar 25 15:31:42 CST 2022
User: usil
Spectrometer: V785-0024
Trigger mode: 0
Integration Time (sec): 4.000000E-1
Scans to average: 1
Nonlinearity correction enabled: false
Boxcar width: 0
Storing dark spectrum: false
XAxis mode: Wavelengths
Number of Pixels in Spectrum: 1024
>>>>>Begin Spectral Data<<<<<
801.071	27100
801.214	26925
801.356	26864
801.499	26773
801.641	26606
801.783	26609
801.926	26693
802.068	26648
802.211	26465
802.353	26617
802.496	26484
802.638	26374
802.78	26290
802.923	26294
803.065	26138
803.208	26267
803.35	26301
803.492	26377
803.635	26465
803.777	26355
803.919	26492
804.061	26792
804.204	26514
804.346	26396
804.488	26313
804.63	26343
804.773	26389
804.915	26492
805.057	26575
805.199	26305
805.341	26431
805.483	26579
805.626	26579
805.768	26488
805.91	26564
806.052	26526
806.194	26541
806.336	26636
806.478	26549
806.62	26556
806.762	26564
806.904	26754
807.046	26967
807.188	26963
807.33	26887
807.472	27036
807.614	26819
807.756	26777
807.898	26804
808.04	26788
808.182	26739
808.324	26667
808.465	26705
808.607	27047
808.749	27062
808.891	27203
809.033	27325
809.174	27370
809.316	27131
809.458	27192
809.6	27070
809.741	27222
809.883	27237
810.025	27313
810.166	27382
810.308	27583
810.45	27291
810.591	27218
810.733	27096
810.875	27108
811.016	27058
811.158	27009
811.299	27374
811.441	27123
811.582	27184
811.724	27203
811.865	27066
812.007	27005
812.148	27013
812.29	27131
812.431	27279
812.573	27389
812.714	27367
812.855	27568
812.997	27675
813.138	27873
813.279	27785
813.421	27610
813.562	27583
813.703	27477
813.845	27207
813.986	27074
814.127	26952
814.268	26777
814.41	26811
814.551	26735
814.692	26891
814.833	26792
814.974	26606
815.115	26872
815.256	26602
815.397	26663
815.539	26598
815.68	26469
815.821	26495
815.962	26583
816.103	26381
816.244	26233
816.385	26358
816.526	26366
816.666	26187
816.807	26008
816.948	26153
817.089	26210
817.23	26096
817.371	26031
817.512	26130
817.653	26153
817.793	25959
817.934	26012
818.075	26005
818.216	26115
818.356	25932
818.497	25917
818.638	25746
818.778	25803
818.919	25841
819.06	25879
819.2	25913
819.341	26031
819.481	25959
819.622	26092
819.762	26286
819.903	26183
820.043	26183
820.184	26039
820.324	26107
820.465	26100
820.605	26039
820.746	26168
820.886	26050
821.026	26084
821.167	26001
821.307	26077
821.447	26031
821.588	25841
821.728	25784
821.868	25658
822.008	25537
822.149	25571
822.289	25430
822.429	25206
822.569	25202
822.709	25179
822.849	24977
822.99	25004
823.13	24897
823.27	25000
823.41	24856
823.55	24757
823.69	24776
823.83	24882
823.97	24825
824.11	24551
824.25	24570
824.389	24631
824.529	24555
824.669	24620
824.809	24726
824.949	24677
825.089	24669
825.228	24745
825.368	24376
825.508	24452
825.648	24578
825.787	24669
825.927	24623
826.067	24437
826.206	24532
826.346	24505
826.485	24509
826.625	24460
826.765	24525
826.904	24479
827.044	24426
827.183	24163
827.323	24296
827.462	24224
827.601	24216
827.741	24194
827.88	24346
828.02	24018
828.159	24091
828.298	24277
828.437	24270
828.577	24251
828.716	24254
828.855	24068
828.994	23942
829.134	23935
829.273	23923
829.412	23870
829.551	23790
829.69	23866
829.829	23965
829.968	23904
830.107	23999
830.246	23999
830.385	23798
830.524	23882
830.663	23764
830.802	23657
830.941	23615
831.08	23459
831.219	23676
831.357	23634
831.496	23668
831.635	23455
831.774	23322
831.913	23455
832.051	23216
832.19	23322
832.329	23398
832.467	23235
832.606	23189
832.744	23067
832.883	23136
833.022	23086
833.16	23174
833.299	23299
833.437	23296
833.576	23212
833.714	23197
833.852	23318
833.991	23181
834.129	23360
834.267	23216
834.406	23345
834.544	23421
834.682	23337
834.821	23204
834.959	23429
835.097	23292
835.235	23223
835.373	23368
835.511	23231
835.65	23170
835.788	23067
835.926	22995
836.064	23018
836.202	22965
836.34	23075
836.478	23166
836.615	23121
836.753	23143
836.891	23227
837.029	23056
837.167	22991
837.305	23056
837.443	22984
837.58	22942
837.718	23025
837.856	23022
837.993	22896
838.131	22961
838.269	22774
838.406	22839
838.544	22778
838.681	22660
838.819	22660
838.956	22409
839.094	22504
839.231	22440
839.369	22637
839.506	22843
839.643	22675
839.781	22440
839.918	22363
840.055	22485
840.193	22504
840.33	22322
840.467	22356
840.604	22504
840.742	22641
840.879	22185
841.016	22360
841.153	22234
841.29	22459
841.427	22344
841.564	22466
841.701	22348
841.838	22322
841.975	22367
842.112	22409
842.249	22329
842.385	22070
842.522	22405
842.659	22246
842.796	22120
842.933	22150
843.069	22082
843.206	22025
843.343	22169
843.479	22093
843.616	22219
843.752	21918
843.889	21892
844.025	22044
844.162	21907
844.298	21972
844.435	21926
844.571	21835
844.708	22002
844.844	22086
844.98	21979
845.117	22036
845.253	21743
845.389	21808
845.525	21895
845.661	21724
845.798	21652
845.934	21728
846.07	21641
846.206	21641
846.342	21732
846.478	21641
846.614	21466
846.75	21275
846.886	21397
847.022	21447
847.158	21412
847.294	21439
847.429	21344
847.565	21313
847.701	21591
847.837	21154
847.972	21100
848.108	21116
848.244	21275
848.379	21032
848.515	20990
848.65	20937
848.786	21028
848.921	21070
849.057	21009
849.192	21123
849.328	21051
849.463	20910
849.598	20880
849.734	20876
849.869	20941
850.004	20849
850.14	20765
850.275	20712
850.41	20712
850.545	20682
850.68	20697
850.815	20746
850.95	20743
851.085	20887
851.22	20925
851.355	20648
851.49	20754
851.625	20621
851.76	20773
851.895	20571
852.03	20682
852.165	20758
852.299	20762
852.434	20807
852.569	20834
852.703	20689
852.838	20864
852.973	20891
853.107	20914
853.242	20773
853.376	20632
853.511	20366
853.645	20499
853.78	20815
853.914	20617
854.048	20480
854.183	20590
854.317	20602
854.451	20807
854.585	20632
854.72	20625
854.854	20571
854.988	20606
855.122	20465
855.256	20355
855.39	20606
855.524	20625
855.658	20617
855.792	20571
855.926	20556
856.06	20568
856.194	20651
856.327	20438
856.461	20427
856.595	20530
856.729	20396
856.862	20670
856.996	20598
857.13	20575
857.263	20629
857.397	20678
857.53	20583
857.664	20712
857.797	20625
857.931	20705
858.064	20587
858.197	20598
858.331	20568
858.464	20533
858.597	20374
858.731	20568
858.864	20473
858.997	20571
859.13	20533
859.263	20503
859.396	20609
859.529	20568
859.662	20541
859.795	20507
859.928	20549
860.061	20716
860.194	20788
860.327	20640
860.46	20556
860.592	20720
860.725	20739
860.858	20632
860.99	20590
861.123	20476
861.256	20522
861.388	20625
861.521	21081
861.653	20434
861.786	20446
861.918	20412
862.05	20434
862.183	20457
862.315	20522
862.447	20545
862.58	20590
862.712	20278
862.844	20313
862.976	20450
863.108	20465
863.24	20777
863.372	20336
863.504	20336
863.636	20271
863.768	20309
863.9	20218
864.032	20218
864.164	20115
864.296	20305
864.428	20446
864.559	20446
864.691	20393
864.823	20256
864.954	20168
865.086	20256
865.217	20271
865.349	20229
865.48	20183
865.612	20134
865.743	20339
865.875	20225
866.006	20142
866.137	20233
866.269	20240
866.4	20172
866.531	20012
866.662	20191
866.793	20210
866.924	20130
867.055	20259
867.186	20301
867.317	20084
867.448	19947
867.579	20065
867.71	20046
867.841	20153
867.972	20145
868.103	20168
868.233	20111
868.364	20153
868.495	20221
868.625	20355
868.756	20492
868.886	20313
869.017	20366
869.147	20537
869.278	20609
869.408	20412
869.539	20389
869.669	20465
869.799	20431
869.929	20541
870.06	20571
870.19	20731
870.32	20750
870.45	20765
870.58	20937
870.71	20891
870.84	20986
870.97	20963
871.1	20868
871.23	20910
871.36	21093
871.489	20948
871.619	21058
871.749	20998
871.879	21036
872.008	21146
872.138	21020
872.267	21062
872.397	20982
872.526	20788
872.656	20925
872.785	20743
872.915	21001
873.044	21058
873.173	21024
873.303	21043
873.432	21188
873.561	21165
873.69	21093
873.819	21074
873.948	21096
874.077	20982
874.206	20956
874.335	20998
874.464	21096
874.593	21264
874.722	21321
874.851	21252
874.979	21359
875.108	21420
875.237	21310
875.365	21218
875.494	21188
875.623	21367
875.751	21230
875.88	21264
876.008	21420
876.136	21507
876.265	21709
876.393	21930
876.521	21633
876.65	21835
876.778	21743
876.906	21656
877.034	21530
877.162	21755
877.29	21473
877.418	21656
877.546	21652
877.674	21587
877.802	21755
877.93	21580
878.058	21507
878.185	21679
878.313	21568
878.441	21534
878.568	21439
878.696	21545
878.824	21591
878.951	21739
879.079	21857
879.206	21899
879.333	21846
879.461	21713
879.588	21663
879.715	21838
879.842	21907
879.97	21785
880.097	21492
880.224	21359
880.351	21477
880.478	21439
880.605	21492
880.732	21515
880.859	21671
880.986	21374
881.112	21507
881.239	21408
881.366	21199
881.493	21207
881.619	20971
881.746	21024
881.872	21036
881.999	20944
882.125	20982
882.252	21020
882.378	20948
882.505	21135
882.631	20864
882.757	20720
882.883	20861
883.01	20727
883.136	20868
883.262	20617
883.388	20568
883.514	20716
883.64	20746
883.766	20640
883.892	20533
884.018	20480
884.143	20663
884.269	20921
884.395	20381
884.52	20332
884.646	20396
884.772	20461
884.897	20221
885.023	20400
885.148	20511
885.274	20583
885.399	20511
885.524	20400
885.65	20362
885.775	20400
885.9	20290
886.025	20575
886.15	20355
886.275	20267
886.4	20248
886.525	20343
886.65	20309
886.775	20248
886.9	20514
887.025	20568
887.149	20393
887.274	20252
887.399	20176
887.523	20263
887.648	20161
887.773	20100
887.897	20218
888.021	20202
888.146	20298
888.27	20244
888.395	20267
888.519	20176
888.643	20157
888.767	20320
888.891	20130
889.015	19936
889.139	20088
889.263	20134
889.387	20020
889.511	20172
889.635	20016
889.759	19932
889.883	19978
890.006	20016
890.13	20107
890.254	19947
890.377	19894
890.501	19731
890.624	19704
890.748	19753
890.871	19689
890.995	19499
891.118	19510
891.241	19578
891.364	19521
891.488	19731
891.611	19655
891.734	19578
891.857	19655
891.98	19453
892.103	19548
892.226	19597
892.349	19552
892.471	19316
892.594	19548
892.717	19609
892.839	19514
892.962	19567
893.085	19723
893.207	19491
893.33	19419
893.452	19365
893.575	19605
893.697	19441
893.819	19639
893.941	19647
894.064	19712
894.186	19438
894.308	19350
894.43	19544
894.552	19597
894.674	19544
894.796	19377
894.918	19518
895.04	19472
895.161	19601
895.283	19613
895.405	19369
895.526	19540
895.648	19468
895.769	19506
895.891	19571
896.012	19556
896.134	19552
896.255	19586
896.376	19434
896.498	19354
896.619	19438
896.74	19487
896.861	19628
896.982	19875
897.103	19959
897.224	19727
897.345	19727
897.466	19635
897.587	19769
897.708	19841
897.828	19776
897.949	19674
898.07	19582
898.19	19712
898.311	19780
898.431	19597
898.552	19708
898.672	19784
898.792	19879
898.913	19818
899.033	19468
899.153	19548
899.273	19441
899.393	19453
899.513	19476
899.633	19415
899.753	19480
899.873	19453
899.993	19468
900.113	19468
900.232	19476
900.352	19422
900.472	19354
900.591	19209
900.711	19278
900.83	19304
900.95	19472
901.069	19278
901.189	19046
901.308	18916
901.427	18859
901.546	18863
901.665	18890
901.784	18935
901.904	18711
902.023	18696
902.141	18426
902.26	18384
902.379	18433
902.498	18380
902.617	18330
902.735	18407
902.854	18372
902.973	18224
903.091	18220
903.21	17965
903.328	18045
903.446	17889
903.565	17996
903.683	17870
903.801	17695
903.919	17908
904.038	17802
904.156	17672
904.274	17707
904.392	17577
904.51	17615
904.627	17604
904.745	17668
904.863	17615
904.981	17414
905.098	17383
905.216	17250
905.334	17349
905.451	17341
905.569	17345
905.686	17254
905.803	17250
905.921	17022
906.038	17181
906.155	17098
906.272	17014
906.389	17094
906.506	16984
906.623	16889
906.74	16869
906.857	16729
906.974	16812
907.091	16900
907.208	16957
907.324	16889
907.441	16759
907.557	16618
907.674	16592
907.79	16527
907.907	16516
908.023	16565
908.139	16592
908.256	16481
908.372	16489
908.488	16474
908.604	16405
908.72	16238
908.836	16249
908.952	16276
909.068	16333
909.184	16424
909.3	16207
909.415	16348
909.531	16303
909.647	16017
909.762	16002
909.878	16051
909.993	15998
910.108	15941
910.224	15926
910.339	15972
910.454	15880
910.57	15861
910.685	15743
910.8	16036
910.915	15968
911.03	15869
911.145	15614
911.259	15580
911.374	15610
911.489	15492
911.604	15428
911.718	15275
911.833	15336
911.947	15252
912.062	15241
912.176	15374
912.291	15450
912.405	15458
912.519	15641
912.633	15580
912.748	15420
912.862	15374
912.976	15176
913.09	15085
913.204	15058
913.318	15222
913.431	15237
913.545	15218
913.659	15344
913.772	15237
913.886	15020
914	14952
914.113	15001
914.226	15093
914.34	15062
914.453	14876
914.566	14990
914.68	14937
914.793	14796
914.906	14640
915.019	14590
915.132	14594
915.245	14610
915.358	14697
915.47	14587
915.583	14632
915.696	14644
915.809	14610
915.921	14693
916.034	14507
916.146	14590
916.259	14526
916.371	14583
916.483	14568
916.595	14549
916.708	14419
916.82	14454
916.932	14393
917.044	14431
917.156	14396
917.268	14370
917.38	14225
917.491	14187
917.603	14267
917.715	14377
917.826	14248
917.938	14229
918.049	14214
918.161	14240
918.272	14366
918.384	14294
918.495	14263
918.606	14138
918.717	13997
918.828	14111
918.939	14126
919.05	13963
919.161	14035
919.272	13944
919.383	13879
919.494	14168
919.604	14191
919.715	14054
919.826	13936
919.936	13974
920.047	14069
920.157	14081
920.267	14225
920.378	14100
920.488	14024
920.598	14229
920.708	14210
920.818	14130
920.928	14161
921.038	14317
921.148	14278
921.258	13974
921.368	13940
921.477	13818
921.587	13803
921.697	13639
921.806	13765
921.916	13624
922.025	13548
922.134	13419
922.244	13449
922.353	13445
922.462	13308
922.571	13282
922.68	13152
922.789	13072
922.898	13065
923.007	13034
923.116	13129
923.224	13042
923.333	13012
923.442	12943
923.55	12920
923.659	12882
923.767	13061
923.876	12840
923.984	12993
924.092	12840
924.201	12890
924.309	12916
924.417	12856
924.525	12833
924.633	12749
924.741	13712
924.849	12570
924.956	12722
925.064	12555
925.172	12471
925.279	12502
925.387	12585
925.494	12471
925.602	12642
925.709	12536
925.816	12346
925.924	12544
926.031	12551
926.138	12517
926.245	12574
926.352	12319
926.459	12494
926.566	12502
926.673	12399
926.779	12304
926.886	12258
926.993	12117
927.099	12175
927.206	12133
927.312	12098
927.419	12178
927.525	12049
927.631	12144
927.737	11965
927.843	11992
927.95	11809
928.056	11965
928.162	11889
928.267	11992
928.373	12551
928.479	12030
928.585	11676
928.69	11927
928.796	11893
928.901	11843
929.007	11691
929.112	11764
929.218	11764
929.323	11726
929.428	11638
929.533	11794
929.638	11619
929.743	11619
929.848	11714
929.953	11558
930.058	11570
930.163	11292
930.267	11337
930.372	11532
930.477	11296
930.581	11566
930.685	11387
930.79	11265
930.894	11379
930.998	11193
931.103	11322
931.207	11033
931.311	10911
931.415	10847
931.519	10763
931.623	10672
