Data from test_V78500241_2017.txt Node
Date: Fri Mar 25 15:23:54 CST 2022
User: usil
Spectrometer: V785-0024
Trigger mode: 0
Integration Time (sec): 4.000000E-1
Scans to average: 1
Nonlinearity correction enabled: false
Boxcar width: 0
Storing dark spectrum: false
XAxis mode: Wavelengths
Number of Pixels in Spectrum: 1024
>>>>>Begin Spectral Data<<<<<
801.071	27675
801.214	27690
801.356	27500
801.499	27481
801.641	27344
801.783	27275
801.926	27462
802.068	27355
802.211	27298
802.353	27287
802.496	27017
802.638	26910
802.78	26952
802.923	26902
803.065	26815
803.208	26868
803.35	27005
803.492	27176
803.635	27249
803.777	27116
803.919	27138
804.061	27580
804.204	27272
804.346	27161
804.488	27081
804.63	27211
804.773	27150
804.915	27096
805.057	27184
805.199	27089
805.341	27230
805.483	27252
805.626	27382
805.768	27237
805.91	27291
806.052	27348
806.194	27180
806.336	27443
806.478	27386
806.62	27211
806.762	27435
806.904	27603
807.046	27804
807.188	27675
807.33	27747
807.472	27720
807.614	27644
807.756	27739
807.898	27572
808.04	27488
808.182	27393
808.324	27625
808.465	27583
808.607	27865
808.749	27869
808.891	27922
809.033	27911
809.174	28002
809.316	27876
809.458	27899
809.6	28002
809.741	28070
809.883	28055
810.025	28139
810.166	28284
810.308	28265
810.45	28128
810.591	28074
810.733	27953
810.875	27983
811.016	27751
811.158	27774
811.299	27956
811.441	27956
811.582	27983
811.724	27808
811.865	27854
812.007	27861
812.148	27873
812.29	27975
812.431	28082
812.573	28109
812.714	28401
812.855	28584
812.997	28466
813.138	28717
813.279	28565
813.421	28481
813.562	28341
813.703	28204
813.845	28154
813.986	27998
814.127	27823
814.268	27538
814.41	27618
814.551	27644
814.692	27774
814.833	27511
814.974	27591
815.115	27759
815.256	27389
815.397	27431
815.539	27485
815.68	27386
815.821	27466
815.962	27496
816.103	27378
816.244	27211
816.385	27119
816.526	27146
816.666	27051
816.807	26902
816.948	26933
817.089	27165
817.23	27009
817.371	26807
817.512	26849
817.653	26906
817.793	26918
817.934	26785
818.075	26838
818.216	26933
818.356	26914
818.497	26549
818.638	26644
818.778	26545
818.919	26708
819.06	26720
819.2	26739
819.341	26861
819.481	27009
819.622	27081
819.762	27256
819.903	27070
820.043	26918
820.184	27036
820.324	27024
820.465	26906
820.605	26975
820.746	26994
820.886	26796
821.026	26956
821.167	26986
821.307	26899
821.447	26842
821.588	26895
821.728	26674
821.868	26568
822.008	26518
822.149	26298
822.289	26362
822.429	26103
822.569	26005
822.709	26046
822.849	25978
822.99	25940
823.13	25723
823.27	25712
823.41	25651
823.55	25696
823.69	25632
823.83	25784
823.97	25731
824.11	25324
824.25	25460
824.389	25544
824.529	25563
824.669	25632
824.809	25563
824.949	25628
825.089	25689
825.228	25655
825.368	25369
825.508	25335
825.648	25415
825.787	25506
825.927	25426
826.067	25381
826.206	25464
826.346	25510
826.485	25472
826.625	25324
826.765	25479
826.904	25304
827.044	25175
827.183	25141
827.323	25072
827.462	25236
827.601	25183
827.741	25091
827.88	25114
828.02	25076
828.159	24962
828.298	25137
828.437	25175
828.577	25023
828.716	25209
828.855	25027
828.994	24913
829.134	24829
829.273	24829
829.412	24848
829.551	24684
829.69	24954
829.829	24825
829.968	24833
830.107	24844
830.246	24829
830.385	24776
830.524	24673
830.663	24544
830.802	24551
830.941	24479
831.08	24350
831.219	24437
831.357	24505
831.496	24749
831.635	24327
831.774	24395
831.913	24395
832.051	24247
832.19	24235
832.329	24190
832.467	24228
832.606	24110
832.744	24171
832.883	24144
833.022	24171
833.16	24133
833.299	24121
833.437	24228
833.576	24224
833.714	24292
833.852	24129
833.991	24205
834.129	24262
834.267	24140
834.406	24296
834.544	24178
834.682	24197
834.821	24057
834.959	24311
835.097	24136
835.235	24182
835.373	24186
835.511	24030
835.65	24049
835.788	23999
835.926	23901
836.064	23874
836.202	23843
836.34	23923
836.478	24076
836.615	23824
836.753	24083
836.891	24045
837.029	24072
837.167	23923
837.305	23923
837.443	23980
837.58	23878
837.718	23908
837.856	23870
837.993	23752
838.131	23821
838.269	23718
838.406	23566
838.544	23672
838.681	23558
838.819	23417
838.956	23360
839.094	23376
839.231	23356
839.369	23455
839.506	23783
839.643	23551
839.781	23166
839.918	23254
840.055	23265
840.193	23231
840.33	23231
840.467	23178
840.604	23299
840.742	23448
840.879	23140
841.016	23200
841.153	23052
841.29	23250
841.427	23204
841.564	23265
841.701	23189
841.838	23113
841.975	23124
842.112	23109
842.249	23022
842.385	22873
842.522	23166
842.659	23006
842.796	22938
842.933	23029
843.069	22877
843.206	22862
843.343	23075
843.479	23006
843.616	22930
843.752	22793
843.889	22767
844.025	22896
844.162	22816
844.298	22771
844.435	22733
844.571	22816
844.708	22816
844.844	22911
844.98	22953
845.117	22767
845.253	22592
845.389	22436
845.525	22626
845.661	22611
845.798	22428
845.934	22538
846.07	22489
846.206	22584
846.342	22588
846.478	22493
846.614	22398
846.75	22169
846.886	22211
847.022	22192
847.158	22207
847.294	22105
847.429	22295
847.565	22280
847.701	22516
847.837	21964
847.972	21975
848.108	21918
848.244	22051
848.379	21804
848.515	21743
848.65	21854
848.786	21842
848.921	21869
849.057	21987
849.192	21831
849.328	21892
849.463	21869
849.598	21915
849.734	21732
849.869	21663
850.004	21576
850.14	21614
850.275	21648
850.41	21488
850.545	21610
850.68	21519
850.815	21682
850.95	21542
851.085	21762
851.22	21614
851.355	21800
851.49	21568
851.625	21583
851.76	21458
851.895	21504
852.03	21511
852.165	21542
852.299	21561
852.434	21519
852.569	21614
852.703	21431
852.838	21637
852.973	21732
853.107	21629
853.242	21549
853.376	21332
853.511	21435
853.645	21386
853.78	21454
853.914	21458
854.048	21393
854.183	21408
854.317	21515
854.451	21637
854.585	21401
854.72	21386
854.854	21511
854.988	21233
855.122	21447
855.256	21226
855.39	21348
855.524	21526
855.658	21374
855.792	21405
855.926	21344
856.06	21348
856.194	21542
856.327	21447
856.461	21462
856.595	21363
856.729	21336
856.862	21610
856.996	21454
857.13	21450
857.263	21420
857.397	21515
857.53	21435
857.664	21545
857.797	21488
857.931	21557
858.064	21435
858.197	21473
858.331	21317
858.464	21370
858.597	21272
858.731	21405
858.864	21382
858.997	21367
859.13	21435
859.263	21462
859.396	21526
859.529	21302
859.662	21378
859.795	21252
859.928	21355
860.061	21660
860.194	21568
860.327	21416
860.46	21386
860.592	21553
860.725	21545
860.858	21618
860.99	21412
861.123	21256
861.256	21359
861.388	21142
861.521	22048
861.653	21264
861.786	21245
861.918	21116
862.05	21195
862.183	21310
862.315	21332
862.447	21336
862.58	21332
862.712	21184
862.844	20990
862.976	21195
863.108	21340
863.24	21443
863.372	21001
863.504	21135
863.636	21131
863.768	21138
863.9	21093
864.032	21036
864.164	21036
864.296	21252
864.428	21176
864.559	21230
864.691	21180
864.823	21116
864.954	21214
865.086	21077
865.217	21028
865.349	20883
865.48	20849
865.612	20895
865.743	21176
865.875	20994
866.006	20914
866.137	21005
866.269	21062
866.4	20975
866.531	20834
866.662	20925
866.793	20967
866.924	20834
867.055	21055
867.186	20838
867.317	20891
867.448	20815
867.579	20967
867.71	20864
867.841	20906
867.972	20944
868.103	20887
868.233	20944
868.364	20979
868.495	20948
868.625	21161
868.756	21310
868.886	21066
869.017	21108
869.147	21310
869.278	21230
869.408	21249
869.539	21188
869.669	21203
869.799	21211
869.929	21252
870.06	21283
870.19	21534
870.32	21389
870.45	21469
870.58	21538
870.71	21629
870.84	21652
870.97	21526
871.1	21599
871.23	21656
871.36	21618
871.489	21701
871.619	21774
871.749	21743
871.879	21766
872.008	21793
872.138	21770
872.267	21789
872.397	21686
872.526	21705
872.656	21622
872.785	21557
872.915	21789
873.044	21835
873.173	21747
873.303	21823
873.432	21857
873.561	21956
873.69	21766
873.819	21880
873.948	21835
874.077	21850
874.206	21857
874.335	21793
874.464	21991
874.593	22002
874.722	21964
874.851	22025
874.979	22143
875.108	22040
875.237	21876
875.365	21895
875.494	21937
875.623	21994
875.751	22002
875.88	21983
876.008	22200
876.136	22303
876.265	22485
876.393	22542
876.521	22508
876.65	22542
876.778	22443
876.906	22303
877.034	22421
877.162	22280
877.29	22196
877.418	22386
877.546	22382
877.674	22432
877.802	22421
877.93	22295
878.058	22310
878.185	22215
878.313	22147
878.441	22314
878.568	22192
878.696	22322
878.824	22363
878.951	22375
879.079	22436
879.206	22679
879.333	22405
879.461	22367
879.588	22466
879.715	22459
879.842	22599
879.97	22447
880.097	22166
880.224	22150
880.351	22147
880.478	22219
880.605	22192
880.732	22211
880.859	22375
880.986	22253
881.112	22204
881.239	22090
881.366	21991
881.493	21869
881.619	21717
881.746	21743
881.872	21827
881.999	21724
882.125	21679
882.252	21720
882.378	21759
882.505	21770
882.631	21572
882.757	21389
882.883	21610
883.01	21405
883.136	21431
883.262	21428
883.388	21294
883.514	21374
883.64	21492
883.766	21325
883.892	21252
884.018	21275
884.143	21355
884.269	21359
884.395	21123
884.52	21100
884.646	21062
884.772	21047
884.897	20967
885.023	21154
885.148	21192
885.274	21188
885.399	21165
885.524	21096
885.65	21146
885.775	21116
885.9	21058
886.025	21142
886.15	21283
886.275	21005
886.4	20925
886.525	21146
886.65	21062
886.775	21157
886.9	21150
887.025	21157
887.149	21131
887.274	20826
887.399	20815
887.523	20853
887.648	20796
887.773	20712
887.897	21013
888.021	20842
888.146	20826
888.27	21005
888.395	20944
888.519	20918
888.643	20880
888.767	20876
888.891	20815
889.015	20609
889.139	20754
889.263	20674
889.387	20682
889.511	20792
889.635	20792
889.759	20701
889.883	20522
890.006	20788
890.13	20861
890.254	20636
890.377	20545
890.501	20358
890.624	20362
890.748	20355
890.871	20278
890.995	20271
891.118	20199
891.241	20210
891.364	20199
891.488	20419
891.611	20218
891.734	20305
891.857	20324
891.98	20244
892.103	20229
892.226	20130
892.349	20168
892.471	19989
892.594	20092
892.717	20252
892.839	20138
892.962	20084
893.085	20126
893.207	20119
893.33	20096
893.452	20062
893.575	20278
893.697	20134
893.819	20328
893.941	20294
894.064	20218
894.186	20073
894.308	20084
894.43	20366
894.552	20286
894.674	20130
894.796	20107
894.918	19993
895.04	20115
895.161	20202
895.283	20164
895.405	20065
895.526	20138
895.648	20069
895.769	20130
895.891	20244
896.012	20332
896.134	20206
896.255	20111
896.376	20046
896.498	20176
896.619	20206
896.74	20081
896.861	20214
896.982	20492
897.103	20617
897.224	20385
897.345	20377
897.466	20263
897.587	20317
897.708	20495
897.828	20412
897.949	20180
898.07	20122
898.19	20294
898.311	20332
898.431	20328
898.552	20313
898.672	20457
898.792	20423
898.913	20461
899.033	20176
899.153	20157
899.273	20065
899.393	19978
899.513	20084
899.633	20077
899.753	20161
899.873	20054
899.993	20149
900.113	19921
900.232	20012
900.352	19989
900.472	19963
900.591	19849
900.711	19845
900.83	19757
900.95	19940
901.069	19909
901.189	19780
901.308	19476
901.427	19388
901.546	19434
901.665	19304
901.784	19533
901.904	19327
902.023	19202
902.141	19038
902.26	18924
902.379	19065
902.498	18996
902.617	18928
902.735	19012
902.854	18856
902.973	18817
903.091	18521
903.21	18616
903.328	18665
903.446	18566
903.565	18525
903.683	18437
903.801	18323
903.919	18304
904.038	18277
904.156	18220
904.274	18372
904.392	18247
904.51	18155
904.627	18159
904.745	18174
904.863	18209
904.981	18007
905.098	17790
905.216	17942
905.334	17851
905.451	17885
905.569	17790
905.686	17954
905.803	17802
905.921	17729
906.038	17737
906.155	17756
906.272	17581
906.389	17551
906.506	17433
906.623	17414
906.74	17448
906.857	17307
906.974	17299
907.091	17440
907.208	17539
907.324	17337
907.441	17345
907.557	17113
907.674	17166
907.79	17033
907.907	17128
908.023	17151
908.139	17136
908.256	17064
908.372	16972
908.488	17006
908.604	16877
908.72	16919
908.836	16774
908.952	16748
909.068	16854
909.184	16797
909.3	16869
909.415	16805
909.531	16877
909.647	16748
909.762	16584
909.878	16481
909.993	16504
910.108	16675
910.224	16546
910.339	16542
910.454	16337
910.57	16348
910.685	16325
910.8	16607
910.915	16432
911.03	16287
911.145	16242
911.259	16105
911.374	16158
911.489	16055
911.604	16002
911.718	15972
911.833	15903
911.947	15804
912.062	15667
912.176	15934
912.291	15911
912.405	15831
912.519	16063
912.633	16013
912.748	15918
912.862	15816
912.976	15846
913.09	15633
913.204	15648
913.318	15705
913.431	15778
913.545	15869
913.659	15732
913.772	15660
913.886	15530
914	15469
914.113	15557
914.226	15595
914.34	15603
914.453	15439
914.566	15534
914.68	15351
914.793	15351
914.906	15169
915.019	15188
915.132	15036
915.245	15146
915.358	15154
915.47	15127
915.583	15097
915.696	15199
915.809	15173
915.921	15199
916.034	15051
916.146	15150
916.259	14998
916.371	15123
916.483	14960
916.595	14914
916.708	14982
916.82	15039
916.932	14845
917.044	14891
917.156	14796
917.268	14705
917.38	14826
917.491	14655
917.603	14781
917.715	14792
917.826	14785
917.938	14689
918.049	14541
918.161	14655
918.272	14834
918.384	14838
918.495	14743
918.606	14514
918.717	14492
918.828	14659
918.939	14530
919.05	14473
919.161	14530
919.272	14328
919.383	14465
919.494	14556
919.604	14720
919.715	14492
919.826	14427
919.936	14457
920.047	14537
920.157	14549
920.267	14663
920.378	14526
920.488	14499
920.598	14613
920.708	14735
920.818	14629
920.928	14594
921.038	14762
921.148	14735
921.258	14366
921.368	14305
921.477	14305
921.587	14256
921.697	14145
921.806	14229
921.916	14054
922.025	13967
922.134	13868
922.244	13784
922.353	13940
922.462	13658
922.571	13643
922.68	13575
922.789	13457
922.898	13533
923.007	13514
923.116	13567
923.224	13499
923.333	13453
923.442	13400
923.55	13324
923.659	13297
923.767	13449
923.876	13228
923.984	13419
924.092	13202
924.201	13316
924.309	13209
924.417	13217
924.525	13206
924.633	13179
924.741	13989
924.849	12924
924.956	13069
925.064	12856
925.172	12897
925.279	12882
925.387	12848
925.494	12951
925.602	13076
925.709	12932
925.816	12806
925.924	12943
926.031	13000
926.138	12814
926.245	12901
926.352	12692
926.459	12935
926.566	12939
926.673	12757
926.779	12696
926.886	12745
926.993	12601
927.099	12555
927.206	12460
927.312	12448
927.419	12566
927.525	12490
927.631	12544
927.737	12429
927.843	12262
927.95	12239
928.056	12266
928.162	12429
928.267	12330
928.373	12886
928.479	12380
928.585	12083
928.69	12300
928.796	12281
928.901	12098
929.007	12019
929.112	12175
929.218	12110
929.323	12117
929.428	12003
929.533	12224
929.638	11893
929.743	11977
929.848	11946
929.953	11977
930.058	11969
930.163	11729
930.267	11760
930.372	11870
930.477	11680
930.581	11958
930.685	11802
930.79	11596
930.894	11657
930.998	11627
931.103	11699
931.207	11383
931.311	11280
931.415	11220
931.519	11064
931.623	11060
