Data from test_V78500241_3609.txt Node
Date: Fri Mar 25 15:34:59 CST 2022
User: usil
Spectrometer: V785-0024
Trigger mode: 0
Integration Time (sec): 4.000000E-1
Scans to average: 1
Nonlinearity correction enabled: false
Boxcar width: 0
Storing dark spectrum: false
XAxis mode: Wavelengths
Number of Pixels in Spectrum: 1024
>>>>>Begin Spectral Data<<<<<
801.071	27504
801.214	27344
801.356	27157
801.499	27039
801.641	26899
801.783	26948
801.926	26994
802.068	26853
802.211	26792
802.353	26743
802.496	26686
802.638	26674
802.78	26393
802.923	26427
803.065	26309
803.208	26484
803.35	26674
803.492	26648
803.635	26758
803.777	26469
803.919	26705
804.061	27100
804.204	26830
804.346	26644
804.488	26530
804.63	26651
804.773	26640
804.915	26689
805.057	26769
805.199	26708
805.341	26804
805.483	26880
805.626	26933
805.768	26785
805.91	26868
806.052	26918
806.194	26670
806.336	26868
806.478	26792
806.62	26727
806.762	27028
806.904	27119
807.046	27294
807.188	27230
807.33	27104
807.472	27332
807.614	27058
807.756	27207
807.898	27161
808.04	27009
808.182	27070
808.324	27116
808.465	27119
808.607	27142
808.749	27435
808.891	27393
809.033	27572
809.174	27454
809.316	27389
809.458	27458
809.6	27291
809.741	27447
809.883	27538
810.025	27591
810.166	27561
810.308	27637
810.45	27561
810.591	27545
810.733	27454
810.875	27435
811.016	27359
811.158	27386
811.299	27454
811.441	27515
811.582	27595
811.724	27348
811.865	27393
812.007	27405
812.148	27291
812.29	27363
812.431	27637
812.573	27675
812.714	27937
812.855	27873
812.997	27979
813.138	28150
813.279	28029
813.421	27953
813.562	27812
813.703	27663
813.845	27675
813.986	27431
814.127	27085
814.268	27074
814.41	27138
814.551	27039
814.692	27123
814.833	27123
814.974	26979
815.115	27146
815.256	26956
815.397	27036
815.539	26891
815.68	26785
815.821	26701
815.962	26777
816.103	26849
816.244	26693
816.385	26864
816.526	26609
816.666	26408
816.807	26317
816.948	26339
817.089	26499
817.23	26214
817.371	26366
817.512	26161
817.653	26256
817.793	26168
817.934	26374
818.075	26374
818.216	26221
818.356	26252
818.497	26218
818.638	26096
818.778	26183
818.919	26111
819.06	26062
819.2	26142
819.341	26343
819.481	26294
819.622	26385
819.762	26720
819.903	26727
820.043	26488
820.184	26396
820.324	26518
820.465	26423
820.605	26461
820.746	26408
820.886	26374
821.026	26415
821.167	26339
821.307	26434
821.447	26362
821.588	26263
821.728	26081
821.868	25947
822.008	25803
822.149	25814
822.289	25765
822.429	25635
822.569	25483
822.709	25575
822.849	25304
822.99	25426
823.13	25274
823.27	25259
823.41	25209
823.55	25038
823.69	25061
823.83	25126
823.97	25175
824.11	25004
824.25	24821
824.389	24962
824.529	25095
824.669	24897
824.809	25050
824.949	24939
825.089	25000
825.228	24875
825.368	24791
825.508	24681
825.648	24867
825.787	24802
825.927	24882
826.067	24833
826.206	24863
826.346	24863
826.485	24871
826.625	24840
826.765	24897
826.904	24821
827.044	24627
827.183	24540
827.323	24597
827.462	24635
827.601	24593
827.741	24494
827.88	24612
828.02	24308
828.159	24429
828.298	24445
828.437	24570
828.577	24490
828.716	24627
828.855	24410
828.994	24262
829.134	24197
829.273	24178
829.412	24106
829.551	24163
829.69	24194
829.829	24277
829.968	24418
830.107	24281
830.246	24346
830.385	24194
830.524	24064
830.663	24041
830.802	23786
830.941	23843
831.08	23786
831.219	23935
831.357	23980
831.496	24049
831.635	23882
831.774	23802
831.913	23737
832.051	23680
832.19	23687
832.329	23608
832.467	23562
832.606	23535
832.744	23501
832.883	23585
833.022	23543
833.16	23566
833.299	23661
833.437	23585
833.576	23684
833.714	23623
833.852	23585
833.991	23767
834.129	23657
834.267	23642
834.406	23528
834.544	23680
834.682	23627
834.821	23668
834.959	23882
835.097	23486
835.235	23722
835.373	23490
835.511	23539
835.65	23516
835.788	23539
835.926	23288
836.064	23398
836.202	23391
836.34	23429
836.478	23471
836.615	23459
836.753	23383
836.891	23490
837.029	23349
837.167	23292
837.305	23364
837.443	23292
837.58	23269
837.718	23383
837.856	23448
837.993	23277
838.131	23212
838.269	23185
838.406	23212
838.544	23159
838.681	22984
838.819	22869
838.956	22744
839.094	22717
839.231	22843
839.369	22942
839.506	23269
839.643	23041
839.781	22721
839.918	22801
840.055	22801
840.193	22733
840.33	22672
840.467	22782
840.604	22778
840.742	22934
840.879	22618
841.016	22637
841.153	22523
841.29	22774
841.427	22713
841.564	22649
841.701	22793
841.838	22630
841.975	22702
842.112	22630
842.249	22634
842.385	22409
842.522	22653
842.659	22561
842.796	22546
842.933	22550
843.069	22382
843.206	22542
843.343	22573
843.479	22451
843.616	22409
843.752	22162
843.889	22238
844.025	22280
844.162	22268
844.298	22424
844.435	22341
844.571	22166
844.708	22219
844.844	22348
844.98	22489
845.117	22382
845.253	22306
845.389	22162
845.525	22162
845.661	22070
845.798	21991
845.934	21968
846.07	21945
846.206	21975
846.342	22063
846.478	21937
846.614	21880
846.75	21751
846.886	21736
847.022	21797
847.158	21804
847.294	21770
847.429	21766
847.565	21694
847.701	22006
847.837	21485
847.972	21412
848.108	21614
848.244	21530
848.379	21488
848.515	21298
848.65	21287
848.786	21329
848.921	21389
849.057	21450
849.192	21439
849.328	21428
849.463	21287
849.598	21302
849.734	21119
849.869	21131
850.004	21032
850.14	21047
850.275	21020
850.41	21077
850.545	21123
850.68	20998
850.815	21131
850.95	21074
851.085	21302
851.22	21192
851.355	21085
851.49	20963
851.625	20971
851.76	21055
851.895	21032
852.03	20994
852.165	21032
852.299	20990
852.434	21249
852.569	21173
852.703	21222
852.838	21100
852.973	21245
853.107	21131
853.242	21089
853.376	21062
853.511	20746
853.645	20887
853.78	21032
853.914	20906
854.048	20960
854.183	20895
854.317	20906
854.451	21104
854.585	20975
854.72	20925
854.854	21070
854.988	20800
855.122	20872
855.256	20845
855.39	20963
855.524	20948
855.658	20948
855.792	20941
855.926	20815
856.06	20933
856.194	21043
856.327	20952
856.461	20811
856.595	20853
856.729	20864
856.862	21047
856.996	21017
857.13	21058
857.263	21043
857.397	20982
857.53	20906
857.664	20948
857.797	20994
857.931	21058
858.064	20864
858.197	20914
858.331	20861
858.464	20834
858.597	20750
858.731	20910
858.864	20861
858.997	20883
859.13	20914
859.263	20902
859.396	21096
859.529	20845
859.662	20906
859.795	20857
859.928	20887
860.061	21032
860.194	21112
860.327	20979
860.46	20941
860.592	20933
860.725	21051
860.858	21028
860.99	20754
861.123	20746
861.256	20796
861.388	20838
861.521	21743
861.653	20769
861.786	20819
861.918	20739
862.05	20785
862.183	20868
862.315	20910
862.447	20891
862.58	20861
862.712	20667
862.844	20518
862.976	20693
863.108	20796
863.24	20887
863.372	20492
863.504	20617
863.636	20587
863.768	20708
863.9	20556
864.032	20670
864.164	20678
864.296	20667
864.428	20754
864.559	20651
864.691	20720
864.823	20556
864.954	20518
865.086	20594
865.217	20602
865.349	20499
865.48	20564
865.612	20636
865.743	20670
865.875	20511
866.006	20389
866.137	20526
866.269	20571
866.4	20495
866.531	20423
866.662	20419
866.793	20480
866.924	20480
867.055	20560
867.186	20457
867.317	20488
867.448	20347
867.579	20469
867.71	20450
867.841	20446
867.972	20495
868.103	20526
868.233	20434
868.364	20587
868.495	20560
868.625	20708
868.756	20769
868.886	20575
869.017	20686
869.147	20807
869.278	20716
869.408	20754
869.539	20636
869.669	20781
869.799	20758
869.929	20796
870.06	20883
870.19	21085
870.32	21020
870.45	21066
870.58	21207
870.71	21211
870.84	21291
870.97	21192
871.1	21173
871.23	21355
871.36	21348
871.489	21226
871.619	21313
871.749	21397
871.879	21370
872.008	21473
872.138	21294
872.267	21294
872.397	21142
872.526	21154
872.656	21135
872.785	21013
872.915	21378
873.044	21359
873.173	21359
873.303	21336
873.432	21431
873.561	21454
873.69	21458
873.819	21378
873.948	21492
874.077	21260
874.206	21268
874.335	21279
874.464	21408
874.593	21622
874.722	21435
874.851	21545
874.979	21572
875.108	21599
875.237	21572
875.365	21420
875.494	21549
875.623	21595
875.751	21561
875.88	21587
876.008	21633
876.136	21747
876.265	22029
876.393	22124
876.521	22021
876.65	22010
876.778	22017
876.906	22055
877.034	21831
877.162	21873
877.29	21774
877.418	21930
877.546	21876
877.674	21975
877.802	21918
877.93	21892
878.058	21903
878.185	21911
878.313	21930
878.441	21857
878.568	21663
878.696	21930
878.824	21915
878.951	21865
879.079	22010
879.206	22097
879.333	22131
879.461	22093
879.588	22013
879.715	22158
879.842	22230
879.97	22013
880.097	21831
880.224	21770
880.351	21812
880.478	21751
880.605	21686
880.732	21766
880.859	22025
880.986	21762
881.112	21800
881.239	21720
881.366	21568
881.493	21336
881.619	21439
881.746	21245
881.872	21344
881.999	21214
882.125	21169
882.252	21344
882.378	21332
882.505	21443
882.631	21237
882.757	21108
882.883	21104
883.01	21070
883.136	20971
883.262	20929
883.388	20895
883.514	20975
883.64	21005
883.766	20956
883.892	20944
884.018	20785
884.143	21017
884.269	21077
884.395	20716
884.52	20708
884.646	20522
884.772	20636
884.897	20617
885.023	20629
885.148	20876
885.274	20804
885.399	20811
885.524	20583
885.65	20724
885.775	20629
885.9	20556
886.025	20823
886.15	20697
886.275	20716
886.4	20533
886.525	20693
886.65	20560
886.775	20648
886.9	20762
887.025	20785
887.149	20621
887.274	20594
887.399	20351
887.523	20366
887.648	20355
887.773	20286
887.897	20370
888.021	20427
888.146	20404
888.27	20568
888.395	20465
888.519	20446
888.643	20522
888.767	20473
888.891	20332
889.015	20374
889.139	20412
889.263	20313
889.387	20419
889.511	20434
889.635	20320
889.759	20271
889.883	20221
890.006	20263
890.13	20343
890.254	20343
890.377	20210
890.501	19913
890.624	20043
890.748	19989
890.871	19921
890.995	19830
891.118	19902
891.241	19795
891.364	19856
891.488	19925
891.611	19795
891.734	19860
891.857	19868
891.98	19852
892.103	19936
892.226	19864
892.349	19788
892.471	19647
892.594	19795
892.717	19742
892.839	19742
892.962	19769
893.085	19830
893.207	19685
893.33	19605
893.452	19635
893.575	19761
893.697	19738
893.819	19879
893.941	19940
894.064	19898
894.186	19677
894.308	19609
894.43	19845
894.552	19928
894.674	20001
894.796	19658
894.918	19685
895.04	19742
895.161	19727
895.283	19731
895.405	19723
895.526	19719
895.648	19799
895.769	19715
895.891	19727
896.012	19803
896.134	19845
896.255	19750
896.376	19788
896.498	19742
896.619	19723
896.74	19746
896.861	19833
896.982	19959
897.103	20176
897.224	19913
897.345	19906
897.466	19928
897.587	20012
897.708	20115
897.828	19967
897.949	19959
898.07	19856
898.19	19879
898.311	19974
898.431	20027
898.552	19875
898.672	20096
898.792	20115
898.913	19986
899.033	19830
899.153	19902
899.273	19571
899.393	19704
899.513	19772
899.633	19750
899.753	19814
899.873	19715
899.993	19658
900.113	19670
900.232	19753
900.352	19605
900.472	19464
900.591	19460
900.711	19567
900.83	19438
900.95	19544
901.069	19537
901.189	19320
901.308	19133
901.427	19019
901.546	19156
901.665	19069
901.784	19095
901.904	18939
902.023	18970
902.141	18749
902.26	18578
902.379	18738
902.498	18593
902.617	18547
902.735	18608
902.854	18490
902.973	18555
903.091	18258
903.21	18247
903.328	18239
903.446	18330
903.565	18152
903.683	18155
903.801	17969
903.919	18144
904.038	17988
904.156	17946
904.274	17832
904.392	17813
904.51	17874
904.627	17802
904.745	17954
904.863	17866
904.981	17638
905.098	17520
905.216	17535
905.334	17585
905.451	17532
905.569	17554
905.686	17573
905.803	17543
905.921	17212
906.038	17341
906.155	17258
906.272	17258
906.389	17197
906.506	17052
906.623	17094
906.74	17006
906.857	16934
906.974	16987
907.091	17220
907.208	17250
907.324	17018
907.441	16946
907.557	16816
907.674	16850
907.79	16782
907.907	16740
908.023	16778
908.139	16763
908.256	16744
908.372	16740
908.488	16729
908.604	16542
908.72	16386
908.836	16596
908.952	16489
909.068	16474
909.184	16596
909.3	16493
909.415	16504
909.531	16497
909.647	16223
909.762	16303
909.878	16112
909.993	16204
910.108	16276
910.224	16200
910.339	16135
910.454	16196
910.57	16101
910.685	15945
910.8	16242
910.915	16169
911.03	16051
911.145	15918
911.259	15816
911.374	15827
911.489	15759
911.604	15732
911.718	15568
911.833	15713
911.947	15523
912.062	15477
912.176	15526
912.291	15641
912.405	15595
912.519	15759
912.633	15728
912.748	15507
912.862	15469
912.976	15401
913.09	15272
913.204	15420
913.318	15424
913.431	15530
913.545	15355
913.659	15439
913.772	15291
913.886	15294
914	15176
914.113	15298
914.226	15393
914.34	15268
914.453	15047
914.566	15138
914.68	15116
914.793	15013
914.906	14899
915.019	14758
915.132	14769
915.245	14830
915.358	14792
915.47	14853
915.583	14880
915.696	14880
915.809	14895
915.921	14880
916.034	14716
916.146	14617
916.259	14712
916.371	14826
916.483	14682
916.595	14632
916.708	14705
916.82	14663
916.932	14552
917.044	14613
917.156	14606
917.268	14423
917.38	14499
917.491	14492
917.603	14545
917.715	14590
917.826	14655
917.938	14396
918.049	14259
918.161	14396
918.272	14583
918.384	14469
918.495	14385
918.606	14351
918.717	14153
918.828	14237
918.939	14317
919.05	14328
919.161	14119
919.272	14046
919.383	14168
919.494	14301
919.604	14499
919.715	14195
919.826	14073
919.936	14191
920.047	14355
920.157	14183
920.267	14446
920.378	14252
920.488	14111
920.598	14366
920.708	14625
920.818	14332
920.928	14275
921.038	14507
921.148	14473
921.258	14149
921.368	14069
921.477	13993
921.587	13959
921.697	13852
921.806	13921
921.916	13856
922.025	13662
922.134	13647
922.244	13616
922.353	13651
922.462	13480
922.571	13381
922.68	13236
922.789	13263
922.898	13206
923.007	13179
923.116	13206
923.224	13274
923.333	13179
923.442	13061
923.55	13164
923.659	13255
923.767	13122
923.876	13046
923.984	13095
924.092	12932
924.201	13061
924.309	13034
924.417	12916
924.525	12924
924.633	12951
924.741	13841
924.849	12700
924.956	12852
925.064	12776
925.172	12658
925.279	12616
925.387	12757
925.494	12574
925.602	12779
925.709	12715
925.816	12578
925.924	12498
926.031	12730
926.138	12623
926.245	12604
926.352	12521
926.459	12608
926.566	12711
926.673	12471
926.779	12399
926.886	12433
926.993	12281
927.099	12380
927.206	12254
927.312	12159
927.419	12292
927.525	12152
927.631	12251
927.737	12121
927.843	12125
927.95	11996
928.056	11939
928.162	12152
928.267	12110
928.373	12597
928.479	12167
928.585	11935
928.69	12060
928.796	12041
928.901	11954
929.007	11771
929.112	11874
929.218	11920
929.323	11897
929.428	11851
929.533	11916
929.638	11714
929.743	11688
929.848	11783
929.953	11771
930.058	11703
930.163	11402
930.267	11482
930.372	11646
930.477	11455
930.581	11653
930.685	11554
930.79	11402
930.894	11440
930.998	11387
931.103	11535
931.207	11079
931.311	11056
931.415	10949
931.519	10782
931.623	10771
