Data from test_V78500241_2312.txt Node
Date: Fri Mar 25 15:25:57 CST 2022
User: usil
Spectrometer: V785-0024
Trigger mode: 0
Integration Time (sec): 4.000000E-1
Scans to average: 1
Nonlinearity correction enabled: false
Boxcar width: 0
Storing dark spectrum: false
XAxis mode: Wavelengths
Number of Pixels in Spectrum: 1024
>>>>>Begin Spectral Data<<<<<
801.071	27367
801.214	27355
801.356	27142
801.499	26929
801.641	26940
801.783	26838
801.926	26940
802.068	26925
802.211	26731
802.353	26792
802.496	26621
802.638	26511
802.78	26492
802.923	26446
803.065	26438
803.208	26533
803.35	26613
803.492	26560
803.635	26609
803.777	26682
803.919	26735
804.061	26963
804.204	26625
804.346	26655
804.488	26644
804.63	26735
804.773	26644
804.915	26629
805.057	26773
805.199	26465
805.341	26716
805.483	26823
805.626	26800
805.768	26674
805.91	26758
806.052	26899
806.194	26682
806.336	26986
806.478	26701
806.62	26743
806.762	26819
806.904	27218
807.046	27100
807.188	27241
807.33	27119
807.472	27233
807.614	27188
807.756	27085
807.898	27089
808.04	26960
808.182	27032
808.324	27005
808.465	27093
808.607	27207
808.749	27523
808.891	27625
809.033	27557
809.174	27496
809.316	27363
809.458	27310
809.6	27431
809.741	27519
809.883	27481
810.025	27583
810.166	27667
810.308	27766
810.45	27667
810.591	27572
810.733	27325
810.875	27291
811.016	27176
811.158	27233
811.299	27507
811.441	27557
811.582	27507
811.724	27416
811.865	27291
812.007	27180
812.148	27405
812.29	27450
812.431	27553
812.573	27686
812.714	27873
812.855	27838
812.997	27937
813.138	28063
813.279	28166
813.421	27926
813.562	27949
813.703	27739
813.845	27492
813.986	27272
814.127	27127
814.268	27062
814.41	27058
814.551	27001
814.692	27169
814.833	27001
814.974	26956
815.115	27112
815.256	26880
815.397	26906
815.539	26918
815.68	26948
815.821	26785
815.962	26864
816.103	26910
816.244	26613
816.385	26514
816.526	26594
816.666	26442
816.807	26305
816.948	26305
817.089	26522
817.23	26324
817.371	26317
817.512	26237
817.653	26370
817.793	26240
817.934	26248
818.075	26355
818.216	26248
818.356	26370
818.497	26062
818.638	25982
818.778	25997
818.919	26172
819.06	26153
819.2	26256
819.341	26164
819.481	26275
819.622	26473
819.762	26758
819.903	26526
820.043	26450
820.184	26427
820.324	26355
820.465	26492
820.605	26465
820.746	26461
820.886	26339
821.026	26389
821.167	26294
821.307	26495
821.447	26259
821.588	26244
821.728	26103
821.868	25986
822.008	25879
822.149	25830
822.289	25681
822.429	25586
822.569	25689
822.709	25586
822.849	25320
822.99	25282
823.13	25274
823.27	25145
823.41	25103
823.55	25050
823.69	25038
823.83	25168
823.97	24943
824.11	24928
824.25	25031
824.389	24802
824.529	25004
824.669	24935
824.809	25057
824.949	24992
825.089	24962
825.228	24909
825.368	24886
825.508	24711
825.648	24825
825.787	24783
825.927	24871
826.067	24669
826.206	24821
826.346	24863
826.485	24791
826.625	24745
826.765	24749
826.904	24844
827.044	24437
827.183	24650
827.323	24620
827.462	24509
827.601	24559
827.741	24490
827.88	24551
828.02	24418
828.159	24395
828.298	24513
828.437	24429
828.577	24353
828.716	24589
828.855	24216
828.994	24251
829.134	24148
829.273	24201
829.412	24049
829.551	24076
829.69	24182
829.829	24209
829.968	24205
830.107	24342
830.246	24133
830.385	24220
830.524	24129
830.663	23980
830.802	23996
830.941	23764
831.08	23733
831.219	23790
831.357	23885
831.496	23927
831.635	23859
831.774	23767
831.913	23676
832.051	23573
832.19	23577
832.329	23505
832.467	23505
832.606	23410
832.744	23414
832.883	23493
833.022	23391
833.16	23383
833.299	23600
833.437	23417
833.576	23474
833.714	23509
833.852	23547
833.991	23585
834.129	23543
834.267	23543
834.406	23516
834.544	23516
834.682	23512
834.821	23566
834.959	23646
835.097	23474
835.235	23596
835.373	23478
835.511	23520
835.65	23360
835.788	23448
835.926	23292
836.064	23284
836.202	23246
836.34	23311
836.478	23463
836.615	23379
836.753	23368
836.891	23463
837.029	23322
837.167	23307
837.305	23341
837.443	23216
837.58	23174
837.718	23235
837.856	23277
837.993	23162
838.131	23212
838.269	23109
838.406	23056
838.544	23079
838.681	22934
838.819	22820
838.956	22584
839.094	22725
839.231	22767
839.369	22908
839.506	23025
839.643	22930
839.781	22713
839.918	22702
840.055	22679
840.193	22592
840.33	22573
840.467	22588
840.604	22679
840.742	22938
840.879	22402
841.016	22626
841.153	22462
841.29	22763
841.427	22588
841.564	22580
841.701	22565
841.838	22538
841.975	22413
842.112	22459
842.249	22371
842.385	22375
842.522	22535
842.659	22333
842.796	22363
842.933	22367
843.069	22284
843.206	22284
843.343	22318
843.479	22344
843.616	22238
843.752	22196
843.889	22105
844.025	22352
844.162	22116
844.298	22215
844.435	22040
844.571	22017
844.708	22261
844.844	22257
844.98	22284
845.117	22162
845.253	21975
845.389	22177
845.525	22070
845.661	21998
845.798	21888
845.934	21869
846.07	21888
846.206	21892
846.342	21941
846.478	21850
846.614	21652
846.75	21557
846.886	21663
847.022	21724
847.158	21618
847.294	21614
847.429	21644
847.565	21667
847.701	21808
847.837	21473
847.972	21302
848.108	21492
848.244	21370
848.379	21199
848.515	21188
848.65	21336
848.786	21340
848.921	21199
849.057	21249
849.192	21154
849.328	21176
849.463	21154
849.598	21195
849.734	21150
849.869	21165
850.004	21081
850.14	21020
850.275	20921
850.41	20876
850.545	20929
850.68	20975
850.815	20971
850.95	20914
851.085	21142
851.22	21135
851.355	20998
851.49	20960
851.625	20887
851.76	20883
851.895	20891
852.03	20819
852.165	20899
852.299	20941
852.434	21112
852.569	21028
852.703	20906
852.838	20853
852.973	21157
853.107	20960
853.242	20857
853.376	20754
853.511	20606
853.645	20758
853.78	20994
853.914	20781
854.048	20693
854.183	20758
854.317	20819
854.451	20838
854.585	20838
854.72	20785
854.854	20815
854.988	20682
855.122	20777
855.256	20640
855.39	20804
855.524	20804
855.658	20872
855.792	20849
855.926	20823
856.06	20739
856.194	20849
856.327	20758
856.461	20663
856.595	20777
856.729	20720
856.862	20800
856.996	20826
857.13	20823
857.263	20876
857.397	20861
857.53	20720
857.664	20754
857.797	20864
857.931	20845
858.064	20800
858.197	20849
858.331	20853
858.464	20754
858.597	20648
858.731	20918
858.864	20682
858.997	20720
859.13	20739
859.263	20861
859.396	20788
859.529	20724
859.662	20769
859.795	20720
859.928	20804
860.061	20990
860.194	20910
860.327	20792
860.46	20811
860.592	20861
860.725	20906
860.858	20941
860.99	20914
861.123	20739
861.256	20621
861.388	20746
861.521	21469
861.653	20689
861.786	20560
861.918	20629
862.05	20701
862.183	20716
862.315	20712
862.447	20716
862.58	20689
862.712	20541
862.844	20442
862.976	20568
863.108	20617
863.24	21013
863.372	20355
863.504	20602
863.636	20514
863.768	20518
863.9	20480
864.032	20244
864.164	20377
864.296	20571
864.428	20632
864.559	20587
864.691	20560
864.823	20636
864.954	20499
865.086	20469
865.217	20374
865.349	20408
865.48	20396
865.612	20431
865.743	20587
865.875	20423
866.006	20408
866.137	20492
866.269	20362
866.4	20389
866.531	20446
866.662	20343
866.793	20301
866.924	20434
867.055	20400
867.186	20305
867.317	20294
867.448	20343
867.579	20385
867.71	20218
867.841	20176
867.972	20434
868.103	20324
868.233	20412
868.364	20446
868.495	20427
868.625	20571
868.756	20746
868.886	20400
869.017	20632
869.147	20720
869.278	20758
869.408	20689
869.539	20598
869.669	20708
869.799	20613
869.929	20754
870.06	20785
870.19	20933
870.32	20880
870.45	20807
870.58	20910
870.71	21096
870.84	21093
870.97	20925
871.1	20986
871.23	21207
871.36	21226
871.489	21058
871.619	21135
871.749	21176
871.879	21310
872.008	21359
872.138	21116
872.267	21154
872.397	21051
872.526	20998
872.656	20960
872.785	20967
872.915	21256
873.044	21363
873.173	21230
873.303	21233
873.432	21138
873.561	21332
873.69	21199
873.819	21173
873.948	21252
874.077	21233
874.206	21001
874.335	21138
874.464	21275
874.593	21538
874.722	21325
874.851	21488
874.979	21329
875.108	21454
875.237	21401
875.365	21405
875.494	21355
875.623	21412
875.751	21283
875.88	21477
876.008	21443
876.136	21675
876.265	21873
876.393	21994
876.521	21994
876.65	21979
876.778	21873
876.906	21720
877.034	21732
877.162	21892
877.29	21739
877.418	21941
877.546	21739
877.674	21880
877.802	21838
877.93	21793
878.058	21663
878.185	21755
878.313	21797
878.441	21644
878.568	21488
878.696	21827
878.824	21968
878.951	21873
879.079	21945
879.206	22074
879.333	21918
879.461	21751
879.588	21838
879.715	21987
879.842	22097
879.97	21876
880.097	21633
880.224	21553
880.351	21583
880.478	21625
880.605	21637
880.732	21637
880.859	21968
880.986	21686
881.112	21599
881.239	21473
881.366	21367
881.493	21230
881.619	21252
881.746	21157
881.872	21127
881.999	21089
882.125	21154
882.252	21176
882.378	21150
882.505	21378
882.631	20956
882.757	20998
882.883	20899
883.01	21043
883.136	20830
883.262	20765
883.388	20838
883.514	20861
883.64	20921
883.766	20830
883.892	20804
884.018	20769
884.143	20754
884.269	20994
884.395	20716
884.52	20522
884.646	20651
884.772	20396
884.897	20438
885.023	20518
885.148	20571
885.274	20655
885.399	20651
885.524	20492
885.65	20530
885.775	20617
885.9	20590
886.025	20530
886.15	20609
886.275	20484
886.4	20476
886.525	20488
886.65	20442
886.775	20473
886.9	20724
887.025	20804
887.149	20625
887.274	20324
887.399	20275
887.523	20263
887.648	20286
887.773	20309
887.897	20408
888.021	20252
888.146	20229
888.27	20305
888.395	20423
888.519	20278
888.643	20332
888.767	20267
888.891	20176
889.015	20138
889.139	20214
889.263	20058
889.387	20199
889.511	20221
889.635	20244
889.759	20122
889.883	20073
890.006	20183
890.13	20221
890.254	20039
890.377	20145
890.501	19822
890.624	19879
890.748	19967
890.871	19761
890.995	19712
891.118	19571
891.241	19723
891.364	19616
891.488	19818
891.611	19655
891.734	19677
891.857	19742
891.98	19769
892.103	19689
892.226	19803
892.349	19685
892.471	19590
892.594	19559
892.717	19620
892.839	19563
892.962	19578
893.085	19738
893.207	19639
893.33	19559
893.452	19582
893.575	19620
893.697	19529
893.819	19662
893.941	19826
894.064	19712
894.186	19502
894.308	19597
894.43	19632
894.552	19807
894.674	19765
894.796	19559
894.918	19506
895.04	19518
895.161	19712
895.283	19540
895.405	19518
895.526	19613
895.648	19540
895.769	19658
895.891	19723
896.012	19571
896.134	19635
896.255	19658
896.376	19601
896.498	19552
896.619	19624
896.74	19639
896.861	19750
896.982	19909
897.103	20187
897.224	19925
897.345	19826
897.466	19784
897.587	19883
897.708	19967
897.828	19822
897.949	19704
898.07	19776
898.19	19658
898.311	19879
898.431	19757
898.552	19887
898.672	19879
898.792	20012
898.913	19776
899.033	19734
899.153	19666
899.273	19613
899.393	19529
899.513	19620
899.633	19791
899.753	19620
899.873	19487
899.993	19666
900.113	19464
900.232	19571
900.352	19597
900.472	19491
900.591	19419
900.711	19358
900.83	19285
900.95	19403
901.069	19495
901.189	19285
901.308	19091
901.427	18882
901.546	18966
901.665	18966
901.784	18947
901.904	18947
902.023	18772
902.141	18620
902.26	18525
902.379	18673
902.498	18525
902.617	18490
902.735	18513
902.854	18490
902.973	18464
903.091	18304
903.21	18281
903.328	18228
903.446	18102
903.565	18064
903.683	18102
903.801	17889
903.919	17916
904.038	17912
904.156	17813
904.274	17817
904.392	17741
904.51	17745
904.627	17745
904.745	17824
904.863	17760
904.981	17657
905.098	17497
905.216	17512
905.334	17497
905.451	17520
905.569	17509
905.686	17486
905.803	17292
905.921	17235
906.038	17246
906.155	17250
906.272	17147
906.389	17022
906.506	16873
906.623	16976
906.74	16938
906.857	16938
906.974	16881
907.091	17064
907.208	17083
907.324	17010
907.441	16915
907.557	16763
907.674	16706
907.79	16607
907.907	16675
908.023	16759
908.139	16736
908.256	16694
908.372	16588
908.488	16558
908.604	16390
908.72	16325
908.836	16398
908.952	16287
909.068	16325
909.184	16573
909.3	16314
909.415	16394
909.531	16432
909.647	16219
909.762	16154
909.878	16082
909.993	16181
910.108	16036
910.224	16162
910.339	15972
910.454	15994
910.57	15926
910.685	15857
910.8	16040
910.915	16021
911.03	15911
911.145	15770
911.259	15663
911.374	15755
911.489	15728
911.604	15622
911.718	15557
911.833	15507
911.947	15431
912.062	15313
912.176	15530
912.291	15591
912.405	15416
912.519	15618
912.633	15610
912.748	15545
912.862	15515
912.976	15302
913.09	15211
913.204	15138
913.318	15325
913.431	15310
913.545	15386
913.659	15443
913.772	15245
913.886	15104
914	15150
914.113	15214
914.226	15211
914.34	15150
914.453	14914
914.566	15150
914.68	15020
914.793	14944
914.906	14792
915.019	14644
915.132	14613
915.245	14686
915.358	14788
915.47	14659
915.583	14693
915.696	14743
915.809	14857
915.921	14788
916.034	14678
916.146	14636
916.259	14617
916.371	14727
916.483	14697
916.595	14518
916.708	14659
916.82	14495
916.932	14564
917.044	14552
917.156	14442
917.268	14423
917.38	14423
917.491	14419
917.603	14400
917.715	14522
917.826	14454
917.938	14317
918.049	14259
918.161	14358
918.272	14526
918.384	14473
918.495	14351
918.606	14263
918.717	14191
918.828	14142
918.939	14202
919.05	14145
919.161	14020
919.272	13947
919.383	13982
919.494	14161
919.604	14313
919.715	14180
919.826	14012
919.936	14092
920.047	14183
920.157	14012
920.267	14267
920.378	14183
920.488	14001
920.598	14336
920.708	14434
920.818	14202
920.928	14396
921.038	14320
921.148	14351
921.258	13906
921.368	14005
921.477	14005
921.587	13807
921.697	13757
921.806	13925
921.916	13765
922.025	13540
922.134	13525
922.244	13506
922.353	13521
922.462	13381
922.571	13365
922.68	13145
922.789	13110
922.898	13145
923.007	13076
923.116	13202
923.224	13251
923.333	13110
923.442	13053
923.55	13050
923.659	12970
923.767	13050
923.876	13015
923.984	13034
924.092	12916
924.201	12856
924.309	12909
924.417	13000
924.525	12810
924.633	12840
924.741	13769
924.849	12623
924.956	12768
925.064	12749
925.172	12593
925.279	12490
925.387	12616
925.494	12582
925.602	12707
925.709	12639
925.816	12544
925.924	12513
926.031	12620
926.138	12521
926.245	12532
926.352	12471
926.459	12608
926.566	12662
926.673	12456
926.779	12319
926.886	12346
926.993	12296
927.099	12273
927.206	12106
927.312	12144
927.419	12224
927.525	12171
927.631	12308
927.737	12053
927.843	12034
927.95	11977
928.056	11916
928.162	12007
928.267	12053
928.373	12551
928.479	12152
928.585	11863
928.69	11901
928.796	11961
928.901	11927
929.007	11809
929.112	11802
929.218	11836
929.323	11764
929.428	11783
929.533	11946
929.638	11733
929.743	11748
929.848	11752
929.953	11638
930.058	11589
930.163	11406
930.267	11387
930.372	11589
930.477	11398
930.581	11604
930.685	11497
930.79	11280
930.894	11345
930.998	11322
931.103	11360
931.207	11048
931.311	10980
931.415	10835
931.519	10752
931.623	10721
