Data from test_V78500241_3376.txt Node
Date: Fri Mar 25 15:33:22 CST 2022
User: usil
Spectrometer: V785-0024
Trigger mode: 0
Integration Time (sec): 4.000000E-1
Scans to average: 1
Nonlinearity correction enabled: false
Boxcar width: 0
Storing dark spectrum: false
XAxis mode: Wavelengths
Number of Pixels in Spectrum: 1024
>>>>>Begin Spectral Data<<<<<
801.071	27089
801.214	27188
801.356	27089
801.499	26937
801.641	26838
801.783	26674
801.926	26921
802.068	26651
802.211	26693
802.353	26750
802.496	26632
802.638	26488
802.78	26370
802.923	26332
803.065	26400
803.208	26313
803.35	26434
803.492	26442
803.635	26530
803.777	26495
803.919	26583
804.061	27001
804.204	26507
804.346	26514
804.488	26473
804.63	26492
804.773	26518
804.915	26651
805.057	26632
805.199	26492
805.341	26678
805.483	26670
805.626	26556
805.768	26564
805.91	26659
806.052	26670
806.194	26587
806.336	26769
806.478	26659
806.62	26686
806.762	26564
806.904	26937
807.046	27093
807.188	27154
807.33	27131
807.472	27176
807.614	26998
807.756	27146
807.898	26906
808.04	26876
808.182	26826
808.324	26758
808.465	26921
808.607	27313
808.749	27184
808.891	27389
809.033	27344
809.174	27195
809.316	27157
809.458	27173
809.6	27275
809.741	27344
809.883	27382
810.025	27538
810.166	27618
810.308	27545
810.45	27538
810.591	27275
810.733	27321
810.875	27294
811.016	27161
811.158	27138
811.299	27405
811.441	27359
811.582	27321
811.724	27230
811.865	27119
812.007	27161
812.148	27211
812.29	27233
812.431	27427
812.573	27462
812.714	27477
812.855	27682
812.997	27762
813.138	28025
813.279	27755
813.421	27778
813.562	27709
813.703	27747
813.845	27405
813.986	27241
814.127	27058
814.268	26864
814.41	26823
814.551	26819
814.692	26929
814.833	26785
814.974	26849
815.115	26979
815.256	26746
815.397	26800
815.539	26842
815.68	26746
815.821	26667
815.962	26556
816.103	26583
816.244	26476
816.385	26583
816.526	26492
816.666	26355
816.807	26107
816.948	26259
817.089	26161
817.23	26199
817.371	26145
817.512	26008
817.653	26062
817.793	26103
817.934	26130
818.075	26275
818.216	26138
818.356	26221
818.497	26107
818.638	25883
818.778	25909
818.919	25921
819.06	25947
819.2	26058
819.341	26016
819.481	26199
819.622	26290
819.762	26575
819.903	26484
820.043	26328
820.184	26263
820.324	26290
820.465	26461
820.605	26153
820.746	26271
820.886	26103
821.026	26324
821.167	26130
821.307	26233
821.447	26084
821.588	26062
821.728	25963
821.868	25814
822.008	25784
822.149	25559
822.289	25674
822.429	25266
822.569	25278
822.709	25244
822.849	25213
822.99	24996
823.13	25015
823.27	25084
823.41	25008
823.55	24798
823.69	24954
823.83	24901
823.97	24856
824.11	24730
824.25	24673
824.389	24658
824.529	24856
824.669	24722
824.809	24684
824.949	24928
825.089	24859
825.228	24745
825.368	24669
825.508	24555
825.648	24604
825.787	24642
825.927	24681
826.067	24494
826.206	24498
826.346	24776
826.485	24563
826.625	24604
826.765	24768
826.904	24681
827.044	24471
827.183	24365
827.323	24308
827.462	24467
827.601	24418
827.741	24338
827.88	24460
828.02	24228
828.159	24304
828.298	24327
828.437	24429
828.577	24220
828.716	24273
828.855	24232
828.994	24041
829.134	24034
829.273	24102
829.412	23980
829.551	24022
829.69	24110
829.829	24030
829.968	24144
830.107	23999
830.246	24129
830.385	24102
830.524	23996
830.663	23885
830.802	23897
830.941	23752
831.08	23642
831.219	23699
831.357	23771
831.496	23908
831.635	23611
831.774	23687
831.913	23524
832.051	23417
832.19	23452
832.329	23459
832.467	23414
832.606	23345
832.744	23383
832.883	23345
833.022	23273
833.16	23322
833.299	23318
833.437	23303
833.576	23452
833.714	23376
833.852	23379
833.991	23398
834.129	23589
834.267	23459
834.406	23356
834.544	23520
834.682	23322
834.821	23379
834.959	23634
835.097	23414
835.235	23353
835.373	23448
835.511	23383
835.65	23246
835.788	23349
835.926	23132
836.064	23155
836.202	23159
836.34	23189
836.478	23387
836.615	23162
836.753	23254
836.891	23398
837.029	23231
837.167	23178
837.305	23117
837.443	23109
837.58	23071
837.718	23261
837.856	23147
837.993	23208
838.131	23117
838.269	23037
838.406	23041
838.544	23010
838.681	22866
838.819	22664
838.956	22653
839.094	22451
839.231	22713
839.369	22843
839.506	23060
839.643	22923
839.781	22577
839.918	22500
840.055	22637
840.193	22649
840.33	22554
840.467	22645
840.604	22573
840.742	22915
840.879	22375
841.016	22413
841.153	22405
841.29	22618
841.427	22569
841.564	22527
841.701	22542
841.838	22546
841.975	22538
842.112	22527
842.249	22413
842.385	22268
842.522	22694
842.659	22348
842.796	22303
842.933	22158
843.069	22253
843.206	22272
843.343	22348
843.479	22318
843.616	22379
843.752	22048
843.889	22124
844.025	22200
844.162	22055
844.298	22192
844.435	22120
844.571	22051
844.708	22196
844.844	22249
844.98	22112
845.117	22070
845.253	21937
845.389	21930
845.525	22013
845.661	22040
845.798	21895
845.934	21812
846.07	21641
846.206	21918
846.342	21854
846.478	21774
846.614	21633
846.75	21583
846.886	21572
847.022	21663
847.158	21523
847.294	21595
847.429	21583
847.565	21530
847.701	21770
847.837	21386
847.972	21382
848.108	21317
848.244	21386
848.379	21214
848.515	21020
848.65	21207
848.786	21169
848.921	21207
849.057	21283
849.192	21207
849.328	21036
849.463	21081
849.598	21093
849.734	21066
849.869	20967
850.004	20944
850.14	20929
850.275	20925
850.41	20838
850.545	20857
850.68	20887
850.815	20872
850.95	20918
851.085	21142
851.22	21032
851.355	20891
851.49	20925
851.625	20948
851.76	20807
851.895	20857
852.03	20834
852.165	20868
852.299	21009
852.434	21036
852.569	20960
852.703	20906
852.838	20998
852.973	21036
853.107	20902
853.242	20800
853.376	20743
853.511	20689
853.645	20636
853.78	20739
853.914	20720
854.048	20705
854.183	20773
854.317	20765
854.451	20929
854.585	20750
854.72	20701
854.854	20872
854.988	20823
855.122	20667
855.256	20590
855.39	20796
855.524	20785
855.658	20735
855.792	20834
855.926	20720
856.06	20788
856.194	20849
856.327	20697
856.461	20686
856.595	20689
856.729	20804
856.862	20834
856.996	20689
857.13	20811
857.263	20830
857.397	20830
857.53	20674
857.664	20720
857.797	20769
857.931	20857
858.064	20868
858.197	20872
858.331	20724
858.464	20667
858.597	20629
858.731	20674
858.864	20804
858.997	20602
859.13	20678
859.263	20629
859.396	20838
859.529	20815
859.662	20670
859.795	20659
859.928	20758
860.061	20918
860.194	20979
860.327	20762
860.46	20678
860.592	20849
860.725	20754
860.858	20883
860.99	20785
861.123	20697
861.256	20632
861.388	20693
861.521	21386
861.653	20552
861.786	20465
861.918	20621
862.05	20606
862.183	20689
862.315	20632
862.447	20708
862.58	20712
862.712	20465
862.844	20473
862.976	20499
863.108	20526
863.24	20804
863.372	20370
863.504	20408
863.636	20438
863.768	20545
863.9	20442
864.032	20358
864.164	20358
864.296	20450
864.428	20609
864.559	20579
864.691	20522
864.823	20457
864.954	20469
865.086	20332
865.217	20336
865.349	20275
865.48	20393
865.612	20457
865.743	20423
865.875	20355
866.006	20362
866.137	20393
866.269	20419
866.4	20305
866.531	20347
866.662	20237
866.793	20328
866.924	20240
867.055	20240
867.186	20343
867.317	20271
867.448	20252
867.579	20176
867.71	20294
867.841	20199
867.972	20233
868.103	20263
868.233	20339
868.364	20195
868.495	20503
868.625	20518
868.756	20583
868.886	20530
869.017	20556
869.147	20640
869.278	20598
869.408	20648
869.539	20552
869.669	20648
869.799	20579
869.929	20670
870.06	20720
870.19	20769
870.32	20891
870.45	21005
870.58	21001
870.71	21047
870.84	20994
870.97	20933
871.1	21074
871.23	21055
871.36	21123
871.489	21020
871.619	21055
871.749	21184
871.879	21165
872.008	21207
872.138	21173
872.267	21287
872.397	21001
872.526	20921
872.656	21024
872.785	20998
872.915	21131
873.044	21237
873.173	21173
873.303	21260
873.432	21214
873.561	21218
873.69	21161
873.819	21249
873.948	21252
874.077	21199
874.206	21169
874.335	21142
874.464	21313
874.593	21382
874.722	21367
874.851	21397
874.979	21496
875.108	21443
875.237	21344
875.365	21351
875.494	21275
875.623	21542
875.751	21363
875.88	21424
876.008	21542
876.136	21587
876.265	21812
876.393	22032
876.521	21884
876.65	21869
876.778	21755
876.906	21857
877.034	21660
877.162	21766
877.29	21675
877.418	21850
877.546	21800
877.674	21751
877.802	21736
877.93	21770
878.058	21728
878.185	21587
878.313	21625
878.441	21713
878.568	21663
878.696	21698
878.824	21743
878.951	21804
879.079	21972
879.206	21987
879.333	21831
879.461	21690
879.588	21926
879.715	21854
879.842	21991
879.97	21895
880.097	21458
880.224	21652
880.351	21633
880.478	21557
880.605	21507
880.732	21580
880.859	21797
880.986	21603
881.112	21519
881.239	21481
881.366	21325
881.493	21275
881.619	21169
881.746	21173
881.872	21131
881.999	21146
882.125	21119
882.252	21203
882.378	21188
882.505	21218
882.631	21051
882.757	20887
882.883	20895
883.01	20914
883.136	20826
883.262	20739
883.388	20689
883.514	20910
883.64	20819
883.766	20815
883.892	20701
884.018	20670
884.143	20899
884.269	20937
884.395	20632
884.52	20507
884.646	20587
884.772	20480
884.897	20377
885.023	20568
885.148	20617
885.274	20720
885.399	20663
885.524	20530
885.65	20598
885.775	20575
885.9	20526
886.025	20625
886.15	20697
886.275	20366
886.4	20415
886.525	20552
886.65	20446
886.775	20385
886.9	20598
887.025	20758
887.149	20454
887.274	20252
887.399	20214
887.523	20263
887.648	20237
887.773	20229
887.897	20389
888.021	20343
888.146	20271
888.27	20305
888.395	20438
888.519	20199
888.643	20328
888.767	20294
888.891	20271
889.015	20096
889.139	20122
889.263	20103
889.387	20370
889.511	20339
889.635	20237
889.759	20031
889.883	20065
890.006	20111
890.13	20252
890.254	20096
890.377	20008
890.501	19913
890.624	19776
890.748	19879
890.871	19826
890.995	19666
891.118	19639
891.241	19651
891.364	19662
891.488	19830
891.611	19677
891.734	19750
891.857	19788
891.98	19655
892.103	19658
892.226	19761
892.349	19613
892.471	19643
892.594	19495
892.717	19708
892.839	19635
892.962	19780
893.085	19731
893.207	19670
893.33	19521
893.452	19571
893.575	19632
893.697	19620
893.819	19845
893.941	19906
894.064	19795
894.186	19499
894.308	19575
894.43	19734
894.552	19753
894.674	19761
894.796	19521
894.918	19624
895.04	19449
895.161	19746
895.283	19700
895.405	19624
895.526	19613
895.648	19620
895.769	19559
895.891	19750
896.012	19746
896.134	19765
896.255	19780
896.376	19537
896.498	19624
896.619	19635
896.74	19635
896.861	19597
896.982	20012
897.103	20187
897.224	19963
897.345	19959
897.466	19849
897.587	19906
897.708	20077
897.828	19890
897.949	19765
898.07	19639
898.19	19788
898.311	19883
898.431	19757
898.552	19837
898.672	19875
898.792	20088
898.913	19959
899.033	19769
899.153	19628
899.273	19613
899.393	19655
899.513	19769
899.633	19639
899.753	19556
899.873	19487
899.993	19624
900.113	19491
900.232	19540
900.352	19533
900.472	19453
900.591	19362
900.711	19434
900.83	19304
900.95	19491
901.069	19396
901.189	19274
901.308	19004
901.427	18962
901.546	18981
901.665	18932
901.784	19015
901.904	18837
902.023	18779
902.141	18650
902.26	18589
902.379	18528
902.498	18502
902.617	18437
902.735	18509
902.854	18483
902.973	18471
903.091	18186
903.21	18194
903.328	18140
903.446	18034
903.565	18007
903.683	17946
903.801	17813
903.919	17950
904.038	17996
904.156	17786
904.274	17851
904.392	17691
904.51	17805
904.627	17710
904.745	17726
904.863	17756
904.981	17630
905.098	17482
905.216	17452
905.334	17570
905.451	17391
905.569	17448
905.686	17493
905.803	17490
905.921	17223
906.038	17296
906.155	17303
906.272	17117
906.389	17162
906.506	17033
906.623	17006
906.74	16972
906.857	16877
906.974	16911
907.091	17113
907.208	17014
907.324	17018
907.441	16953
907.557	16740
907.674	16736
907.79	16691
907.907	16622
908.023	16675
908.139	16653
908.256	16706
908.372	16607
908.488	16607
908.604	16630
908.72	16417
908.836	16451
908.952	16451
909.068	16386
909.184	16512
909.3	16386
909.415	16470
909.531	16291
909.647	16192
909.762	16040
909.878	16158
909.993	16128
910.108	16173
910.224	16036
910.339	16105
910.454	16021
910.57	15911
910.685	15869
910.8	16158
910.915	16086
911.03	15949
911.145	15838
911.259	15603
911.374	15736
911.489	15759
911.604	15557
911.718	15511
911.833	15549
911.947	15420
912.062	15355
912.176	15545
912.291	15526
912.405	15545
912.519	15732
912.633	15736
912.748	15572
912.862	15431
912.976	15321
913.09	15176
913.204	15355
913.318	15359
913.431	15363
913.545	15378
913.659	15382
913.772	15268
913.886	15211
914	15081
914.113	15313
914.226	15218
914.34	15089
914.453	15020
914.566	15116
914.68	15024
914.793	14960
914.906	14876
915.019	14716
915.132	14663
915.245	14712
915.358	14716
915.47	14746
915.583	14834
915.696	14838
915.809	14811
915.921	14842
916.034	14682
916.146	14689
916.259	14682
916.371	14724
916.483	14670
916.595	14598
916.708	14579
916.82	14503
916.932	14587
917.044	14556
917.156	14556
917.268	14355
917.38	14438
917.491	14374
917.603	14362
917.715	14465
917.826	14503
917.938	14347
918.049	14298
918.161	14457
918.272	14427
918.384	14381
918.495	14434
918.606	14256
918.717	14103
918.828	14183
918.939	14210
919.05	14020
919.161	14123
919.272	13921
919.383	14069
919.494	14252
919.604	14469
919.715	14145
919.826	13955
919.936	14161
920.047	14195
920.157	14134
920.267	14336
920.378	14153
920.488	14081
920.598	14290
920.708	14438
920.818	14218
920.928	14214
921.038	14408
921.148	14309
921.258	14111
921.368	13928
921.477	13811
921.587	13852
921.697	13803
921.806	13921
921.916	13818
922.025	13601
922.134	13548
922.244	13491
922.353	13563
922.462	13464
922.571	13316
922.68	13206
922.789	13202
922.898	13160
923.007	13141
923.116	13156
923.224	13133
923.333	13183
923.442	13012
923.55	13031
923.659	13027
923.767	13099
923.876	12966
923.984	12981
924.092	12935
924.201	13008
924.309	12928
924.417	12947
924.525	12867
924.633	12905
924.741	13845
924.849	12658
924.956	12768
925.064	12760
925.172	12589
925.279	12604
925.387	12677
925.494	12574
925.602	12741
925.709	12684
925.816	12448
925.924	12532
926.031	12684
926.138	12597
926.245	12665
926.352	12486
926.459	12662
926.566	12612
926.673	12452
926.779	12471
926.886	12395
926.993	12213
927.099	12194
927.206	12262
927.312	12117
927.419	12213
927.525	12270
927.631	12277
927.737	12213
927.843	12045
927.95	11969
928.056	11984
928.162	12060
928.267	12091
928.373	12570
928.479	12087
928.585	11805
928.69	12072
928.796	12041
928.901	11920
929.007	11745
929.112	11882
929.218	11824
929.323	11828
929.428	11707
929.533	11984
929.638	11707
929.743	11741
929.848	11832
929.953	11642
930.058	11562
930.163	11524
930.267	11490
930.372	11615
930.477	11398
930.581	11642
930.685	11509
930.79	11398
930.894	11322
930.998	11322
931.103	11524
931.207	11143
931.311	11018
931.415	10961
931.519	10782
931.623	10736
