Data from test_V78500241_3018.txt Node
Date: Fri Mar 25 15:30:52 CST 2022
User: usil
Spectrometer: V785-0024
Trigger mode: 0
Integration Time (sec): 4.000000E-1
Scans to average: 1
Nonlinearity correction enabled: false
Boxcar width: 0
Storing dark spectrum: false
XAxis mode: Wavelengths
Number of Pixels in Spectrum: 1024
>>>>>Begin Spectral Data<<<<<
801.071	27249
801.214	27169
801.356	26940
801.499	26933
801.641	26792
801.783	26815
801.926	26773
802.068	26762
802.211	26636
802.353	26629
802.496	26488
802.638	26450
802.78	26514
802.923	26336
803.065	26328
803.208	26298
803.35	26511
803.492	26393
803.635	26583
803.777	26434
803.919	26613
804.061	26864
804.204	26537
804.346	26492
804.488	26457
804.63	26564
804.773	26514
804.915	26488
805.057	26682
805.199	26514
805.341	26720
805.483	26549
805.626	26598
805.768	26564
805.91	26488
806.052	26750
806.194	26473
806.336	26758
806.478	26731
806.62	26598
806.762	26746
806.904	26796
807.046	27192
807.188	27123
807.33	27222
807.472	27127
807.614	27009
807.756	27051
807.898	26940
808.04	26864
808.182	26781
808.324	26899
808.465	26933
808.607	27161
808.749	27180
808.891	27340
809.033	27507
809.174	27302
809.316	27279
809.458	27074
809.6	27256
809.741	27279
809.883	27401
810.025	27526
810.166	27587
810.308	27485
810.45	27424
810.591	27511
810.733	27367
810.875	27237
811.016	27252
811.158	27252
811.299	27439
811.441	27443
811.582	27443
811.724	27268
811.865	27180
812.007	27108
812.148	27359
812.29	27188
812.431	27488
812.573	27515
812.714	27606
812.855	27751
812.997	27762
813.138	28040
813.279	27869
813.421	27846
813.562	27603
813.703	27663
813.845	27382
813.986	27173
814.127	26998
814.268	26891
814.41	26807
814.551	26891
814.692	26975
814.833	26880
814.974	26842
815.115	27009
815.256	26701
815.397	26705
815.539	26720
815.68	26716
815.821	26724
815.962	26712
816.103	26712
816.244	26549
816.385	26412
816.526	26362
816.666	26317
816.807	26229
816.948	26157
817.089	26408
817.23	26225
817.371	26088
817.512	26077
817.653	26142
817.793	26107
817.934	26172
818.075	26035
818.216	26210
818.356	26164
818.497	25963
818.638	25849
818.778	26020
818.919	25841
819.06	26100
819.2	26084
819.341	26122
819.481	26259
819.622	26332
819.762	26431
819.903	26473
820.043	26336
820.184	26263
820.324	26282
820.465	26457
820.605	26248
820.746	26275
820.886	26111
821.026	26256
821.167	26252
821.307	26210
821.447	26153
821.588	26039
821.728	26065
821.868	25826
822.008	25635
822.149	25696
822.289	25647
822.429	25255
822.569	25179
822.709	25324
822.849	25217
822.99	25050
823.13	25160
823.27	24935
823.41	25050
823.55	24779
823.69	25008
823.83	25000
823.97	24806
824.11	24745
824.25	24658
824.389	24734
824.529	24833
824.669	24738
824.809	24791
824.949	24821
825.089	24867
825.228	24738
825.368	24608
825.508	24544
825.648	24601
825.787	24688
825.927	24673
826.067	24616
826.206	24555
826.346	24722
826.485	24692
826.625	24700
826.765	24779
826.904	24745
827.044	24369
827.183	24327
827.323	24414
827.462	24410
827.601	24414
827.741	24273
827.88	24327
828.02	24262
828.159	24201
828.298	24327
828.437	24380
828.577	24292
828.716	24475
828.855	24232
828.994	23996
829.134	23977
829.273	24136
829.412	24174
829.551	23965
829.69	24034
829.829	24057
829.968	24106
830.107	24106
830.246	24018
830.385	23950
830.524	23885
830.663	23809
830.802	23832
830.941	23737
831.08	23539
831.219	23779
831.357	23668
831.496	23824
831.635	23707
831.774	23539
831.913	23455
832.051	23349
832.19	23440
832.329	23360
832.467	23372
832.606	23261
832.744	23311
832.883	23261
833.022	23322
833.16	23334
833.299	23417
833.437	23398
833.576	23414
833.714	23345
833.852	23414
833.991	23436
834.129	23410
834.267	23490
834.406	23372
834.544	23417
834.682	23429
834.821	23421
834.959	23497
835.097	23216
835.235	23505
835.373	23360
835.511	23318
835.65	23330
835.788	23303
835.926	23151
836.064	22908
836.202	23098
836.34	23242
836.478	23334
836.615	23208
836.753	23170
836.891	23178
837.029	23239
837.167	23170
837.305	23071
837.443	23086
837.58	23140
837.718	23044
837.856	23003
837.993	23124
838.131	23075
838.269	22938
838.406	23033
838.544	22896
838.681	22809
838.819	22687
838.956	22603
839.094	22599
839.231	22691
839.369	22675
839.506	22839
839.643	22774
839.781	22607
839.918	22459
840.055	22550
840.193	22519
840.33	22466
840.467	22341
840.604	22580
840.742	22706
840.879	22344
841.016	22455
841.153	22276
841.29	22664
841.427	22329
841.564	22535
841.701	22440
841.838	22386
841.975	22527
842.112	22428
842.249	22322
842.385	22272
842.522	22512
842.659	22356
842.796	22287
842.933	22280
843.069	22150
843.206	22204
843.343	22344
843.479	22249
843.616	22219
843.752	21994
843.889	22128
844.025	22105
844.162	21922
844.298	22078
844.435	22044
844.571	21987
844.708	22124
844.844	22143
844.98	22139
845.117	21994
845.253	21998
845.389	21895
845.525	21751
845.661	21781
845.798	21679
845.934	21736
846.07	21717
846.206	21770
846.342	21846
846.478	21759
846.614	21553
846.75	21454
846.886	21374
847.022	21481
847.158	21507
847.294	21599
847.429	21454
847.565	21469
847.701	21671
847.837	21119
847.972	21142
848.108	21344
848.244	21169
848.379	21058
848.515	21100
848.65	21070
848.786	21039
848.921	21093
849.057	21237
849.192	21116
849.328	21028
849.463	21036
849.598	20956
849.734	20918
849.869	20918
850.004	20838
850.14	20910
850.275	20826
850.41	20834
850.545	20785
850.68	20777
850.815	20861
850.95	20868
851.085	20990
851.22	20921
851.355	20910
851.49	20769
851.625	20834
851.76	20834
851.895	20712
852.03	20724
852.165	20842
852.299	20845
852.434	20979
852.569	20944
852.703	20868
852.838	20796
852.973	21013
853.107	20910
853.242	20743
853.376	20686
853.511	20457
853.645	20632
853.78	20697
853.914	20678
854.048	20689
854.183	20625
854.317	20727
854.451	20921
854.585	20693
854.72	20693
854.854	20788
854.988	20571
855.122	20629
855.256	20530
855.39	20632
855.524	20667
855.658	20617
855.792	20712
855.926	20686
856.06	20720
856.194	20743
856.327	20636
856.461	20613
856.595	20530
856.729	20609
856.862	20674
856.996	20682
857.13	20701
857.263	20807
857.397	20826
857.53	20590
857.664	20678
857.797	20663
857.931	20724
858.064	20727
858.197	20708
858.331	20640
858.464	20552
858.597	20552
858.731	20739
858.864	20602
858.997	20594
859.13	20708
859.263	20648
859.396	20800
859.529	20636
859.662	20587
859.795	20556
859.928	20663
860.061	20750
860.194	20792
860.327	20792
860.46	20629
860.592	20777
860.725	20765
860.858	20697
860.99	20716
861.123	20598
861.256	20541
861.388	20606
861.521	21249
861.653	20560
861.786	20503
861.918	20522
862.05	20465
862.183	20644
862.315	20541
862.447	20583
862.58	20667
862.712	20389
862.844	20278
862.976	20469
863.108	20465
863.24	20743
863.372	20396
863.504	20358
863.636	20309
863.768	20423
863.9	20286
864.032	20294
864.164	20237
864.296	20423
864.428	20450
864.559	20545
864.691	20484
864.823	20221
864.954	20259
865.086	20351
865.217	20267
865.349	20195
865.48	20328
865.612	20210
865.743	20400
865.875	20267
866.006	20256
866.137	20248
866.269	20294
866.4	20332
866.531	20161
866.662	20138
866.793	20252
866.924	20256
867.055	20267
867.186	20256
867.317	20092
867.448	20172
867.579	20176
867.71	20191
867.841	20111
867.972	20138
868.103	20107
868.233	20195
868.364	20298
868.495	20267
868.625	20469
868.756	20579
868.886	20431
869.017	20457
869.147	20564
869.278	20442
869.408	20442
869.539	20431
869.669	20484
869.799	20541
869.929	20541
870.06	20594
870.19	20746
870.32	20701
870.45	20712
870.58	20754
870.71	20868
870.84	21001
870.97	20834
871.1	20826
871.23	21058
871.36	21013
871.489	21039
871.619	20967
871.749	20994
871.879	21116
872.008	21203
872.138	21074
872.267	21032
872.397	20956
872.526	20986
872.656	20918
872.785	20994
872.915	21108
873.044	21157
873.173	21211
873.303	21119
873.432	21047
873.561	21077
873.69	21150
873.819	21127
873.948	21264
874.077	21184
874.206	21005
874.335	21218
874.464	21214
874.593	21370
874.722	21249
874.851	21374
874.979	21325
875.108	21226
875.237	21408
875.365	21214
875.494	21405
875.623	21370
875.751	21302
875.88	21408
876.008	21473
876.136	21500
876.265	21717
876.393	21880
876.521	21720
876.65	21789
876.778	21625
876.906	21625
877.034	21591
877.162	21610
877.29	21625
877.418	21652
877.546	21545
877.674	21564
877.802	21637
877.93	21671
878.058	21648
878.185	21542
878.313	21561
878.441	21644
878.568	21538
878.696	21595
878.824	21679
878.951	21724
879.079	21797
879.206	21979
879.333	21880
879.461	21743
879.588	21930
879.715	21884
879.842	21934
879.97	21667
880.097	21431
880.224	21382
880.351	21568
880.478	21496
880.605	21534
880.732	21378
880.859	21743
880.986	21401
881.112	21424
881.239	21393
881.366	21199
881.493	21184
881.619	21077
881.746	21150
881.872	21199
881.999	21062
882.125	21039
882.252	20998
882.378	21047
882.505	21051
882.631	20769
882.757	20902
882.883	20906
883.01	20807
883.136	20750
883.262	20663
883.388	20724
883.514	20754
883.64	20727
883.766	20735
883.892	20518
884.018	20663
884.143	20735
884.269	20739
884.395	20488
884.52	20393
884.646	20465
884.772	20495
884.897	20278
885.023	20446
885.148	20549
885.274	20499
885.399	20419
885.524	20343
885.65	20419
885.775	20492
885.9	20480
886.025	20522
886.15	20427
886.275	20336
886.4	20320
886.525	20415
886.65	20298
886.775	20450
886.9	20438
887.025	20701
887.149	20488
887.274	20248
887.399	20142
887.523	20195
887.648	20077
887.773	20161
887.897	20225
888.021	20168
888.146	20168
888.27	20286
888.395	20305
888.519	20248
888.643	20180
888.767	20214
888.891	20157
889.015	19982
889.139	20043
889.263	19963
889.387	20180
889.511	20252
889.635	20153
889.759	20065
889.883	20035
890.006	20050
890.13	20092
890.254	20069
890.377	19837
890.501	19727
890.624	19738
890.748	19864
890.871	19628
890.995	19571
891.118	19578
891.241	19590
891.364	19655
891.488	19734
891.611	19594
891.734	19552
891.857	19575
891.98	19700
892.103	19662
892.226	19662
892.349	19559
892.471	19396
892.594	19525
892.717	19605
892.839	19464
892.962	19586
893.085	19643
893.207	19578
893.33	19335
893.452	19460
893.575	19350
893.697	19605
893.819	19677
893.941	19723
894.064	19552
894.186	19396
894.308	19400
894.43	19624
894.552	19635
894.674	19567
894.796	19343
894.918	19495
895.04	19457
895.161	19632
895.283	19575
895.405	19495
895.526	19548
895.648	19365
895.769	19514
895.891	19464
896.012	19677
896.134	19502
896.255	19510
896.376	19411
896.498	19453
896.619	19533
896.74	19422
896.861	19506
896.982	19955
897.103	19951
897.224	19841
897.345	19731
897.466	19708
897.587	19746
897.708	19871
897.828	19658
897.949	19635
898.07	19734
898.19	19685
898.311	19871
898.431	19696
898.552	19674
898.672	19868
898.792	19849
898.913	19689
899.033	19662
899.153	19639
899.273	19468
899.393	19468
899.513	19556
899.633	19472
899.753	19529
899.873	19544
899.993	19639
900.113	19365
900.232	19506
900.352	19426
900.472	19388
900.591	19282
900.711	19422
900.83	19270
900.95	19396
901.069	19396
901.189	19228
901.308	18886
901.427	18814
901.546	18840
901.665	19027
901.784	18920
901.904	18787
902.023	18681
902.141	18456
902.26	18429
902.379	18498
902.498	18483
902.617	18289
902.735	18452
902.854	18346
902.973	18235
903.091	18095
903.21	18038
903.328	18022
903.446	17935
903.565	17878
903.683	17912
903.801	17783
903.919	17836
904.038	17893
904.156	17649
904.274	17665
904.392	17630
904.51	17562
904.627	17657
904.745	17646
904.863	17707
904.981	17570
905.098	17299
905.216	17379
905.334	17303
905.451	17299
905.569	17417
905.686	17372
905.803	17296
905.921	17147
906.038	17383
906.155	17208
906.272	17045
906.389	16946
906.506	16938
906.623	16812
906.74	16843
906.857	16763
906.974	16797
907.091	16915
907.208	16953
907.324	16927
907.441	16831
907.557	16618
907.674	16588
907.79	16436
907.907	16569
908.023	16611
908.139	16641
908.256	16603
908.372	16493
908.488	16531
908.604	16417
908.72	16322
908.836	16265
908.952	16238
909.068	16344
909.184	16390
909.3	16238
909.415	16265
909.531	16306
909.647	16059
909.762	16013
909.878	15956
909.993	15953
910.108	16017
910.224	15953
910.339	16067
910.454	15994
910.57	15930
910.685	15755
910.8	15895
910.915	15956
911.03	15922
911.145	15720
911.259	15644
911.374	15564
911.489	15568
911.604	15374
911.718	15401
911.833	15355
911.947	15348
912.062	15321
912.176	15466
912.291	15386
912.405	15275
912.519	15641
912.633	15526
912.748	15443
912.862	15370
912.976	15214
913.09	15032
913.204	15211
913.318	15188
913.431	15344
913.545	15363
913.659	15321
913.772	15176
913.886	14933
914	15001
914.113	15146
914.226	15104
914.34	15097
914.453	14956
914.566	15032
914.68	15032
914.793	14861
914.906	14720
915.019	14575
915.132	14621
915.245	14621
915.358	14590
915.47	14537
915.583	14716
915.696	14663
915.809	14712
915.921	14731
916.034	14610
916.146	14621
916.259	14480
916.371	14590
916.483	14625
916.595	14484
916.708	14438
916.82	14431
916.932	14469
917.044	14446
917.156	14370
917.268	14370
917.38	14366
917.491	14400
917.603	14328
917.715	14336
917.826	14343
917.938	14221
918.049	14202
918.161	14157
918.272	14328
918.384	14366
918.495	14252
918.606	14115
918.717	14016
918.828	14096
918.939	14073
919.05	14069
919.161	14123
919.272	13845
919.383	13940
919.494	13970
919.604	14168
919.715	14115
919.826	13909
919.936	14035
920.047	14153
920.157	14119
920.267	14286
920.378	14206
920.488	14005
920.598	14221
920.708	14358
920.818	14267
920.928	14240
921.038	14362
921.148	14271
921.258	14054
921.368	13909
921.477	13814
921.587	13784
921.697	13681
921.806	13860
921.916	13601
922.025	13521
922.134	13441
922.244	13327
922.353	13483
922.462	13373
922.571	13240
922.68	13213
922.789	12916
922.898	13080
923.007	13050
923.116	13107
923.224	13065
923.333	13091
923.442	12973
923.55	12989
923.659	13031
923.767	13091
923.876	12817
923.984	12973
924.092	12817
924.201	12871
924.309	12814
924.417	12833
924.525	12791
924.633	12711
924.741	13605
924.849	12559
924.956	12764
925.064	12544
925.172	12448
925.279	12433
925.387	12528
925.494	12563
925.602	12703
925.709	12498
925.816	12376
925.924	12517
926.031	12494
926.138	12517
926.245	12597
926.352	12388
926.459	12540
926.566	12517
926.673	12350
926.779	12403
926.886	12205
926.993	12125
927.099	11973
927.206	11996
927.312	12110
927.419	12106
927.525	12167
927.631	12106
927.737	11984
927.843	12041
927.95	11863
928.056	11931
928.162	11916
928.267	11992
928.373	12582
928.479	12049
928.585	11783
928.69	11931
928.796	11923
928.901	11794
929.007	11657
929.112	11809
929.218	11752
929.323	11733
929.428	11657
929.533	11809
929.638	11562
929.743	11615
929.848	11714
929.953	11630
930.058	11581
930.163	11341
930.267	11387
930.372	11474
930.477	11360
930.581	11573
930.685	11406
930.79	11299
930.894	11277
930.998	11197
931.103	11368
931.207	11018
931.311	10961
931.415	10866
931.519	10694
931.623	10611
