Data from test_V78500241_916.txt Node
Date: Fri Mar 25 15:16:14 CST 2022
User: usil
Spectrometer: V785-0024
Trigger mode: 0
Integration Time (sec): 4.000000E-1
Scans to average: 1
Nonlinearity correction enabled: false
Boxcar width: 0
Storing dark spectrum: false
XAxis mode: Wavelengths
Number of Pixels in Spectrum: 1024
>>>>>Begin Spectral Data<<<<<
801.071	28207
801.214	28010
801.356	27956
801.499	27850
801.641	27599
801.783	27705
801.926	27739
802.068	27793
802.211	27534
802.353	27500
802.496	27462
802.638	27507
802.78	27359
802.923	27157
803.065	27268
803.208	27374
803.35	27443
803.492	27427
803.635	27431
803.777	27420
803.919	27553
804.061	27964
804.204	27599
804.346	27416
804.488	27561
804.63	27576
804.773	27553
804.915	27709
805.057	27656
805.199	27488
805.341	27610
805.483	27774
805.626	27671
805.768	27576
805.91	27568
806.052	27759
806.194	27477
806.336	27804
806.478	27720
806.62	27762
806.762	27888
806.904	27998
807.046	28162
807.188	28059
807.33	28120
807.472	28173
807.614	28166
807.756	28021
807.898	28112
808.04	28002
808.182	27846
808.324	27899
808.465	28109
808.607	28242
808.749	28417
808.891	28409
809.033	28554
809.174	28299
809.316	28363
809.458	28352
809.6	28360
809.741	28440
809.883	28542
810.025	28615
810.166	28611
810.308	28554
810.45	28607
810.591	28523
810.733	28519
810.875	28390
811.016	28341
811.158	28401
811.299	28398
811.441	28497
811.582	28447
811.724	28386
811.865	28386
812.007	28390
812.148	28166
812.29	28337
812.431	28451
812.573	28717
812.714	28687
812.855	28911
812.997	28995
813.138	29128
813.279	29025
813.421	28915
813.562	28911
813.703	28801
813.845	28637
813.986	28497
814.127	28261
814.268	28124
814.41	28181
814.551	27987
814.692	27972
814.833	28097
814.974	28093
815.115	28120
815.256	28139
815.397	28059
815.539	28036
815.68	27850
815.821	27937
815.962	27876
816.103	27873
816.244	27751
816.385	27732
816.526	27530
816.666	27557
816.807	27466
816.948	27439
817.089	27427
817.23	27481
817.371	27310
817.512	27447
817.653	27355
817.793	27321
817.934	27298
818.075	27557
818.216	27408
818.356	27233
818.497	27302
818.638	27135
818.778	27055
818.919	27032
819.06	27146
819.2	27291
819.341	27481
819.481	27386
819.622	27542
819.762	27747
819.903	27599
820.043	27667
820.184	27526
820.324	27576
820.465	27686
820.605	27637
820.746	27488
820.886	27355
821.026	27545
821.167	27572
821.307	27523
821.447	27462
821.588	27351
821.728	27233
821.868	27260
822.008	26918
822.149	26823
822.289	26788
822.429	26678
822.569	26659
822.709	26556
822.849	26385
822.99	26347
823.13	26461
823.27	26473
823.41	26278
823.55	26256
823.69	26237
823.83	26237
823.97	26149
824.11	26054
824.25	26016
824.389	26027
824.529	26077
824.669	26046
824.809	26157
824.949	26084
825.089	25936
825.228	26008
825.368	25894
825.508	25822
825.648	26039
825.787	26001
825.927	25902
826.067	25883
826.206	25932
826.346	25883
826.485	25963
826.625	25978
826.765	25989
826.904	26062
827.044	25658
827.183	25651
827.323	25529
827.462	25696
827.601	25708
827.741	25483
827.88	25689
828.02	25381
828.159	25521
828.298	25563
828.437	25696
828.577	25658
828.716	25719
828.855	25506
828.994	25320
829.134	25358
829.273	25384
829.412	25346
829.551	25320
829.69	25213
829.829	25270
829.968	25430
830.107	25441
830.246	25285
830.385	25354
830.524	25194
830.663	25072
830.802	25000
830.941	24939
831.08	24962
831.219	24992
831.357	25012
831.496	25282
831.635	24901
831.774	24875
831.913	24844
832.051	24559
832.19	24669
832.329	24856
832.467	24608
832.606	24532
832.744	24623
832.883	24661
833.022	24578
833.16	24547
833.299	24620
833.437	24639
833.576	24612
833.714	24757
833.852	24734
833.991	24768
834.129	24719
834.267	24795
834.406	24707
834.544	24726
834.682	24574
834.821	24757
834.959	24772
835.097	24635
835.235	24745
835.373	24631
835.511	24692
835.65	24448
835.788	24532
835.926	24418
836.064	24342
836.202	24330
836.34	24509
836.478	24604
836.615	24437
836.753	24502
836.891	24452
837.029	24597
837.167	24380
837.305	24380
837.443	24361
837.58	24319
837.718	24407
837.856	24388
837.993	24418
838.131	24338
838.269	24270
838.406	24338
838.544	24095
838.681	24003
838.819	23939
838.956	23870
839.094	23695
839.231	23882
839.369	23999
839.506	24174
839.643	24072
839.781	23828
839.918	23805
840.055	23638
840.193	23874
840.33	23691
840.467	23764
840.604	23672
840.742	23908
840.879	23547
841.016	23623
841.153	23653
841.29	23916
841.427	23737
841.564	23775
841.701	23821
841.838	23733
841.975	23608
842.112	23585
842.249	23608
842.385	23433
842.522	23684
842.659	23589
842.796	23440
842.933	23417
843.069	23566
843.206	23364
843.343	23345
843.479	23467
843.616	23414
843.752	23349
843.889	23334
844.025	23509
844.162	23258
844.298	23326
844.435	23223
844.571	23307
844.708	23189
844.844	23395
844.98	23467
845.117	23391
845.253	23250
845.389	23124
845.525	23212
845.661	23105
845.798	23003
845.934	23037
846.07	23022
846.206	23064
846.342	23025
846.478	22938
846.614	22797
846.75	22668
846.886	22877
847.022	22660
847.158	22736
847.294	22660
847.429	22729
847.565	22656
847.701	22987
847.837	22466
847.972	22386
848.108	22497
848.244	22554
848.379	22379
848.515	22291
848.65	22204
848.786	22344
848.921	22424
849.057	22447
849.192	22398
849.328	22375
849.463	22287
849.598	22276
849.734	22314
849.869	22143
850.004	22051
850.14	22067
850.275	22090
850.41	22086
850.545	22082
850.68	21975
850.815	22143
850.95	22177
851.085	22371
851.22	22105
851.355	22162
851.49	22048
851.625	21972
851.76	21956
851.895	22002
852.03	22006
852.165	22029
852.299	22120
852.434	22074
852.569	22093
852.703	22074
852.838	22192
852.973	22177
853.107	22173
853.242	21972
853.376	22063
853.511	21823
853.645	21743
853.78	22078
853.914	21937
854.048	21903
854.183	21797
854.317	22017
854.451	21930
854.585	21785
854.72	21911
854.854	21964
854.988	21922
855.122	21911
855.256	21846
855.39	21789
855.524	21899
855.658	21861
855.792	21960
855.926	21857
856.06	21937
856.194	21960
856.327	21945
856.461	21808
856.595	21819
856.729	21789
856.862	22002
856.996	21857
857.13	21953
857.263	22044
857.397	21987
857.53	21953
857.664	22013
857.797	21987
857.931	22006
858.064	21812
858.197	21991
858.331	21888
858.464	21770
858.597	21755
858.731	21865
858.864	21774
858.997	21911
859.13	21854
859.263	21869
859.396	21953
859.529	21812
859.662	21838
859.795	21724
859.928	21926
860.061	22021
860.194	22029
860.327	21998
860.46	21876
860.592	22021
860.725	22002
860.858	22059
860.99	21987
861.123	21800
861.256	21926
861.388	21934
861.521	22611
861.653	21781
861.786	21690
861.918	21705
862.05	21739
862.183	21812
862.315	21850
862.447	21793
862.58	21747
862.712	21542
862.844	21511
862.976	21762
863.108	21603
863.24	22002
863.372	21538
863.504	21603
863.636	21443
863.768	21648
863.9	21576
864.032	21428
864.164	21526
864.296	21644
864.428	21770
864.559	21648
864.691	21679
864.823	21553
864.954	21553
865.086	21580
865.217	21500
865.349	21428
865.48	21519
865.612	21435
865.743	21622
865.875	21466
866.006	21401
866.137	21492
866.269	21492
866.4	21519
866.531	21458
866.662	21382
866.793	21351
866.924	21382
867.055	21424
867.186	21492
867.317	21302
867.448	21428
867.579	21306
867.71	21291
867.841	21226
867.972	21370
868.103	21336
868.233	21450
868.364	21450
868.495	21507
868.625	21523
868.756	21709
868.886	21481
869.017	21545
869.147	21770
869.278	21865
869.408	21701
869.539	21698
869.669	21690
869.799	21553
869.929	21759
870.06	21774
870.19	21949
870.32	21842
870.45	22010
870.58	22082
870.71	22055
870.84	22200
870.97	21960
871.1	22131
871.23	22261
871.36	22246
871.489	22124
871.619	22093
871.749	22166
871.879	22398
872.008	22375
872.138	22295
872.267	22276
872.397	22120
872.526	22105
872.656	22169
872.785	21987
872.915	22261
873.044	22211
873.173	22124
873.303	22360
873.432	22280
873.561	22276
873.69	22230
873.819	22219
873.948	22253
874.077	22226
874.206	22265
874.335	22192
874.464	22337
874.593	22516
874.722	22459
874.851	22405
874.979	22481
875.108	22584
875.237	22360
875.365	22341
875.494	22470
875.623	22626
875.751	22481
875.88	22527
876.008	22679
876.136	22580
876.265	22755
876.393	22953
876.521	22885
876.65	22972
876.778	22847
876.906	22782
877.034	22801
877.162	22862
877.29	22786
877.418	22900
877.546	22824
877.674	22679
877.802	22869
877.93	22801
878.058	22805
878.185	22790
878.313	22774
878.441	22854
878.568	22759
878.696	22603
878.824	22873
878.951	22949
879.079	22991
879.206	23200
879.333	23003
879.461	22809
879.588	22839
879.715	22927
879.842	23022
879.97	22961
880.097	22698
880.224	22641
880.351	22634
880.478	22653
880.605	22508
880.732	22687
880.859	22900
880.986	22641
881.112	22637
881.239	22443
881.366	22314
881.493	22265
881.619	22215
881.746	22169
881.872	22147
881.999	22185
882.125	22211
882.252	22268
882.378	22219
882.505	22238
882.631	22120
882.757	21835
882.883	21991
883.01	21949
883.136	21785
883.262	21709
883.388	21724
883.514	21846
883.64	21884
883.766	21804
883.892	21690
884.018	21739
884.143	21751
884.269	21857
884.395	21477
884.52	21614
884.646	21610
884.772	21397
884.897	21447
885.023	21641
885.148	21682
885.274	21682
885.399	21587
885.524	21580
885.65	21530
885.775	21511
885.9	21439
886.025	21572
886.15	21572
886.275	21450
886.4	21473
886.525	21473
886.65	21515
886.775	21359
886.9	21599
887.025	21850
887.149	21492
887.274	21355
887.399	21294
887.523	21207
887.648	21173
887.773	21241
887.897	21405
888.021	21302
888.146	21165
888.27	21443
888.395	21351
888.519	21397
888.643	21329
888.767	21355
888.891	21252
889.015	21096
889.139	21093
889.263	21089
889.387	21180
889.511	21310
889.635	21268
889.759	20960
889.883	21100
890.006	21043
890.13	21131
890.254	21089
890.377	21009
890.501	20781
890.624	20853
890.748	20830
890.871	20834
890.995	20594
891.118	20568
891.241	20617
891.364	20762
891.488	20804
891.611	20674
891.734	20613
891.857	20727
891.98	20727
892.103	20720
892.226	20659
892.349	20575
892.471	20457
892.594	20560
892.717	20590
892.839	20552
892.962	20541
893.085	20549
893.207	20568
893.33	20427
893.452	20461
893.575	20476
893.697	20530
893.819	20724
893.941	20716
894.064	20735
894.186	20526
894.308	20492
894.43	20522
894.552	20750
894.674	20530
894.796	20370
894.918	20461
895.04	20488
895.161	20507
895.283	20701
895.405	20636
895.526	20484
895.648	20507
895.769	20629
895.891	20564
896.012	20590
896.134	20568
896.255	20484
896.376	20442
896.498	20571
896.619	20636
896.74	20533
896.861	20537
896.982	20815
897.103	21005
897.224	20842
897.345	20819
897.466	20651
897.587	20720
897.708	20887
897.828	20746
897.949	20587
898.07	20568
898.19	20606
898.311	20804
898.431	20762
898.552	20693
898.672	20921
898.792	20788
898.913	20781
899.033	20670
899.153	20583
899.273	20419
899.393	20552
899.513	20469
899.633	20484
899.753	20488
899.873	20484
899.993	20484
900.113	20393
900.232	20503
900.352	20309
900.472	20229
900.591	20176
900.711	20187
900.83	20195
900.95	20355
901.069	20385
901.189	20130
901.308	20016
901.427	19788
901.546	19852
901.665	19902
901.784	19750
901.904	19776
902.023	19693
902.141	19426
902.26	19297
902.379	19422
902.498	19308
902.617	19392
902.735	19335
902.854	19346
902.973	19289
903.091	19072
903.21	19023
903.328	19099
903.446	18909
903.565	18916
903.683	18764
903.801	18559
903.919	18772
904.038	18719
904.156	18418
904.274	18608
904.392	18544
904.51	18547
904.627	18486
904.745	18593
904.863	18658
904.981	18289
905.098	18266
905.216	18194
905.334	18281
905.451	18213
905.569	18277
905.686	18308
905.803	18194
905.921	17920
906.038	18136
906.155	18019
906.272	17920
906.389	17809
906.506	17863
906.623	17809
906.74	17691
906.857	17676
906.974	17710
907.091	17885
907.208	17889
907.324	17866
907.441	17691
907.557	17589
907.674	17497
907.79	17520
907.907	17364
908.023	17505
908.139	17600
908.256	17474
908.372	17341
908.488	17322
908.604	17292
908.72	17136
908.836	17200
908.952	17208
909.068	17239
909.184	17318
909.3	17261
909.415	17212
909.531	17178
909.647	16999
909.762	16858
909.878	16831
909.993	16930
910.108	16873
910.224	16911
910.339	16919
910.454	16805
910.57	16687
910.685	16660
910.8	16923
910.915	16862
911.03	16653
911.145	16679
911.259	16512
911.374	16481
911.489	16398
911.604	16417
911.718	16223
911.833	16230
911.947	16143
912.062	16044
912.176	16124
912.291	16200
912.405	16257
912.519	16367
912.633	16459
912.748	16356
912.862	16173
912.976	16158
913.09	15876
913.204	15953
913.318	16021
913.431	16154
913.545	16093
913.659	16185
913.772	15953
913.886	15888
914	15778
914.113	15956
914.226	15941
914.34	15869
914.453	15713
914.566	15850
914.68	15789
914.793	15625
914.906	15580
915.019	15435
915.132	15439
915.245	15382
915.358	15496
915.47	15466
915.583	15332
915.696	15523
915.809	15622
915.921	15526
916.034	15336
916.146	15389
916.259	15313
916.371	15401
916.483	15370
916.595	15336
916.708	15161
916.82	15302
916.932	15142
917.044	15279
917.156	15165
917.268	15055
917.38	15108
917.491	15154
917.603	15097
917.715	15074
917.826	15195
917.938	15058
918.049	15005
918.161	14956
918.272	15230
918.384	15135
918.495	15005
918.606	14883
918.717	14883
918.828	14876
918.939	14807
919.05	14750
919.161	14743
919.272	14594
919.383	14712
919.494	14853
919.604	15077
919.715	14834
919.826	14682
919.936	14792
920.047	14830
920.157	14823
920.267	14979
920.378	14743
920.488	14785
920.598	14986
920.708	15077
920.818	14876
920.928	14948
921.038	15093
921.148	14956
921.258	14708
921.368	14720
921.477	14526
921.587	14484
921.697	14358
921.806	14480
921.916	14290
922.025	14301
922.134	14180
922.244	14214
922.353	14244
922.462	14164
922.571	13947
922.68	13852
922.789	13788
922.898	13746
923.007	13750
923.116	13830
923.224	13795
923.333	13868
923.442	13723
923.55	13628
923.659	13639
923.767	13696
923.876	13601
923.984	13696
924.092	13594
924.201	13548
924.309	13571
924.417	13597
924.525	13426
924.633	13453
924.741	14225
924.849	13221
924.956	13331
925.064	13194
925.172	13149
925.279	13240
925.387	13228
925.494	13247
925.602	13358
925.709	13293
925.816	13091
925.924	13156
926.031	13240
926.138	13141
926.245	13175
926.352	13080
926.459	13232
926.566	13187
926.673	13099
926.779	12894
926.886	12916
926.993	12833
927.099	12776
927.206	12703
927.312	12677
927.419	12798
927.525	12646
927.631	12741
927.737	12627
927.843	12642
927.95	12532
928.056	12429
928.162	12551
928.267	12566
928.373	13270
928.479	12601
928.585	12448
928.69	12441
928.796	12498
928.901	12422
929.007	12330
929.112	12376
929.218	12330
929.323	12334
929.428	12186
929.533	12452
929.638	12365
929.743	12300
929.848	12232
929.953	12350
930.058	12049
930.163	11912
930.267	12030
930.372	12117
930.477	11866
930.581	12136
930.685	12007
930.79	11817
930.894	11809
930.998	11764
931.103	11882
931.207	11619
931.311	11463
931.415	11376
931.519	11330
931.623	11212
