Data from test_V78500241_2624.txt Node
Date: Fri Mar 25 15:28:07 CST 2022
User: usil
Spectrometer: V785-0024
Trigger mode: 0
Integration Time (sec): 4.000000E-1
Scans to average: 1
Nonlinearity correction enabled: false
Boxcar width: 0
Storing dark spectrum: false
XAxis mode: Wavelengths
Number of Pixels in Spectrum: 1024
>>>>>Begin Spectral Data<<<<<
801.071	27260
801.214	27123
801.356	26944
801.499	26857
801.641	26731
801.783	26629
801.926	26746
802.068	26712
802.211	26583
802.353	26617
802.496	26499
802.638	26336
802.78	26336
802.923	26320
803.065	26244
803.208	26195
803.35	26328
803.492	26492
803.635	26598
803.777	26453
803.919	26453
804.061	26834
804.204	26571
804.346	26442
804.488	26355
804.63	26549
804.773	26438
804.915	26545
805.057	26541
805.199	26415
805.341	26549
805.483	26655
805.626	26503
805.768	26480
805.91	26655
806.052	26689
806.194	26530
806.336	26804
806.478	26560
806.62	26602
806.762	26640
806.904	26735
807.046	27085
807.188	27051
807.33	27077
807.472	27017
807.614	26944
807.756	26948
807.898	26773
808.04	26785
808.182	26838
808.324	26895
808.465	26918
808.607	27058
808.749	27150
808.891	27401
809.033	27389
809.174	27252
809.316	27207
809.458	27135
809.6	27089
809.741	27329
809.883	27306
810.025	27492
810.166	27576
810.308	27431
810.45	27408
810.591	27454
810.733	27169
810.875	27230
811.016	27009
811.158	26986
811.299	27218
811.441	27329
811.582	27427
811.724	27287
811.865	27142
812.007	27047
812.148	27100
812.29	27211
812.431	27340
812.573	27549
812.714	27625
812.855	27705
812.997	27819
813.138	27998
813.279	27663
813.421	27583
813.562	27675
813.703	27405
813.845	27416
813.986	26948
814.127	26921
814.268	26891
814.41	26906
814.551	26815
814.692	26883
814.833	26731
814.974	26785
815.115	26883
815.256	26758
815.397	26708
815.539	26644
815.68	26590
815.821	26537
815.962	26632
816.103	26446
816.244	26476
816.385	26522
816.526	26313
816.666	26164
816.807	26103
816.948	26267
817.089	26282
817.23	26149
817.371	26142
817.512	26100
817.653	25963
817.793	26088
817.934	26084
818.075	25963
818.216	26096
818.356	26058
818.497	25997
818.638	25860
818.778	25818
818.919	25833
819.06	25932
819.2	25925
819.341	26107
819.481	26039
819.622	26313
819.762	26400
819.903	26351
820.043	26176
820.184	26103
820.324	26096
820.465	26214
820.605	26187
820.746	26271
820.886	26107
821.026	26084
821.167	26191
821.307	26267
821.447	26267
821.588	25909
821.728	25974
821.868	25814
822.008	25567
822.149	25563
822.289	25460
822.429	25343
822.569	25282
822.709	25202
822.849	25148
822.99	25031
823.13	25107
823.27	24977
823.41	24928
823.55	24795
823.69	24894
823.83	24932
823.97	24757
824.11	24745
824.25	24665
824.389	24814
824.529	24844
824.669	24840
824.809	24810
824.949	24810
825.089	24749
825.228	24688
825.368	24551
825.508	24627
825.648	24582
825.787	24650
825.927	24616
826.067	24665
826.206	24532
826.346	24673
826.485	24616
826.625	24532
826.765	24677
826.904	24585
827.044	24388
827.183	24372
827.323	24251
827.462	24289
827.601	24300
827.741	24323
827.88	24235
828.02	24220
828.159	24270
828.298	24338
828.437	24486
828.577	24281
828.716	24273
828.855	24197
828.994	24068
829.134	24038
829.273	24129
829.412	24110
829.551	24018
829.69	24072
829.829	24110
829.968	24003
830.107	24247
830.246	24007
830.385	24057
830.524	24018
830.663	23828
830.802	23764
830.941	23646
831.08	23596
831.219	23745
831.357	23752
831.496	23901
831.635	23703
831.774	23543
831.913	23551
832.051	23512
832.19	23452
832.329	23501
832.467	23391
832.606	23269
832.744	23216
832.883	23311
833.022	23296
833.16	23155
833.299	23448
833.437	23368
833.576	23349
833.714	23250
833.852	23478
833.991	23421
834.129	23486
834.267	23478
834.406	23414
834.544	23444
834.682	23402
834.821	23303
834.959	23497
835.097	23349
835.235	23417
835.373	23372
835.511	23322
835.65	23303
835.788	23322
835.926	23181
836.064	23147
836.202	23197
836.34	23185
836.478	23360
836.615	23235
836.753	23185
836.891	23269
837.029	23181
837.167	23242
837.305	23197
837.443	23113
837.58	23121
837.718	23193
837.856	23124
837.993	23067
838.131	23071
838.269	22995
838.406	22957
838.544	22946
838.681	22809
838.819	22717
838.956	22611
839.094	22588
839.231	22630
839.369	22706
839.506	22949
839.643	22744
839.781	22626
839.918	22466
840.055	22626
840.193	22615
840.33	22443
840.467	22554
840.604	22447
840.742	22866
840.879	22436
841.016	22516
841.153	22394
841.29	22538
841.427	22634
841.564	22664
841.701	22508
841.838	22527
841.975	22382
842.112	22599
842.249	22306
842.385	22310
842.522	22519
842.659	22367
842.796	22367
842.933	22238
843.069	22215
843.206	22162
843.343	22333
843.479	22185
843.616	22226
843.752	22090
843.889	22051
844.025	22173
844.162	22032
844.298	22051
844.435	22029
844.571	22002
844.708	22048
844.844	22234
844.98	22173
845.117	22154
845.253	22006
845.389	21827
845.525	21960
845.661	21880
845.798	21766
845.934	21907
846.07	21778
846.206	21854
846.342	21850
846.478	21717
846.614	21667
846.75	21557
846.886	21504
847.022	21652
847.158	21435
847.294	21545
847.429	21405
847.565	21454
847.701	21804
847.837	21313
847.972	21237
848.108	21351
848.244	21275
848.379	21077
848.515	21165
848.65	21119
848.786	21036
848.921	21055
849.057	21207
849.192	21135
849.328	21108
849.463	21116
849.598	21058
849.734	20944
849.869	20998
850.004	20975
850.14	20872
850.275	20994
850.41	20811
850.545	20941
850.68	20864
850.815	20834
850.95	20883
851.085	21096
851.22	20948
851.355	20971
851.49	20849
851.625	20910
851.76	20777
851.895	20792
852.03	20746
852.165	20963
852.299	20986
852.434	21001
852.569	20925
852.703	20975
852.838	20937
852.973	20948
853.107	21013
853.242	20716
853.376	20758
853.511	20602
853.645	20769
853.78	20891
853.914	20735
854.048	20686
854.183	20670
854.317	20811
854.451	20918
854.585	20708
854.72	20731
854.854	20876
854.988	20724
855.122	20640
855.256	20495
855.39	20609
855.524	20785
855.658	20777
855.792	20804
855.926	20678
856.06	20746
856.194	20796
856.327	20708
856.461	20606
856.595	20765
856.729	20678
856.862	20640
856.996	20773
857.13	20758
857.263	20705
857.397	20777
857.53	20754
857.664	20815
857.797	20788
857.931	20849
858.064	20735
858.197	20750
858.331	20629
858.464	20678
858.597	20640
858.731	20632
858.864	20678
858.997	20609
859.13	20693
859.263	20701
859.396	20838
859.529	20651
859.662	20667
859.795	20594
859.928	20743
860.061	20815
860.194	20868
860.327	20762
860.46	20648
860.592	20944
860.725	20861
860.858	20826
860.99	20743
861.123	20606
861.256	20735
861.388	20571
861.521	21500
861.653	20575
861.786	20423
861.918	20495
862.05	20571
862.183	20590
862.315	20549
862.447	20678
862.58	20590
862.712	20343
862.844	20339
862.976	20446
863.108	20503
863.24	20902
863.372	20282
863.504	20434
863.636	20305
863.768	20476
863.9	20381
864.032	20317
864.164	20389
864.296	20419
864.428	20587
864.559	20488
864.691	20568
864.823	20446
864.954	20381
865.086	20415
865.217	20347
865.349	20294
865.48	20355
865.612	20355
865.743	20412
865.875	20336
866.006	20214
866.137	20267
866.269	20366
866.4	20355
866.531	20210
866.662	20210
866.793	20309
866.924	20332
867.055	20240
867.186	20256
867.317	20202
867.448	20202
867.579	20298
867.71	20035
867.841	20233
867.972	20206
868.103	20256
868.233	20244
868.364	20263
868.495	20180
868.625	20568
868.756	20537
868.886	20446
869.017	20609
869.147	20473
869.278	20602
869.408	20465
869.539	20381
869.669	20583
869.799	20606
869.929	20682
870.06	20609
870.19	20758
870.32	20746
870.45	20868
870.58	20899
870.71	20998
870.84	20986
870.97	20880
871.1	20948
871.23	21074
871.36	21127
871.489	21043
871.619	20994
871.749	21089
871.879	21066
872.008	21287
872.138	21043
872.267	21005
872.397	20979
872.526	20944
872.656	20891
872.785	20994
872.915	21032
873.044	21081
873.173	21062
873.303	21096
873.432	21131
873.561	21085
873.69	21207
873.819	21058
873.948	21169
874.077	21138
874.206	21173
874.335	21112
874.464	21180
874.593	21363
874.722	21340
874.851	21412
874.979	21397
875.108	21431
875.237	21344
875.365	21348
875.494	21412
875.623	21378
875.751	21408
875.88	21351
876.008	21530
876.136	21530
876.265	21739
876.393	21998
876.521	21895
876.65	21766
876.778	21679
876.906	21766
877.034	21720
877.162	21667
877.29	21743
877.418	21800
877.546	21591
877.674	21572
877.802	21656
877.93	21709
878.058	21705
878.185	21526
878.313	21663
878.441	21663
878.568	21660
878.696	21599
878.824	21774
878.951	21774
879.079	21804
879.206	21972
879.333	21907
879.461	21827
879.588	21789
879.715	21915
879.842	21979
879.97	21728
880.097	21526
880.224	21542
880.351	21614
880.478	21785
880.605	21538
880.732	21526
880.859	21781
880.986	21610
881.112	21515
881.239	21447
881.366	21340
881.493	21252
881.619	21146
881.746	21131
881.872	21017
881.999	21169
882.125	21051
882.252	21218
882.378	21184
882.505	21226
882.631	20998
882.757	20975
882.883	20891
883.01	20773
883.136	20868
883.262	20746
883.388	20663
883.514	20872
883.64	20887
883.766	20773
883.892	20541
884.018	20651
884.143	20750
884.269	20773
884.395	20530
884.52	20374
884.646	20488
884.772	20412
884.897	20389
885.023	20571
885.148	20514
885.274	20587
885.399	20636
885.524	20488
885.65	20541
885.775	20400
885.9	20320
886.025	20606
886.15	20552
886.275	20389
886.4	20419
886.525	20389
886.65	20446
886.775	20450
886.9	20530
887.025	20678
887.149	20465
887.274	20290
887.399	20259
887.523	20305
887.648	20336
887.773	20252
887.897	20324
888.021	20248
888.146	20214
888.27	20278
888.395	20423
888.519	20286
888.643	20332
888.767	20434
888.891	20233
889.015	20077
889.139	20153
889.263	20024
889.387	20092
889.511	20282
889.635	20161
889.759	20161
889.883	20005
890.006	20115
890.13	20187
890.254	19894
890.377	19944
890.501	19936
890.624	19776
890.748	19909
890.871	19632
890.995	19575
891.118	19556
891.241	19696
891.364	19670
891.488	19742
891.611	19651
891.734	19575
891.857	19666
891.98	19647
892.103	19719
892.226	19689
892.349	19575
892.471	19449
892.594	19628
892.717	19582
892.839	19563
892.962	19529
893.085	19666
893.207	19472
893.33	19403
893.452	19384
893.575	19559
893.697	19499
893.819	19723
893.941	19769
894.064	19666
894.186	19419
894.308	19495
894.43	19567
894.552	19643
894.674	19582
894.796	19358
894.918	19426
895.04	19457
895.161	19525
895.283	19616
895.405	19499
895.526	19575
895.648	19495
895.769	19696
895.891	19483
896.012	19712
896.134	19586
896.255	19548
896.376	19472
896.498	19582
896.619	19624
896.74	19499
896.861	19575
896.982	19833
897.103	20039
897.224	19795
897.345	19727
897.466	19670
897.587	19734
897.708	19822
897.828	19776
897.949	19715
898.07	19635
898.19	19814
898.311	19803
898.431	19723
898.552	19772
898.672	19803
898.792	19917
898.913	19738
899.033	19742
899.153	19605
899.273	19384
899.393	19537
899.513	19472
899.633	19624
899.753	19605
899.873	19464
899.993	19666
900.113	19499
900.232	19552
900.352	19491
900.472	19274
900.591	19247
900.711	19316
900.83	19285
900.95	19422
901.069	19392
901.189	19213
901.308	19015
901.427	18875
901.546	18863
901.665	18875
901.784	18905
901.904	18779
902.023	18764
902.141	18563
902.26	18410
902.379	18475
902.498	18441
902.617	18391
902.735	18441
902.854	18437
902.973	18380
903.091	18144
903.21	18110
903.328	18098
903.446	18007
903.565	17897
903.683	17954
903.801	17878
903.919	17965
904.038	17870
904.156	17722
904.274	17832
904.392	17726
904.51	17691
904.627	17642
904.745	17722
904.863	17714
904.981	17433
905.098	17341
905.216	17341
905.334	17463
905.451	17398
905.569	17337
905.686	17398
905.803	17231
905.921	17128
906.038	17315
906.155	17296
906.272	17105
906.389	16972
906.506	17037
906.623	17022
906.74	17003
906.857	16820
906.974	16835
907.091	16877
907.208	17041
907.324	16946
907.441	16778
907.557	16691
907.674	16683
907.79	16656
907.907	16573
908.023	16626
908.139	16588
908.256	16637
908.372	16554
908.488	16485
908.604	16500
908.72	16318
908.836	16360
908.952	16318
909.068	16344
909.184	16474
909.3	16360
909.415	16459
909.531	16348
909.647	16246
909.762	16086
909.878	16029
909.993	16032
910.108	16071
910.224	16036
910.339	16082
910.454	15934
910.57	15960
910.685	15873
910.8	16059
910.915	15987
911.03	15922
911.145	15717
911.259	15584
911.374	15595
911.489	15633
911.604	15557
911.718	15367
911.833	15519
911.947	15344
912.062	15313
912.176	15443
912.291	15393
912.405	15515
912.519	15618
912.633	15595
912.748	15519
912.862	15408
912.976	15298
913.09	15127
913.204	15233
913.318	15325
913.431	15302
913.545	15283
913.659	15344
913.772	15188
913.886	15017
914	15085
914.113	15119
914.226	15135
914.34	15055
914.453	14941
914.566	15066
914.68	14963
914.793	14880
914.906	14716
915.019	14636
915.132	14594
915.245	14549
915.358	14613
915.47	14712
915.583	14629
915.696	14686
915.809	14731
915.921	14876
916.034	14568
916.146	14640
916.259	14693
916.371	14590
916.483	14518
916.595	14545
916.708	14499
916.82	14530
916.932	14533
917.044	14461
917.156	14415
917.268	14358
917.38	14336
917.491	14320
917.603	14404
917.715	14442
917.826	14385
917.938	14229
918.049	14149
918.161	14161
918.272	14446
918.384	14408
918.495	14240
918.606	14157
918.717	14161
918.828	14145
918.939	14107
919.05	14043
919.161	14107
919.272	13879
919.383	13955
919.494	14164
919.604	14317
919.715	14054
919.826	13959
919.936	14069
920.047	14149
920.157	14187
920.267	14210
920.378	14107
920.488	14062
920.598	14237
920.708	14351
920.818	14263
920.928	14252
921.038	14446
921.148	14256
921.258	14031
921.368	13951
921.477	13769
921.587	13791
921.697	13746
921.806	13719
921.916	13655
922.025	13578
922.134	13434
922.244	13324
922.353	13563
922.462	13392
922.571	13407
922.68	13221
922.789	13194
922.898	13065
923.007	13099
923.116	13149
923.224	13103
923.333	13145
923.442	12935
923.55	12962
923.659	12985
923.767	12981
923.876	12916
923.984	12962
924.092	12768
924.201	12894
924.309	12901
924.417	12833
924.525	12738
924.633	12829
924.741	13731
924.849	12486
924.956	12741
925.064	12566
925.172	12578
925.279	12517
925.387	12486
925.494	12601
925.602	12692
925.709	12616
925.816	12422
925.924	12452
926.031	12608
926.138	12486
926.245	12544
926.352	12422
926.459	12601
926.566	12627
926.673	12426
926.779	12353
926.886	12273
926.993	12163
927.099	12228
927.206	12076
927.312	12057
927.419	12175
927.525	12079
927.631	12125
927.737	12068
927.843	11961
927.95	11912
928.056	12007
928.162	11969
928.267	11988
928.373	12544
928.479	12125
928.585	11836
928.69	11980
928.796	11923
928.901	11832
929.007	11695
929.112	11832
929.218	11874
929.323	11657
929.428	11710
929.533	11843
929.638	11573
929.743	11668
929.848	11722
929.953	11653
930.058	11520
930.163	11376
930.267	11349
930.372	11581
930.477	11311
930.581	11516
930.685	11429
930.79	11288
930.894	11337
930.998	11265
931.103	11402
931.207	11037
931.311	10896
931.415	10946
931.519	10717
931.623	10725
