Data from test_V78500241_2257.txt Node
Date: Fri Mar 25 15:25:34 CST 2022
User: usil
Spectrometer: V785-0024
Trigger mode: 0
Integration Time (sec): 4.000000E-1
Scans to average: 1
Nonlinearity correction enabled: false
Boxcar width: 0
Storing dark spectrum: false
XAxis mode: Wavelengths
Number of Pixels in Spectrum: 1024
>>>>>Begin Spectral Data<<<<<
801.071	27732
801.214	27587
801.356	27348
801.499	27329
801.641	27321
801.783	27165
801.926	27207
802.068	27138
802.211	27264
802.353	27043
802.496	26933
802.638	26807
802.78	26929
802.923	26807
803.065	26686
803.208	26807
803.35	26746
803.492	26918
803.635	27039
803.777	26853
803.919	27036
804.061	27405
804.204	27077
804.346	26990
804.488	26891
804.63	26895
804.773	26933
804.915	27009
805.057	27028
805.199	26979
805.341	27070
805.483	27245
805.626	27150
805.768	26990
805.91	27154
806.052	27146
806.194	26857
806.336	27279
806.478	27089
806.62	27138
806.762	27291
806.904	27382
807.046	27622
807.188	27587
807.33	27519
807.472	27663
807.614	27435
807.756	27500
807.898	27549
808.04	27222
808.182	27195
808.324	27485
808.465	27492
808.607	27762
808.749	27759
808.891	27633
809.033	27937
809.174	27823
809.316	27846
809.458	27732
809.6	27717
809.741	27850
809.883	27838
810.025	28090
810.166	28078
810.308	28055
810.45	27861
810.591	27888
810.733	27698
810.875	27717
811.016	27713
811.158	27610
811.299	27812
811.441	27808
811.582	27968
811.724	27781
811.865	27564
812.007	27656
812.148	27682
812.29	27880
812.431	27945
812.573	28048
812.714	28249
812.855	28139
812.997	28375
813.138	28516
813.279	28291
813.421	28253
813.562	28139
813.703	28063
813.845	28036
813.986	27595
814.127	27549
814.268	27507
814.41	27488
814.551	27511
814.692	27561
814.833	27367
814.974	27431
815.115	27336
815.256	27272
815.397	27291
815.539	27302
815.68	27214
815.821	26990
815.962	27116
816.103	27237
816.244	26994
816.385	26944
816.526	27089
816.666	26765
816.807	26617
816.948	26788
817.089	26689
817.23	26606
817.371	26590
817.512	26693
817.653	26777
817.793	26590
817.934	26708
818.075	26678
818.216	26754
818.356	26689
818.497	26640
818.638	26537
818.778	26511
818.919	26446
819.06	26560
819.2	26636
819.341	26697
819.481	26674
819.622	26857
819.762	27108
819.903	27017
820.043	26979
820.184	26762
820.324	26929
820.465	26887
820.605	26796
820.746	26765
820.886	26602
821.026	26781
821.167	26701
821.307	26777
821.447	26739
821.588	26648
821.728	26537
821.868	26161
822.008	26088
822.149	26183
822.289	26096
822.429	25925
822.569	25845
822.709	25898
822.849	25681
822.99	25647
823.13	25616
823.27	25655
823.41	25674
823.55	25400
823.69	25582
823.83	25609
823.97	25521
824.11	25293
824.25	25122
824.389	25362
824.529	25312
824.669	25327
824.809	25343
824.949	25327
825.089	25320
825.228	25506
825.368	25232
825.508	25171
825.648	25133
825.787	25206
825.927	25270
826.067	25228
826.206	25110
826.346	25213
826.485	25282
826.625	25335
826.765	25270
826.904	25209
827.044	24837
827.183	24856
827.323	24878
827.462	24928
827.601	24840
827.741	24863
827.88	24935
828.02	24760
828.159	24764
828.298	24856
828.437	25008
828.577	24795
828.716	24996
828.855	24711
828.994	24574
829.134	24601
829.273	24711
829.412	24452
829.551	24540
829.69	24513
829.829	24684
829.968	24612
830.107	24540
830.246	24441
830.385	24460
830.524	24494
830.663	24277
830.802	24285
830.941	24232
831.08	24068
831.219	24342
831.357	24140
831.496	24391
831.635	24148
831.774	24129
831.913	24068
832.051	23931
832.19	23916
832.329	24038
832.467	23794
832.606	23855
832.744	23729
832.883	23832
833.022	23707
833.16	23897
833.299	23885
833.437	23980
833.576	23916
833.714	23813
833.852	23874
833.991	23901
834.129	23973
834.267	23859
834.406	23863
834.544	23885
834.682	23889
834.821	24026
834.959	24079
835.097	23859
835.235	23885
835.373	23771
835.511	23939
835.65	23779
835.788	23703
835.926	23646
836.064	23535
836.202	23497
836.34	23703
836.478	23775
836.615	23794
836.753	23547
836.891	23745
837.029	23786
837.167	23665
837.305	23573
837.443	23745
837.58	23726
837.718	23771
837.856	23482
837.993	23478
838.131	23520
838.269	23493
838.406	23512
838.544	23414
838.681	23216
838.819	23140
838.956	23018
839.094	23033
839.231	23105
839.369	23242
839.506	23512
839.643	23364
839.781	22976
839.918	23025
840.055	23006
840.193	23006
840.33	23086
840.467	23014
840.604	23071
840.742	23246
840.879	22790
841.016	22900
841.153	22881
841.29	23083
841.427	23018
841.564	23083
841.701	23010
841.838	22881
841.975	22881
842.112	22850
842.249	22835
842.385	22702
842.522	22946
842.659	22820
842.796	22854
842.933	22733
843.069	22653
843.206	22645
843.343	22698
843.479	22710
843.616	22622
843.752	22462
843.889	22417
844.025	22698
844.162	22500
844.298	22694
844.435	22443
844.571	22344
844.708	22611
844.844	22717
844.98	22660
845.117	22656
845.253	22310
845.389	22344
845.525	22413
845.661	22341
845.798	22268
845.934	22325
846.07	22204
846.206	22112
846.342	22394
846.478	22253
846.614	22109
846.75	21949
846.886	21979
847.022	21930
847.158	21945
847.294	21960
847.429	21956
847.565	22051
847.701	22124
847.837	21675
847.972	21644
848.108	21865
848.244	21641
848.379	21572
848.515	21564
848.65	21591
848.786	21652
848.921	21515
849.057	21587
849.192	21587
849.328	21610
849.463	21515
849.598	21530
849.734	21393
849.869	21469
850.004	21393
850.14	21374
850.275	21355
850.41	21184
850.545	21298
850.68	21260
850.815	21264
850.95	21340
851.085	21549
851.22	21363
851.355	21325
851.49	21348
851.625	21424
851.76	21233
851.895	21214
852.03	21329
852.165	21313
852.299	21348
852.434	21344
852.569	21237
852.703	21272
852.838	21477
852.973	21523
853.107	21412
853.242	21279
853.376	21256
853.511	20952
853.645	21119
853.78	21363
853.914	21264
854.048	21226
854.183	21188
854.317	21203
854.451	21408
854.585	21119
854.72	21165
854.854	21245
854.988	21074
855.122	21150
855.256	21085
855.39	21203
855.524	21154
855.658	21146
855.792	21131
855.926	21123
856.06	21298
856.194	21188
856.327	21074
856.461	21066
856.595	21108
856.729	21032
856.862	21230
856.996	21256
857.13	21287
857.263	21222
857.397	21199
857.53	21199
857.664	21249
857.797	21207
857.931	21233
858.064	21180
858.197	21294
858.331	21058
858.464	21085
858.597	21043
858.731	21211
858.864	21062
858.997	21043
859.13	21150
859.263	21169
859.396	21313
859.529	21070
859.662	21195
859.795	20990
859.928	21116
860.061	21378
860.194	21374
860.327	21176
860.46	21104
860.592	21199
860.725	21329
860.858	21317
860.99	21272
861.123	21146
861.256	21184
861.388	21024
861.521	21922
861.653	20994
861.786	21020
861.918	21009
862.05	21085
862.183	20986
862.315	21024
862.447	21127
862.58	21176
862.712	20963
862.844	20758
862.976	21028
863.108	20918
863.24	21268
863.372	20834
863.504	20769
863.636	20902
863.768	20807
863.9	20826
864.032	20838
864.164	20765
864.296	20891
864.428	21036
864.559	21013
864.691	20899
864.823	20830
864.954	20895
865.086	20746
865.217	20746
865.349	20651
865.48	20754
865.612	20720
865.743	20891
865.875	20868
866.006	20830
866.137	20746
866.269	20735
866.4	20701
866.531	20765
866.662	20674
866.793	20678
866.924	20674
867.055	20830
867.186	20686
867.317	20750
867.448	20625
867.579	20724
867.71	20571
867.841	20575
867.972	20754
868.103	20629
868.233	20617
868.364	20667
868.495	20872
868.625	20933
868.756	20960
868.886	20937
869.017	20872
869.147	20963
869.278	21081
869.408	20849
869.539	20914
869.669	20982
869.799	20986
869.929	21039
870.06	21127
870.19	21188
870.32	21135
870.45	21287
870.58	21260
870.71	21431
870.84	21378
870.97	21340
871.1	21317
871.23	21466
871.36	21481
871.489	21302
871.619	21587
871.749	21572
871.879	21553
872.008	21583
872.138	21545
872.267	21568
872.397	21329
872.526	21401
872.656	21412
872.785	21378
872.915	21557
873.044	21557
873.173	21572
873.303	21618
873.432	21538
873.561	21720
873.69	21542
873.819	21519
873.948	21610
874.077	21663
874.206	21523
874.335	21580
874.464	21629
874.593	21800
874.722	21618
874.851	21793
874.979	21835
875.108	21797
875.237	21660
875.365	21618
875.494	21675
875.623	21850
875.751	21717
875.88	21854
876.008	21880
876.136	22002
876.265	22306
876.393	22333
876.521	22291
876.65	22325
876.778	22120
876.906	22116
877.034	22097
877.162	22177
877.29	22059
877.418	22051
877.546	22154
877.674	22154
877.802	22143
877.93	22116
878.058	22040
878.185	22051
878.313	22162
878.441	22124
878.568	22051
878.696	22021
878.824	22090
878.951	22173
879.079	22200
879.206	22519
879.333	22265
879.461	22135
879.588	22272
879.715	22192
879.842	22322
879.97	22150
880.097	22040
880.224	21903
880.351	22002
880.478	22013
880.605	21888
880.732	21937
880.859	22211
880.986	21930
881.112	21857
881.239	21812
881.366	21823
881.493	21542
881.619	21481
881.746	21618
881.872	21637
881.999	21485
882.125	21496
882.252	21496
882.378	21523
882.505	21526
882.631	21355
882.757	21176
882.883	21249
883.01	21298
883.136	21085
883.262	21127
883.388	21047
883.514	21264
883.64	21291
883.766	21199
883.892	21009
884.018	21085
884.143	21066
884.269	21310
884.395	21017
884.52	20857
884.646	20849
884.772	20743
884.897	20838
885.023	20823
885.148	21028
885.274	21074
885.399	20849
885.524	20845
885.65	20861
885.775	20796
885.9	20887
886.025	20967
886.15	21051
886.275	20853
886.4	20743
886.525	20861
886.65	20781
886.775	20804
886.9	20979
887.025	21085
887.149	20792
887.274	20762
887.399	20689
887.523	20724
887.648	20716
887.773	20415
887.897	20663
888.021	20613
888.146	20552
888.27	20720
888.395	20724
888.519	20651
888.643	20701
888.767	20556
888.891	20625
889.015	20457
889.139	20522
889.263	20419
889.387	20568
889.511	20705
889.635	20564
889.759	20450
889.883	20370
890.006	20377
890.13	20518
890.254	20362
890.377	20355
890.501	20218
890.624	20161
890.748	20172
890.871	20164
890.995	20065
891.118	19841
891.241	20027
891.364	19993
891.488	20202
891.611	20050
891.734	20035
891.857	20073
891.98	19963
892.103	20054
892.226	20058
892.349	19944
892.471	19788
892.594	19955
892.717	20054
892.839	20008
892.962	19967
893.085	19978
893.207	20005
893.33	19837
893.452	19765
893.575	19932
893.697	19921
893.819	20005
893.941	20107
894.064	20107
894.186	19940
894.308	19750
894.43	20031
894.552	19978
894.674	19997
894.796	19765
894.918	19852
895.04	19814
895.161	19833
895.283	19940
895.405	19875
895.526	19830
895.648	19890
895.769	19928
895.891	19909
896.012	19951
896.134	19986
896.255	19898
896.376	19909
896.498	19951
896.619	20016
896.74	19864
896.861	19993
896.982	20195
897.103	20301
897.224	20225
897.345	20027
897.466	20050
897.587	20183
897.708	20145
897.828	20168
897.949	20138
898.07	19928
898.19	19955
898.311	20221
898.431	20065
898.552	20202
898.672	20218
898.792	20252
898.913	20126
899.033	20058
899.153	19837
899.273	19871
899.393	19894
899.513	19951
899.633	19909
899.753	19765
899.873	19925
899.993	19849
900.113	19814
900.232	19822
900.352	19742
900.472	19761
900.591	19662
900.711	19738
900.83	19674
900.95	19696
901.069	19727
901.189	19628
901.308	19381
901.427	19259
901.546	19285
901.665	19308
901.784	19259
901.904	19095
902.023	19107
902.141	18779
902.26	18886
902.379	18810
902.498	18810
902.617	18802
902.735	18795
902.854	18681
902.973	18753
903.091	18544
903.21	18471
903.328	18422
903.446	18311
903.565	18338
903.683	18216
903.801	18254
903.919	18228
904.038	18163
904.156	18163
904.274	18095
904.392	17980
904.51	17984
904.627	17980
904.745	18030
904.863	18076
904.981	17821
905.098	17760
905.216	17653
905.334	17707
905.451	17790
905.569	17646
905.686	17802
905.803	17532
905.921	17547
906.038	17646
906.155	17665
906.272	17410
906.389	17326
906.506	17200
906.623	17170
906.74	17227
906.857	17216
906.974	17170
907.091	17353
907.208	17265
907.324	17227
907.441	17056
907.557	16991
907.674	16968
907.79	16923
907.907	16961
908.023	16923
908.139	16965
908.256	16976
908.372	16835
908.488	16782
908.604	16702
908.72	16698
908.836	16668
908.952	16675
909.068	16641
909.184	16771
909.3	16683
909.415	16740
909.531	16679
909.647	16428
909.762	16299
909.878	16341
909.993	16322
910.108	16390
910.224	16253
910.339	16360
910.454	16226
910.57	16310
910.685	16150
910.8	16432
910.915	16344
911.03	16128
911.145	15987
911.259	15930
911.374	15903
911.489	15964
911.604	15907
911.718	15751
911.833	15690
911.947	15542
912.062	15526
912.176	15656
912.291	15648
912.405	15736
912.519	15865
912.633	15945
912.748	15766
912.862	15637
912.976	15568
913.09	15447
913.204	15545
913.318	15625
913.431	15629
913.545	15713
913.659	15614
913.772	15542
913.886	15443
914	15374
914.113	15310
914.226	15462
914.34	15336
914.453	15173
914.566	15370
914.68	15188
914.793	15241
914.906	14998
915.019	15070
915.132	14933
915.245	15005
915.358	14998
915.47	14952
915.583	14910
915.696	14960
915.809	15093
915.921	15070
916.034	14876
916.146	14933
916.259	14883
916.371	14906
916.483	14895
916.595	14727
916.708	14743
916.82	14735
916.932	14682
917.044	14750
917.156	14697
917.268	14617
917.38	14705
917.491	14587
917.603	14651
917.715	14594
917.826	14686
917.938	14473
918.049	14484
918.161	14568
918.272	14621
918.384	14636
918.495	14469
918.606	14404
918.717	14305
918.828	14419
918.939	14343
919.05	14218
919.161	14336
919.272	14138
919.383	14324
919.494	14332
919.604	14564
919.715	14362
919.826	14248
919.936	14358
920.047	14434
920.157	14339
920.267	14514
920.378	14305
920.488	14339
920.598	14434
920.708	14697
920.818	14419
920.928	14495
921.038	14552
921.148	14499
921.258	14278
921.368	14225
921.477	14046
921.587	14062
921.697	13852
921.806	14103
921.916	13936
922.025	13769
922.134	13753
922.244	13727
922.353	13689
922.462	13624
922.571	13525
922.68	13377
922.789	13324
922.898	13354
923.007	13335
923.116	13308
923.224	13327
923.333	13297
923.442	13312
923.55	13202
923.659	13228
923.767	13293
923.876	13247
923.984	13190
924.092	13053
924.201	13107
924.309	13164
924.417	13129
924.525	13038
924.633	12996
924.741	13909
924.849	12814
924.956	12848
925.064	12787
925.172	12783
925.279	12776
925.387	12825
925.494	12817
925.602	12802
925.709	12844
925.816	12681
925.924	12741
926.031	12814
926.138	12738
926.245	12772
926.352	12662
926.459	12719
926.566	12779
926.673	12620
926.779	12601
926.886	12566
926.993	12338
927.099	12342
927.206	12327
927.312	12304
927.419	12353
927.525	12338
927.631	12372
927.737	12273
927.843	12167
927.95	12060
928.056	12167
928.162	12205
928.267	12273
928.373	12795
928.479	12247
928.585	11992
928.69	12182
928.796	12201
928.901	12098
929.007	11874
929.112	12049
929.218	11996
929.323	11988
929.428	11969
929.533	12038
929.638	11798
929.743	11863
929.848	11927
929.953	11855
930.058	11756
930.163	11691
930.267	11657
930.372	11798
930.477	11570
930.581	11764
930.685	11600
930.79	11474
930.894	11558
930.998	11417
931.103	11714
931.207	11189
931.311	11235
931.415	11079
931.519	10831
931.623	10873
