Data from test_V78500241_959.txt Node
Date: Fri Mar 25 15:16:32 CST 2022
User: usil
Spectrometer: V785-0024
Trigger mode: 0
Integration Time (sec): 4.000000E-1
Scans to average: 1
Nonlinearity correction enabled: false
Boxcar width: 0
Storing dark spectrum: false
XAxis mode: Wavelengths
Number of Pixels in Spectrum: 1024
>>>>>Begin Spectral Data<<<<<
801.071	27884
801.214	27892
801.356	27629
801.499	27603
801.641	27458
801.783	27443
801.926	27530
802.068	27530
802.211	27397
802.353	27283
802.496	27154
802.638	27222
802.78	27036
802.923	27039
803.065	27017
803.208	27081
803.35	27138
803.492	27195
803.635	27382
803.777	27169
803.919	27306
804.061	27599
804.204	27401
804.346	27378
804.488	27260
804.63	27294
804.773	27310
804.915	27397
805.057	27427
805.199	27275
805.341	27450
805.483	27500
805.626	27583
805.768	27302
805.91	27386
806.052	27538
806.194	27439
806.336	27701
806.478	27504
806.62	27454
806.762	27747
806.904	27770
807.046	28021
807.188	27934
807.33	27751
807.472	27907
807.614	27816
807.756	27922
807.898	27800
808.04	27835
808.182	27728
808.324	27667
808.465	27854
808.607	27945
808.749	28051
808.891	28067
809.033	28386
809.174	28109
809.316	28006
809.458	28120
809.6	28101
809.741	28329
809.883	28223
810.025	28538
810.166	28280
810.308	28337
810.45	28367
810.591	28409
810.733	28204
810.875	28116
811.016	28158
811.158	28021
811.299	28226
811.441	28234
811.582	28462
811.724	28211
811.865	28029
812.007	28177
812.148	28147
812.29	28200
812.431	28322
812.573	28493
812.714	28577
812.855	28717
812.997	28885
813.138	28862
813.279	28885
813.421	28812
813.562	28664
813.703	28596
813.845	28371
813.986	28177
814.127	28036
814.268	27812
814.41	27911
814.551	27873
814.692	27983
814.833	27789
814.974	27770
815.115	27884
815.256	27705
815.397	27743
815.539	27705
815.68	27641
815.821	27553
815.962	27583
816.103	27504
816.244	27538
816.385	27462
816.526	27458
816.666	27317
816.807	27245
816.948	27180
817.089	27157
817.23	27252
817.371	27127
817.512	27096
817.653	27127
817.793	27001
817.934	27119
818.075	27123
818.216	27218
818.356	27043
818.497	27058
818.638	26963
818.778	26906
818.919	26883
819.06	26910
819.2	27036
819.341	27203
819.481	27192
819.622	27233
819.762	27549
819.903	27587
820.043	27386
820.184	27332
820.324	27256
820.465	27127
820.605	27336
820.746	27245
820.886	27161
821.026	27249
821.167	27184
821.307	27329
821.447	27055
821.588	27093
821.728	26979
821.868	26708
822.008	26575
822.149	26617
822.289	26568
822.429	26313
822.569	26286
822.709	26358
822.849	26240
822.99	26180
823.13	26130
823.27	25970
823.41	26050
823.55	25921
823.69	25997
823.83	25868
823.97	25852
824.11	25746
824.25	25750
824.389	25655
824.529	25795
824.669	25852
824.809	25879
824.949	25837
825.089	25902
825.228	25864
825.368	25525
825.508	25655
825.648	25658
825.787	25799
825.927	25830
826.067	25582
826.206	25635
826.346	25529
826.485	25731
826.625	25742
826.765	25624
826.904	25651
827.044	25388
827.183	25434
827.323	25381
827.462	25358
827.601	25350
827.741	25282
827.88	25407
828.02	25171
828.159	25464
828.298	25419
828.437	25438
828.577	25312
828.716	25460
828.855	25255
828.994	25027
829.134	25088
829.273	25042
829.412	25034
829.551	25031
829.69	24989
829.829	25175
829.968	25126
830.107	25133
830.246	25141
830.385	25004
830.524	24943
830.663	24772
830.802	24844
830.941	24696
831.08	24776
831.219	24905
831.357	24798
831.496	25103
831.635	24654
831.774	24665
831.913	24585
832.051	24540
832.19	24490
832.329	24502
832.467	24365
832.606	24197
832.744	24323
832.883	24277
833.022	24384
833.16	24254
833.299	24414
833.437	24350
833.576	24361
833.714	24414
833.852	24452
833.991	24384
834.129	24486
834.267	24475
834.406	24452
834.544	24509
834.682	24403
834.821	24448
834.959	24654
835.097	24346
835.235	24505
835.373	24601
835.511	24441
835.65	24391
835.788	24433
835.926	24125
836.064	24064
836.202	24102
836.34	24174
836.478	24327
836.615	24205
836.753	24289
836.891	24289
837.029	24216
837.167	24285
837.305	24251
837.443	24262
837.58	24140
837.718	24251
837.856	24178
837.993	23961
838.131	24057
838.269	23874
838.406	24034
838.544	23859
838.681	23684
838.819	23767
838.956	23676
839.094	23577
839.231	23604
839.369	23767
839.506	23939
839.643	23809
839.781	23627
839.918	23596
840.055	23604
840.193	23440
840.33	23573
840.467	23528
840.604	23657
840.742	23874
840.879	23436
841.016	23391
841.153	23379
841.29	23581
841.427	23433
841.564	23471
841.701	23543
841.838	23455
841.975	23307
842.112	23356
842.249	23341
842.385	23376
842.522	23592
842.659	23261
842.796	23105
842.933	23337
843.069	23235
843.206	23109
843.343	23360
843.479	23326
843.616	23277
843.752	23109
843.889	22923
844.025	23151
844.162	23083
844.298	23109
844.435	22896
844.571	23052
844.708	22980
844.844	23155
844.98	23208
845.117	23086
845.253	22892
845.389	22900
845.525	22976
845.661	22900
845.798	22725
845.934	22721
846.07	22793
846.206	22805
846.342	22725
846.478	22828
846.614	22607
846.75	22474
846.886	22645
847.022	22637
847.158	22500
847.294	22478
847.429	22569
847.565	22478
847.701	22702
847.837	22265
847.972	22295
848.108	22314
848.244	22280
848.379	22295
848.515	22040
848.65	22078
848.786	22181
848.921	22112
849.057	22215
849.192	22154
849.328	22143
849.463	22112
849.598	22128
849.734	21953
849.869	21960
850.004	21907
850.14	22002
850.275	21930
850.41	21838
850.545	21907
850.68	21854
850.815	21934
850.95	21823
851.085	21907
851.22	21968
851.355	21930
851.49	21888
851.625	21774
851.76	21797
851.895	21747
852.03	21804
852.165	21861
852.299	21789
852.434	21892
852.569	21907
852.703	21903
852.838	21915
852.973	21949
853.107	21903
853.242	21793
853.376	21675
853.511	21591
853.645	21629
853.78	21762
853.914	21610
854.048	21652
854.183	21690
854.317	21728
854.451	21873
854.585	21663
854.72	21629
854.854	21751
854.988	21568
855.122	21804
855.256	21439
855.39	21660
855.524	21774
855.658	21778
855.792	21682
855.926	21682
856.06	21781
856.194	21835
856.327	21698
856.461	21595
856.595	21568
856.729	21694
856.862	21895
856.996	21603
857.13	21728
857.263	21713
857.397	21747
857.53	21660
857.664	21717
857.797	21854
857.931	21755
858.064	21865
858.197	21819
858.331	21762
858.464	21576
858.597	21583
858.731	21538
858.864	21701
858.997	21595
859.13	21648
859.263	21743
859.396	21770
859.529	21713
859.662	21724
859.795	21568
859.928	21690
860.061	21774
860.194	21915
860.327	21732
860.46	21663
860.592	21823
860.725	21979
860.858	21797
860.99	21690
861.123	21622
861.256	21599
861.388	21709
861.521	22447
861.653	21538
861.786	21530
861.918	21473
862.05	21599
862.183	21545
862.315	21652
862.447	21747
862.58	21572
862.712	21439
862.844	21443
862.976	21511
863.108	21351
863.24	21739
863.372	21306
863.504	21401
863.636	21374
863.768	21378
863.9	21511
864.032	21370
864.164	21393
864.296	21389
864.428	21466
864.559	21462
864.691	21485
864.823	21382
864.954	21393
865.086	21306
865.217	21492
865.349	21165
865.48	21279
865.612	21348
865.743	21336
865.875	21340
866.006	21256
866.137	21313
866.269	21386
866.4	21272
866.531	21214
866.662	21157
866.793	21192
866.924	21180
867.055	21207
867.186	21241
867.317	21184
867.448	21214
867.579	21195
867.71	21070
867.841	21127
867.972	21241
868.103	21058
868.233	21260
868.364	21188
868.495	21332
868.625	21344
868.756	21553
868.886	21412
869.017	21408
869.147	21583
869.278	21549
869.408	21492
869.539	21477
869.669	21485
869.799	21481
869.929	21534
870.06	21473
870.19	21709
870.32	21701
870.45	21797
870.58	21831
870.71	21926
870.84	21968
870.97	21819
871.1	21861
871.23	21956
871.36	22109
871.489	21869
871.619	22074
871.749	22112
871.879	22067
872.008	22196
872.138	21972
872.267	22025
872.397	21941
872.526	21918
872.656	21895
872.785	21846
872.915	21911
873.044	22173
873.173	22097
873.303	22063
873.432	22169
873.561	22109
873.69	21991
873.819	21991
873.948	22040
874.077	22105
874.206	21975
874.335	22074
874.464	22150
874.593	22291
874.722	22318
874.851	22215
874.979	22325
875.108	22360
875.237	22329
875.365	22173
875.494	22318
875.623	22295
875.751	22287
875.88	22344
876.008	22348
876.136	22489
876.265	22649
876.393	22706
876.521	22771
876.65	22733
876.778	22736
876.906	22637
877.034	22660
877.162	22592
877.29	22531
877.418	22584
877.546	22504
877.674	22736
877.802	22668
877.93	22577
878.058	22580
878.185	22527
878.313	22698
878.441	22626
878.568	22462
878.696	22554
878.824	22668
878.951	22668
879.079	22729
879.206	22866
879.333	22664
879.461	22615
879.588	22691
879.715	22862
879.842	22946
879.97	22626
880.097	22527
880.224	22371
880.351	22409
880.478	22493
880.605	22325
880.732	22390
880.859	22744
880.986	22485
881.112	22470
881.239	22295
881.366	22074
881.493	22150
881.619	21972
881.746	21998
881.872	22143
881.999	21949
882.125	21998
882.252	22128
882.378	22006
882.505	22143
882.631	21937
882.757	21743
882.883	21785
883.01	21694
883.136	21728
883.262	21694
883.388	21515
883.514	21671
883.64	21762
883.766	21629
883.892	21481
884.018	21576
884.143	21728
884.269	21720
884.395	21431
884.52	21313
884.646	21370
884.772	21256
884.897	21226
885.023	21241
885.148	21287
885.274	21462
885.399	21348
885.524	21287
885.65	21370
885.775	21382
885.9	21443
886.025	21443
886.15	21397
886.275	21233
886.4	21230
886.525	21291
886.65	21275
886.775	21203
886.9	21374
887.025	21515
887.149	21275
887.274	21062
887.399	21230
887.523	21169
887.648	20967
887.773	20906
887.897	21203
888.021	21154
888.146	20982
888.27	21226
888.395	21169
888.519	21146
888.643	21173
888.767	21157
888.891	21024
889.015	20834
889.139	21032
889.263	20956
889.387	21013
889.511	21036
889.635	21013
889.759	20834
889.883	20971
890.006	20998
890.13	20902
890.254	20800
890.377	20746
890.501	20640
890.624	20701
890.748	20602
890.871	20621
890.995	20446
891.118	20415
891.241	20461
891.364	20427
891.488	20545
891.611	20480
891.734	20465
891.857	20511
891.98	20480
892.103	20495
892.226	20469
892.349	20389
892.471	20187
892.594	20400
892.717	20438
892.839	20332
892.962	20393
893.085	20560
893.207	20305
893.33	20358
893.452	20381
893.575	20419
893.697	20305
893.819	20511
893.941	20663
894.064	20374
894.186	20282
894.308	20351
894.43	20457
894.552	20492
894.674	20423
894.796	20286
894.918	20415
895.04	20305
895.161	20389
895.283	20377
895.405	20305
895.526	20278
895.648	20328
895.769	20434
895.891	20336
896.012	20503
896.134	20465
896.255	20328
896.376	20396
896.498	20377
896.619	20290
896.74	20336
896.861	20328
896.982	20613
897.103	20933
897.224	20758
897.345	20549
897.466	20549
897.587	20556
897.708	20746
897.828	20621
897.949	20560
898.07	20370
898.19	20404
898.311	20636
898.431	20434
898.552	20533
898.672	20648
898.792	20625
898.913	20526
899.033	20484
899.153	20427
899.273	20240
899.393	20317
899.513	20400
899.633	20263
899.753	20256
899.873	20229
899.993	20301
900.113	20202
900.232	20282
900.352	20142
900.472	20100
900.591	20035
900.711	20149
900.83	20005
900.95	20130
901.069	20088
901.189	20016
901.308	19788
901.427	19613
901.546	19803
901.665	19689
901.784	19601
901.904	19502
902.023	19483
902.141	19285
902.26	19164
902.379	19236
902.498	19228
902.617	19156
902.735	19251
902.854	19206
902.973	19012
903.091	18951
903.21	18772
903.328	18829
903.446	18711
903.565	18639
903.683	18760
903.801	18521
903.919	18631
904.038	18585
904.156	18410
904.274	18513
904.392	18391
904.51	18365
904.627	18414
904.745	18395
904.863	18464
904.981	18292
905.098	18140
905.216	18140
905.334	18155
905.451	18049
905.569	18091
905.686	18072
905.803	17996
905.921	17901
906.038	17923
906.155	17908
906.272	17775
906.389	17726
906.506	17657
906.623	17680
906.74	17699
906.857	17539
906.974	17421
907.091	17634
907.208	17722
907.324	17520
907.441	17532
907.557	17398
907.674	17387
907.79	17193
907.907	17353
908.023	17242
908.139	17345
908.256	17265
908.372	17277
908.488	17178
908.604	17075
908.72	17056
908.836	17102
908.952	16927
909.068	17109
909.184	17242
909.3	17140
909.415	17124
909.531	17071
909.647	16816
909.762	16892
909.878	16759
909.993	16687
910.108	16759
910.224	16694
910.339	16634
910.454	16634
910.57	16569
910.685	16531
910.8	16812
910.915	16706
911.03	16569
911.145	16352
911.259	16363
911.374	16382
911.489	16291
911.604	16139
911.718	16143
911.833	16044
911.947	15918
912.062	15857
912.176	16071
912.291	16063
912.405	16059
912.519	16234
912.633	16261
912.748	16124
912.862	16082
912.976	15873
913.09	15850
913.204	15892
913.318	15857
913.431	16029
913.545	15998
913.659	15903
913.772	15873
913.886	15686
914	15728
914.113	15808
914.226	15861
914.34	15743
914.453	15523
914.566	15774
914.68	15633
914.793	15519
914.906	15363
915.019	15264
915.132	15226
915.245	15317
915.358	15363
915.47	15382
915.583	15329
915.696	15313
915.809	15500
915.921	15545
916.034	15260
916.146	15142
916.259	15199
916.371	15348
916.483	15359
916.595	15188
916.708	15066
916.82	15074
916.932	15085
917.044	15028
917.156	15047
917.268	14963
917.38	14933
917.491	14849
917.603	14918
917.715	15085
917.826	15028
917.938	14834
918.049	14823
918.161	14998
918.272	15001
918.384	14979
918.495	14838
918.606	14750
918.717	14731
918.828	14826
918.939	14739
919.05	14629
919.161	14697
919.272	14541
919.383	14518
919.494	14670
919.604	14826
919.715	14708
919.826	14518
919.936	14625
920.047	14777
920.157	14674
920.267	14777
920.378	14705
920.488	14689
920.598	14804
920.708	15013
920.818	14796
920.928	14845
921.038	14982
921.148	14864
921.258	14610
921.368	14564
921.477	14473
921.587	14400
921.697	14358
921.806	14374
921.916	14210
922.025	14058
922.134	14084
922.244	13898
922.353	14149
922.462	13856
922.571	13875
922.68	13742
922.789	13731
922.898	13700
923.007	13616
923.116	13700
923.224	13647
923.333	13655
923.442	13613
923.55	13495
923.659	13540
923.767	13586
923.876	13445
923.984	13597
924.092	13350
924.201	13441
924.309	13441
924.417	13434
924.525	13358
924.633	13403
924.741	14290
924.849	13145
924.956	13358
925.064	13160
925.172	13012
925.279	13080
925.387	13084
925.494	13141
925.602	13217
925.709	13152
925.816	12939
925.924	13019
926.031	13091
926.138	13031
926.245	13057
926.352	13008
926.459	13103
926.566	13110
926.673	12947
926.779	12817
926.886	12920
926.993	12692
927.099	12662
927.206	12585
927.312	12601
927.419	12707
927.525	12631
927.631	12677
927.737	12563
927.843	12498
927.95	12376
928.056	12521
928.162	12517
928.267	12479
928.373	13152
928.479	12551
928.585	12426
928.69	12319
928.796	12418
928.901	12372
929.007	12186
929.112	12384
929.218	12224
929.323	12239
929.428	12163
929.533	12330
929.638	12106
929.743	12114
929.848	12163
929.953	12140
930.058	12026
930.163	11843
930.267	11958
930.372	12003
930.477	11756
930.581	12079
930.685	11923
930.79	11752
930.894	11851
930.998	11729
931.103	11927
931.207	11562
931.311	11444
931.415	11330
931.519	11216
931.623	11121
