Data from test_V78500241_974.txt Node
Date: Fri Mar 25 15:16:38 CST 2022
User: usil
Spectrometer: V785-0024
Trigger mode: 0
Integration Time (sec): 4.000000E-1
Scans to average: 1
Nonlinearity correction enabled: false
Boxcar width: 0
Storing dark spectrum: false
XAxis mode: Wavelengths
Number of Pixels in Spectrum: 1024
>>>>>Begin Spectral Data<<<<<
801.071	28207
801.214	28021
801.356	27876
801.499	27880
801.641	27819
801.783	27770
801.926	27884
802.068	27797
802.211	27785
802.353	27675
802.496	27462
802.638	27492
802.78	27397
802.923	27473
803.065	27458
803.208	27313
803.35	27481
803.492	27637
803.635	27701
803.777	27561
803.919	27583
804.061	27797
804.204	27713
804.346	27633
804.488	27511
804.63	27679
804.773	27557
804.915	27648
805.057	27819
805.199	27682
805.341	27675
805.483	27869
805.626	27766
805.768	27724
805.91	27736
806.052	27724
806.194	27629
806.336	27926
806.478	27918
806.62	27793
806.762	27991
806.904	28063
807.046	28440
807.188	28265
807.33	28287
807.472	28261
807.614	28070
807.756	28253
807.898	28032
808.04	28059
808.182	28017
808.324	27949
808.465	28040
808.607	28428
808.749	28531
808.891	28459
809.033	28531
809.174	28485
809.316	28428
809.458	28546
809.6	28432
809.741	28535
809.883	28622
810.025	28599
810.166	28694
810.308	28805
810.45	28637
810.591	28691
810.733	28386
810.875	28500
811.016	28409
811.158	28352
811.299	28596
811.441	28664
811.582	28542
811.724	28455
811.865	28436
812.007	28470
812.148	28516
812.29	28493
812.431	28557
812.573	28938
812.714	28946
812.855	29044
812.997	29136
813.138	29235
813.279	29143
813.421	28976
813.562	29014
813.703	28873
813.845	28660
813.986	28485
814.127	28219
814.268	28265
814.41	28329
814.551	28188
814.692	28337
814.833	27994
814.974	28063
815.115	28242
815.256	27991
815.397	28025
815.539	28059
815.68	27926
815.821	27861
815.962	27918
816.103	27991
816.244	27983
816.385	27762
816.526	27793
816.666	27424
816.807	27511
816.948	27515
817.089	27648
817.23	27545
817.371	27519
817.512	27515
817.653	27496
817.793	27500
817.934	27515
818.075	27595
818.216	27340
818.356	27481
818.497	27287
818.638	27233
818.778	27256
818.919	27230
819.06	27241
819.2	27466
819.341	27511
819.481	27580
819.622	27591
819.762	27831
819.903	27789
820.043	27717
820.184	27591
820.324	27599
820.465	27641
820.605	27599
820.746	27595
820.886	27549
821.026	27515
821.167	27519
821.307	27705
821.447	27500
821.588	27370
821.728	27306
821.868	27188
822.008	27093
822.149	26921
822.289	26971
822.429	26731
822.569	26682
822.709	26708
822.849	26514
822.99	26415
823.13	26408
823.27	26480
823.41	26313
823.55	26161
823.69	26355
823.83	26298
823.97	26187
824.11	26119
824.25	26081
824.389	26214
824.529	26237
824.669	26248
824.809	26336
824.949	26282
825.089	26237
825.228	26248
825.368	25868
825.508	26054
825.648	25993
825.787	26062
825.927	26122
826.067	26005
826.206	25860
826.346	26065
826.485	26130
826.625	25883
826.765	26157
826.904	26077
827.044	25655
827.183	25845
827.323	25651
827.462	25712
827.601	25731
827.741	25814
827.88	25818
828.02	25537
828.159	25666
828.298	25780
828.437	25769
828.577	25696
828.716	25833
828.855	25780
828.994	25510
829.134	25472
829.273	25643
829.412	25396
829.551	25358
829.69	25567
829.829	25301
829.968	25563
830.107	25544
830.246	25415
830.385	25407
830.524	25282
830.663	25278
830.802	25133
830.941	25171
831.08	25076
831.219	25095
831.357	25107
831.496	25285
831.635	25065
831.774	25046
831.913	24768
832.051	24821
832.19	24875
832.329	24935
832.467	24753
832.606	24738
832.744	24722
832.883	24722
833.022	24738
833.16	24757
833.299	24696
833.437	24700
833.576	24905
833.714	24844
833.852	24806
833.991	24821
834.129	24817
834.267	24840
834.406	24901
834.544	24909
834.682	24886
834.821	24661
834.959	24928
835.097	24783
835.235	24817
835.373	24787
835.511	24802
835.65	24726
835.788	24585
835.926	24479
836.064	24403
836.202	24422
836.34	24696
836.478	24658
836.615	24555
836.753	24711
836.891	24734
837.029	24730
837.167	24597
837.305	24593
837.443	24513
837.58	24429
837.718	24540
837.856	24654
837.993	24437
838.131	24399
838.269	24353
838.406	24342
838.544	24213
838.681	24121
838.819	24232
838.956	24003
839.094	23847
839.231	23931
839.369	24060
839.506	24327
839.643	24171
839.781	24003
839.918	23954
840.055	23904
840.193	23916
840.33	23863
840.467	23832
840.604	23832
840.742	24178
840.879	23638
841.016	23794
841.153	23752
841.29	23794
841.427	23923
841.564	23863
841.701	23821
841.838	23745
841.975	23836
842.112	23733
842.249	23668
842.385	23619
842.522	23771
842.659	23680
842.796	23551
842.933	23615
843.069	23634
843.206	23600
843.343	23615
843.479	23630
843.616	23642
843.752	23402
843.889	23493
844.025	23452
844.162	23379
844.298	23402
844.435	23391
844.571	23360
844.708	23444
844.844	23459
844.98	23547
845.117	23436
845.253	23231
845.389	23269
845.525	23292
845.661	23303
845.798	23235
845.934	23098
846.07	23162
846.206	23136
846.342	23204
846.478	23006
846.614	22721
846.75	22729
846.886	22736
847.022	22744
847.158	22831
847.294	22915
847.429	22797
847.565	22862
847.701	23044
847.837	22531
847.972	22413
848.108	22607
848.244	22596
848.379	22478
848.515	22478
848.65	22398
848.786	22337
848.921	22478
849.057	22618
849.192	22546
849.328	22599
849.463	22554
849.598	22257
849.734	22329
849.869	22402
850.004	22200
850.14	22223
850.275	22181
850.41	22101
850.545	22173
850.68	22097
850.815	22242
850.95	22135
851.085	22306
851.22	22223
851.355	22215
851.49	22204
851.625	22112
851.76	22230
851.895	21975
852.03	22116
852.165	22181
852.299	22261
852.434	22284
852.569	22185
852.703	22242
852.838	22215
852.973	22272
853.107	22276
853.242	22120
853.376	22143
853.511	21835
853.645	22036
853.78	22150
853.914	22135
854.048	22040
854.183	22013
854.317	22109
854.451	22287
854.585	22044
854.72	22010
854.854	22150
854.988	22010
855.122	21991
855.256	21899
855.39	22070
855.524	22097
855.658	21987
855.792	22090
855.926	22010
856.06	21953
856.194	22105
856.327	21975
856.461	21930
856.595	21915
856.729	22082
856.862	22196
856.996	22124
857.13	22074
857.263	22143
857.397	22242
857.53	21899
857.664	22090
857.797	22051
857.931	22036
858.064	22040
858.197	22177
858.331	21964
858.464	21949
858.597	21846
858.731	22006
858.864	21945
858.997	21861
859.13	22006
859.263	22070
859.396	22040
859.529	22029
859.662	21888
859.795	21934
859.928	22025
860.061	22169
860.194	22268
860.327	21994
860.46	21987
860.592	22082
860.725	22112
860.858	22154
860.99	22013
861.123	21945
861.256	21994
861.388	22002
861.521	22710
861.653	21949
861.786	21926
861.918	21918
862.05	21972
862.183	22044
862.315	21949
862.447	22128
862.58	22055
862.712	21701
862.844	21698
862.976	21789
863.108	21812
863.24	22029
863.372	21732
863.504	21842
863.636	21728
863.768	21751
863.9	21778
864.032	21599
864.164	21576
864.296	21770
864.428	21812
864.559	21679
864.691	21759
864.823	21797
864.954	21713
865.086	21606
865.217	21599
865.349	21580
865.48	21606
865.612	21511
865.743	21690
865.875	21591
866.006	21542
866.137	21629
866.269	21641
866.4	21641
866.531	21641
866.662	21526
866.793	21519
866.924	21450
867.055	21599
867.186	21641
867.317	21496
867.448	21344
867.579	21564
867.71	21439
867.841	21428
867.972	21481
868.103	21545
868.233	21447
868.364	21614
868.495	21603
868.625	21717
868.756	21857
868.886	21583
869.017	21888
869.147	21892
869.278	21854
869.408	21819
869.539	21850
869.669	21983
869.799	21816
869.929	21934
870.06	21903
870.19	22029
870.32	21983
870.45	22025
870.58	22177
870.71	22204
870.84	22249
870.97	22196
871.1	22192
871.23	22344
871.36	22443
871.489	22150
871.619	22261
871.749	22329
871.879	22398
872.008	22375
872.138	22398
872.267	22325
872.397	22242
872.526	22173
872.656	22147
872.785	22280
872.915	22462
873.044	22417
873.173	22497
873.303	22443
873.432	22405
873.561	22459
873.69	22390
873.819	22363
873.948	22474
874.077	22276
874.206	22375
874.335	22299
874.464	22523
874.593	22679
874.722	22523
874.851	22611
874.979	22702
875.108	22618
875.237	22538
875.365	22527
875.494	22626
875.623	22637
875.751	22573
875.88	22637
876.008	22675
876.136	22668
876.265	23060
876.393	23041
876.521	23071
876.65	23003
876.778	22980
876.906	22984
877.034	22862
877.162	22995
877.29	22987
877.418	23083
877.546	22900
877.674	22862
877.802	22908
877.93	22847
878.058	22927
878.185	22752
878.313	22862
878.441	22908
878.568	22850
878.696	22881
878.824	23018
878.951	22953
879.079	23102
879.206	23132
879.333	23102
879.461	22942
879.588	23083
879.715	23094
879.842	23239
879.97	23010
880.097	22797
880.224	22679
880.351	22717
880.478	22904
880.605	22672
880.732	22744
880.859	23094
880.986	22637
881.112	22805
881.239	22618
881.366	22485
881.493	22344
881.619	22322
881.746	22215
881.872	22322
881.999	22337
882.125	22303
882.252	22398
882.378	22253
882.505	22394
882.631	22234
882.757	22067
882.883	22078
883.01	21994
883.136	22093
883.262	21911
883.388	21865
883.514	21956
883.64	22093
883.766	21888
883.892	21827
884.018	21846
884.143	21934
884.269	22055
884.395	21747
884.52	21660
884.646	21675
884.772	21637
884.897	21523
885.023	21652
885.148	21747
885.274	21789
885.399	21724
885.524	21675
885.65	21698
885.775	21804
885.9	21652
886.025	21869
886.15	21831
886.275	21591
886.4	21603
886.525	21587
886.65	21667
886.775	21504
886.9	21663
887.025	21827
887.149	21629
887.274	21485
887.399	21412
887.523	21492
887.648	21294
887.773	21302
887.897	21545
888.021	21488
888.146	21382
888.27	21450
888.395	21523
888.519	21447
888.643	21386
888.767	21492
888.891	21325
889.015	21112
889.139	21252
889.263	21249
889.387	21454
889.511	21412
889.635	21313
889.759	21173
889.883	21123
890.006	21230
890.13	21184
890.254	21043
890.377	21150
890.501	20956
890.624	20887
890.748	21074
890.871	20906
890.995	20785
891.118	20659
891.241	20842
891.364	20781
891.488	20914
891.611	20781
891.734	20746
891.857	20792
891.98	20769
892.103	20746
892.226	20724
892.349	20746
892.471	20549
892.594	20644
892.717	20750
892.839	20720
892.962	20769
893.085	20697
893.207	20663
893.33	20659
893.452	20571
893.575	20731
893.697	20598
893.819	20777
893.941	20861
894.064	20750
894.186	20644
894.308	20621
894.43	20724
894.552	20746
894.674	20571
894.796	20701
894.918	20537
895.04	20594
895.161	20792
895.283	20640
895.405	20594
895.526	20648
895.648	20625
895.769	20648
895.891	20750
896.012	20872
896.134	20769
896.255	20663
896.376	20571
896.498	20636
896.619	20773
896.74	20655
896.861	20720
896.982	20921
897.103	21108
897.224	20861
897.345	20872
897.466	20754
897.587	20880
897.708	21028
897.828	20902
897.949	20823
898.07	20560
898.19	20781
898.311	20872
898.431	20746
898.552	20727
898.672	20804
898.792	20853
898.913	20788
899.033	20659
899.153	20708
899.273	20404
899.393	20686
899.513	20522
899.633	20621
899.753	20682
899.873	20571
899.993	20564
900.113	20541
900.232	20594
900.352	20480
900.472	20488
900.591	20301
900.711	20347
900.83	20313
900.95	20374
901.069	20317
901.189	20256
901.308	19967
901.427	19928
901.546	19993
901.665	19902
901.784	20008
901.904	19879
902.023	19715
902.141	19544
902.26	19441
902.379	19480
902.498	19422
902.617	19354
902.735	19487
902.854	19354
902.973	19320
903.091	19099
903.21	19038
903.328	19015
903.446	19031
903.565	18970
903.683	18970
903.801	18795
903.919	18791
904.038	18730
904.156	18639
904.274	18692
904.392	18677
904.51	18673
904.627	18604
904.745	18696
904.863	18661
904.981	18376
905.098	18300
905.216	18289
905.334	18353
905.451	18289
905.569	18346
905.686	18361
905.803	18388
905.921	18171
906.038	18186
906.155	18106
906.272	17977
906.389	18003
906.506	17843
906.623	17935
906.74	17809
906.857	17790
906.974	17855
907.091	17946
907.208	17946
907.324	17950
907.441	17805
907.557	17600
907.674	17710
907.79	17520
907.907	17581
908.023	17646
908.139	17623
908.256	17501
908.372	17455
908.488	17353
908.604	17341
908.72	17227
908.836	17334
908.952	17284
909.068	17341
909.184	17395
909.3	17299
909.415	17273
909.531	17269
909.647	17033
909.762	17025
909.878	17029
909.993	17071
910.108	16987
910.224	16923
910.339	16968
910.454	16809
910.57	16767
910.685	16706
910.8	16987
910.915	16953
911.03	16824
911.145	16630
911.259	16611
911.374	16558
911.489	16447
911.604	16443
911.718	16485
911.833	16337
911.947	16253
912.062	16253
912.176	16394
912.291	16253
912.405	16306
912.519	16508
912.633	16584
912.748	16341
912.862	16314
912.976	16109
913.09	16013
913.204	16059
913.318	16173
913.431	16188
913.545	16181
913.659	16230
913.772	16025
913.886	15998
914	15915
914.113	15964
914.226	15979
914.34	15934
914.453	15854
914.566	16071
914.68	15854
914.793	15861
914.906	15637
915.019	15595
915.132	15584
915.245	15534
915.358	15572
915.47	15500
915.583	15542
915.696	15682
915.809	15538
915.921	15686
916.034	15473
916.146	15466
916.259	15466
916.371	15443
916.483	15492
916.595	15393
916.708	15325
916.82	15367
916.932	15291
917.044	15279
917.156	15199
917.268	15184
917.38	15211
917.491	15032
917.603	15230
917.715	15348
917.826	15279
917.938	15142
918.049	14960
918.161	15195
918.272	15203
918.384	15260
918.495	15119
918.606	15024
918.717	14887
918.828	14998
918.939	14929
919.05	14895
919.161	14887
919.272	14750
919.383	14800
919.494	15028
919.604	15089
919.715	14921
919.826	14788
919.936	14880
920.047	14861
920.157	14823
920.267	15005
920.378	14826
920.488	14891
920.598	14960
920.708	15237
920.818	14937
920.928	14937
921.038	15142
921.148	15070
921.258	14845
921.368	14689
921.477	14663
921.587	14533
921.697	14457
921.806	14594
921.916	14503
922.025	14328
922.134	14237
922.244	14195
922.353	14195
922.462	14115
922.571	14008
922.68	13864
922.789	13909
922.898	13898
923.007	13852
923.116	13837
923.224	13849
923.333	13780
923.442	13677
923.55	13689
923.659	13655
923.767	13772
923.876	13651
923.984	13719
924.092	13605
924.201	13575
924.309	13628
924.417	13590
924.525	13419
924.633	13525
924.741	14438
924.849	13297
924.956	13419
925.064	13297
925.172	13198
925.279	13278
925.387	13365
925.494	13274
925.602	13411
925.709	13274
925.816	13107
925.924	13141
926.031	13350
926.138	13209
926.245	13152
926.352	13152
926.459	13240
926.566	13316
926.673	13084
926.779	13038
926.886	12962
926.993	12905
927.099	12821
927.206	12875
927.312	12764
927.419	12859
927.525	12810
927.631	12810
927.737	12692
927.843	12658
927.95	12536
928.056	12662
928.162	12650
928.267	12741
928.373	13244
928.479	12738
928.585	12498
928.69	12578
928.796	12635
928.901	12589
929.007	12262
929.112	12547
929.218	12448
929.323	12391
929.428	12319
929.533	12479
929.638	12273
929.743	12330
929.848	12338
929.953	12220
930.058	12239
930.163	11992
930.267	12106
930.372	12213
930.477	11999
930.581	12205
930.685	12087
930.79	11965
930.894	11992
930.998	11920
931.103	12038
931.207	11684
931.311	11589
931.415	11558
931.519	11376
931.623	11311
