Data from test_V78500241_2371.txt Node
Date: Fri Mar 25 15:26:22 CST 2022
User: usil
Spectrometer: V785-0024
Trigger mode: 0
Integration Time (sec): 4.000000E-1
Scans to average: 1
Nonlinearity correction enabled: false
Boxcar width: 0
Storing dark spectrum: false
XAxis mode: Wavelengths
Number of Pixels in Spectrum: 1024
>>>>>Begin Spectral Data<<<<<
801.071	27519
801.214	27561
801.356	27306
801.499	27222
801.641	27017
801.783	27131
801.926	27096
802.068	26944
802.211	27039
802.353	26887
802.496	26674
802.638	26667
802.78	26537
802.923	26568
803.065	26564
803.208	26579
803.35	26678
803.492	26754
803.635	26823
803.777	26796
803.919	26834
804.061	27142
804.204	26994
804.346	26796
804.488	26773
804.63	26777
804.773	26948
804.915	26887
805.057	26956
805.199	26739
805.341	26910
805.483	27013
805.626	26933
805.768	26781
805.91	26967
806.052	26895
806.194	26849
806.336	27066
806.478	26883
806.62	26895
806.762	27001
806.904	27256
807.046	27359
807.188	27241
807.33	27370
807.472	27408
807.614	27412
807.756	27306
807.898	27154
808.04	27154
808.182	27230
808.324	27116
808.465	27222
808.607	27568
808.749	27466
808.891	27713
809.033	27675
809.174	27751
809.316	27485
809.458	27564
809.6	27523
809.741	27557
809.883	27629
810.025	27751
810.166	27724
810.308	27895
810.45	27781
810.591	27816
810.733	27652
810.875	27386
811.016	27439
811.158	27386
811.299	27545
811.441	27519
811.582	27572
811.724	27515
811.865	27504
812.007	27481
812.148	27622
812.29	27591
812.431	27625
812.573	27838
812.714	28013
812.855	28021
812.997	28029
813.138	28139
813.279	28101
813.421	28105
813.562	27922
813.703	27899
813.845	27819
813.986	27359
814.127	27222
814.268	27222
814.41	27252
814.551	27039
814.692	27241
814.833	27275
814.974	27192
815.115	27268
815.256	27013
815.397	27085
815.539	27024
815.68	26994
815.821	26918
815.962	27024
816.103	26990
816.244	26895
816.385	26853
816.526	26720
816.666	26564
816.807	26560
816.948	26541
817.089	26545
817.23	26492
817.371	26389
817.512	26408
817.653	26431
817.793	26400
817.934	26438
818.075	26564
818.216	26415
818.356	26488
818.497	26396
818.638	26263
818.778	26259
818.919	26199
819.06	26305
819.2	26374
819.341	26545
819.481	26518
819.622	26583
819.762	26830
819.903	26686
820.043	26629
820.184	26598
820.324	26552
820.465	26750
820.605	26575
820.746	26549
820.886	26438
821.026	26484
821.167	26507
821.307	26621
821.447	26492
821.588	26347
821.728	26214
821.868	26031
822.008	25906
822.149	25993
822.289	25841
822.429	25712
822.569	25651
822.709	25704
822.849	25460
822.99	25559
823.13	25316
823.27	25419
823.41	25324
823.55	25088
823.69	25255
823.83	25285
823.97	25228
824.11	25206
824.25	24954
824.389	25148
824.529	25072
824.669	25061
824.809	25282
824.949	25152
825.089	25183
825.228	25080
825.368	24882
825.508	24962
825.648	25004
825.787	25015
825.927	24996
826.067	24829
826.206	24924
826.346	24977
826.485	24886
826.625	24867
826.765	25061
826.904	25012
827.044	24681
827.183	24620
827.323	24544
827.462	24760
827.601	24719
827.741	24585
827.88	24696
828.02	24547
828.159	24627
828.298	24593
828.437	24764
828.577	24711
828.716	24738
828.855	24570
828.994	24346
829.134	24304
829.273	24414
829.412	24330
829.551	24251
829.69	24365
829.829	24270
829.968	24311
830.107	24334
830.246	24452
830.385	24232
830.524	24243
830.663	24178
830.802	23927
830.941	23965
831.08	23855
831.219	24216
831.357	24140
831.496	24186
831.635	23965
831.774	23855
831.913	23798
832.051	23729
832.19	23695
832.329	23798
832.467	23699
832.606	23608
832.744	23665
832.883	23570
833.022	23547
833.16	23729
833.299	23699
833.437	23745
833.576	23790
833.714	23596
833.852	23737
833.991	23836
834.129	23710
834.267	23680
834.406	23684
834.544	23566
834.682	23786
834.821	23703
834.959	23927
835.097	23695
835.235	23752
835.373	23684
835.511	23707
835.65	23455
835.788	23570
835.926	23467
836.064	23353
836.202	23539
836.34	23535
836.478	23547
836.615	23471
836.753	23493
836.891	23570
837.029	23520
837.167	23467
837.305	23448
837.443	23444
837.58	23356
837.718	23345
837.856	23315
837.993	23349
838.131	23356
838.269	23273
838.406	23337
838.544	23189
838.681	23006
838.819	23090
838.956	22953
839.094	22961
839.231	22896
839.369	23044
839.506	23299
839.643	22995
839.781	22881
839.918	22752
840.055	22904
840.193	22927
840.33	22740
840.467	22812
840.604	22896
840.742	22900
840.879	22656
841.016	22744
841.153	22694
841.29	22839
841.427	22790
841.564	22877
841.701	22774
841.838	22679
841.975	22698
842.112	22653
842.249	22691
842.385	22466
842.522	22698
842.659	22618
842.796	22546
842.933	22481
843.069	22592
843.206	22470
843.343	22603
843.479	22527
843.616	22512
843.752	22504
843.889	22402
844.025	22478
844.162	22215
844.298	22337
844.435	22310
844.571	22249
844.708	22291
844.844	22588
844.98	22516
845.117	22417
845.253	22299
845.389	22131
845.525	22211
845.661	22226
845.798	22044
845.934	22109
846.07	22051
846.206	22131
846.342	22291
846.478	22105
846.614	21857
846.75	21682
846.886	21903
847.022	21743
847.158	21816
847.294	21854
847.429	21892
847.565	21755
847.701	21964
847.837	21454
847.972	21507
848.108	21564
848.244	21557
848.379	21496
848.515	21310
848.65	21412
848.786	21431
848.921	21336
849.057	21477
849.192	21549
849.328	21386
849.463	21302
849.598	21370
849.734	21313
849.869	21287
850.004	21264
850.14	21195
850.275	21157
850.41	21013
850.545	21051
850.68	21085
850.815	21161
850.95	21123
851.085	21279
851.22	21340
851.355	21058
851.49	21119
851.625	21131
851.76	21180
851.895	21047
852.03	21055
852.165	21108
852.299	21116
852.434	21306
852.569	21142
852.703	21138
852.838	21199
852.973	21256
853.107	21218
853.242	21062
853.376	20948
853.511	20792
853.645	20944
853.78	21138
853.914	20937
854.048	20914
854.183	20899
854.317	20933
854.451	21211
854.585	20975
854.72	20933
854.854	20990
854.988	21009
855.122	20918
855.256	20853
855.39	21047
855.524	21055
855.658	21085
855.792	20967
855.926	21043
856.06	21036
856.194	21081
856.327	20937
856.461	20971
856.595	20929
856.729	20975
856.862	21024
856.996	20902
857.13	21047
857.263	21081
857.397	21108
857.53	20895
857.664	21070
857.797	20979
857.931	21028
858.064	21089
858.197	21116
858.331	21039
858.464	20842
858.597	20876
858.731	20925
858.864	20887
858.997	20929
859.13	20963
859.263	20921
859.396	21039
859.529	21013
859.662	20880
859.795	20883
859.928	21032
860.061	21154
860.194	21169
860.327	21154
860.46	20971
860.592	20967
860.725	21135
860.858	21043
860.99	20925
861.123	20792
861.256	20864
861.388	20952
861.521	21530
861.653	20727
861.786	20853
861.918	20792
862.05	20804
862.183	20834
862.315	20960
862.447	20933
862.58	20902
862.712	20511
862.844	20636
862.976	20735
863.108	20819
863.24	21264
863.372	20796
863.504	20720
863.636	20617
863.768	20636
863.9	20693
864.032	20552
864.164	20575
864.296	20735
864.428	20708
864.559	20739
864.691	20762
864.823	20720
864.954	20724
865.086	20621
865.217	20518
865.349	20469
865.48	20476
865.612	20537
865.743	20667
865.875	20663
866.006	20442
866.137	20594
866.269	20667
866.4	20587
866.531	20469
866.662	20549
866.793	20511
866.924	20484
867.055	20606
867.186	20511
867.317	20568
867.448	20442
867.579	20492
867.71	20404
867.841	20537
867.972	20465
868.103	20377
868.233	20511
868.364	20629
868.495	20712
868.625	20819
868.756	20948
868.886	20697
869.017	20765
869.147	20872
869.278	20807
869.408	20781
869.539	20792
869.669	20727
869.799	20811
869.929	20929
870.06	20910
870.19	20986
870.32	21123
870.45	21146
870.58	21150
870.71	21363
870.84	21317
870.97	21199
871.1	21161
871.23	21317
871.36	21321
871.489	21119
871.619	21370
871.749	21298
871.879	21355
872.008	21466
872.138	21389
872.267	21336
872.397	21188
872.526	21207
872.656	21150
872.785	21222
872.915	21382
873.044	21477
873.173	21408
873.303	21370
873.432	21458
873.561	21408
873.69	21351
873.819	21370
873.948	21401
874.077	21367
874.206	21431
874.335	21549
874.464	21424
874.593	21709
874.722	21469
874.851	21762
874.979	21701
875.108	21644
875.237	21549
875.365	21488
875.494	21660
875.623	21561
875.751	21435
875.88	21599
876.008	21736
876.136	21804
876.265	21941
876.393	22097
876.521	22055
876.65	22074
876.778	21998
876.906	21972
877.034	21975
877.162	21987
877.29	21911
877.418	21793
877.546	21945
877.674	21960
877.802	21930
877.93	21861
878.058	21827
878.185	21888
878.313	21774
878.441	22017
878.568	21766
878.696	21911
878.824	21876
878.951	22090
879.079	22196
879.206	22234
879.333	22067
879.461	22017
879.588	22154
879.715	22120
879.842	22333
879.97	21987
880.097	21789
880.224	21812
880.351	21831
880.478	21854
880.605	21690
880.732	21797
880.859	22044
880.986	21876
881.112	21682
881.239	21603
881.366	21538
881.493	21386
881.619	21317
881.746	21447
881.872	21367
881.999	21313
882.125	21283
882.252	21428
882.378	21405
882.505	21492
882.631	21154
882.757	21085
882.883	21074
883.01	21100
883.136	21047
883.262	20948
883.388	20891
883.514	21043
883.64	21192
883.766	20998
883.892	20872
884.018	20921
884.143	20994
884.269	21146
884.395	20781
884.52	20571
884.646	20754
884.772	20716
884.897	20667
885.023	20739
885.148	20708
885.274	20914
885.399	20708
885.524	20655
885.65	20625
885.775	20804
885.9	20632
886.025	20834
886.15	20845
886.275	20644
886.4	20537
886.525	20750
886.65	20651
886.775	20682
886.9	20667
887.025	20857
887.149	20594
887.274	20446
887.399	20511
887.523	20431
887.648	20415
887.773	20324
887.897	20545
888.021	20514
888.146	20381
888.27	20629
888.395	20556
888.519	20492
888.643	20404
888.767	20590
888.891	20408
889.015	20317
889.139	20301
889.263	20225
889.387	20434
889.511	20427
889.635	20450
889.759	20206
889.883	20164
890.006	20336
890.13	20469
890.254	20259
890.377	20115
890.501	19970
890.624	20005
890.748	20008
890.871	19818
890.995	19769
891.118	19860
891.241	19982
891.364	19894
891.488	20039
891.611	19746
891.734	19837
891.857	19928
891.98	19845
892.103	19940
892.226	19887
892.349	19666
892.471	19552
892.594	19788
892.717	19757
892.839	19890
892.962	19818
893.085	19837
893.207	19715
893.33	19586
893.452	19715
893.575	19719
893.697	19734
893.819	20035
893.941	19917
894.064	19974
894.186	19689
894.308	19639
894.43	19761
894.552	19951
894.674	19883
894.796	19647
894.918	19761
895.04	19799
895.161	19894
895.283	19811
895.405	19731
895.526	19803
895.648	19769
895.769	19799
895.891	19731
896.012	19795
896.134	19799
896.255	19811
896.376	19811
896.498	19868
896.619	19898
896.74	19746
896.861	19849
896.982	20081
897.103	20164
897.224	20176
897.345	19978
897.466	19936
897.587	19974
897.708	20115
897.828	19982
897.949	19986
898.07	19826
898.19	19845
898.311	19970
898.431	19974
898.552	19974
898.672	20001
898.792	20058
898.913	20046
899.033	19887
899.153	19830
899.273	19769
899.393	19635
899.513	19807
899.633	19753
899.753	19769
899.873	19696
899.993	19803
900.113	19658
900.232	19791
900.352	19780
900.472	19544
900.591	19510
900.711	19590
900.83	19381
900.95	19696
901.069	19616
901.189	19472
901.308	19354
901.427	19050
901.546	19122
901.665	19202
901.784	19141
901.904	19027
902.023	18875
902.141	18677
902.26	18688
902.379	18757
902.498	18635
902.617	18665
902.735	18620
902.854	18681
902.973	18563
903.091	18342
903.21	18289
903.328	18330
903.446	18266
903.565	18235
903.683	18121
903.801	18095
903.919	18102
904.038	18007
904.156	17984
904.274	18011
904.392	17901
904.51	17969
904.627	17859
904.745	17805
904.863	17958
904.981	17707
905.098	17471
905.216	17512
905.334	17668
905.451	17570
905.569	17554
905.686	17672
905.803	17577
905.921	17250
906.038	17429
906.155	17364
906.272	17193
906.389	17284
906.506	17121
906.623	17105
906.74	17064
906.857	16923
906.974	17083
907.091	17200
907.208	17254
907.324	17117
907.441	16949
907.557	16774
907.674	16828
907.79	16778
907.907	16847
908.023	16900
908.139	16755
908.256	16835
908.372	16729
908.488	16706
908.604	16634
908.72	16508
908.836	16618
908.952	16497
909.068	16649
909.184	16660
909.3	16626
909.415	16546
909.531	16561
909.647	16341
909.762	16211
909.878	16234
909.993	16329
910.108	16276
910.224	16246
910.339	16207
910.454	16006
910.57	16112
910.685	16025
910.8	16344
910.915	16287
911.03	16135
911.145	15873
911.259	15854
911.374	15854
911.489	15873
911.604	15682
911.718	15595
911.833	15557
911.947	15431
912.062	15447
912.176	15526
912.291	15564
912.405	15564
912.519	15724
912.633	15770
912.748	15614
912.862	15671
912.976	15500
913.09	15264
913.204	15420
913.318	15450
913.431	15488
913.545	15405
913.659	15477
913.772	15367
913.886	15306
914	15180
914.113	15363
914.226	15340
914.34	15230
914.453	15070
914.566	15256
914.68	15264
914.793	15047
914.906	14895
915.019	14937
915.132	14712
915.245	14864
915.358	14883
915.47	14887
915.583	14819
915.696	14876
915.809	14864
915.921	14910
916.034	14758
916.146	14731
916.259	14701
916.371	14781
916.483	14746
916.595	14621
916.708	14575
916.82	14613
916.932	14689
917.044	14598
917.156	14579
917.268	14579
917.38	14530
917.491	14476
917.603	14465
917.715	14503
917.826	14686
917.938	14423
918.049	14278
918.161	14522
918.272	14564
918.384	14610
918.495	14454
918.606	14343
918.717	14199
918.828	14290
918.939	14339
919.05	14164
919.161	14294
919.272	14008
919.383	14130
919.494	14263
919.604	14427
919.715	14282
919.826	14187
919.936	14240
920.047	14381
920.157	14180
920.267	14465
920.378	14256
920.488	14187
920.598	14400
920.708	14457
920.818	14339
920.928	14347
921.038	14469
921.148	14495
921.258	14206
921.368	14168
921.477	13978
921.587	14024
921.697	13913
921.806	14012
921.916	13883
922.025	13696
922.134	13658
922.244	13636
922.353	13677
922.462	13476
922.571	13354
922.68	13354
922.789	13126
922.898	13301
923.007	13187
923.116	13327
923.224	13240
923.333	13190
923.442	13122
923.55	13072
923.659	13149
923.767	13126
923.876	13072
923.984	13129
924.092	13034
924.201	13053
924.309	13019
924.417	13000
924.525	12985
924.633	12962
924.741	13887
924.849	12749
924.956	12897
925.064	12776
925.172	12650
925.279	12665
925.387	12798
925.494	12703
925.602	12738
925.709	12722
925.816	12639
925.924	12722
926.031	12646
926.138	12654
926.245	12688
926.352	12616
926.459	12726
926.566	12700
926.673	12559
926.779	12490
926.886	12365
926.993	12334
927.099	12330
927.206	12209
927.312	12175
927.419	12315
927.525	12262
927.631	12327
927.737	12197
927.843	12152
927.95	11988
928.056	12102
928.162	12110
928.267	12205
928.373	12802
928.479	12205
928.585	11904
928.69	12019
928.796	12102
928.901	12041
929.007	11790
929.112	11889
929.218	11859
929.323	11847
929.428	11901
929.533	11878
929.638	11802
929.743	11786
929.848	11786
929.953	11794
930.058	11703
930.163	11524
930.267	11524
930.372	11623
930.477	11493
930.581	11714
930.685	11551
930.79	11421
930.894	11414
930.998	11334
931.103	11452
931.207	11113
931.311	11113
931.415	11056
931.519	10831
931.623	10767
