Data from test_V78500241_2687.txt Node
Date: Fri Mar 25 15:28:34 CST 2022
User: usil
Spectrometer: V785-0024
Trigger mode: 0
Integration Time (sec): 4.000000E-1
Scans to average: 1
Nonlinearity correction enabled: false
Boxcar width: 0
Storing dark spectrum: false
XAxis mode: Wavelengths
Number of Pixels in Spectrum: 1024
>>>>>Begin Spectral Data<<<<<
801.071	27184
801.214	27001
801.356	26906
801.499	26689
801.641	26537
801.783	26602
801.926	26914
802.068	26613
802.211	26507
802.353	26606
802.496	26275
802.638	26320
802.78	26225
802.923	26221
803.065	26195
803.208	26252
803.35	26305
803.492	26450
803.635	26400
803.777	26282
803.919	26396
804.061	26861
804.204	26503
804.346	26256
804.488	26362
804.63	26419
804.773	26514
804.915	26434
805.057	26423
805.199	26309
805.341	26412
805.483	26571
805.626	26530
805.768	26465
805.91	26492
806.052	26571
806.194	26377
806.336	26663
806.478	26453
806.62	26556
806.762	26629
806.904	26906
807.046	27009
807.188	26838
807.33	26830
807.472	27001
807.614	26758
807.756	26872
807.898	26648
808.04	26712
808.182	26743
808.324	26765
808.465	26887
808.607	26998
808.749	27112
808.891	27192
809.033	27252
809.174	27249
809.316	27108
809.458	27032
809.6	27085
809.741	27294
809.883	27203
810.025	27374
810.166	27378
810.308	27481
810.45	27298
810.591	27245
810.733	27127
810.875	27184
811.016	27058
811.158	27100
811.299	27214
811.441	27348
811.582	27245
811.724	27112
811.865	27077
812.007	27013
812.148	26986
812.29	27176
812.431	27275
812.573	27306
812.714	27591
812.855	27595
812.997	27519
813.138	27838
813.279	27774
813.421	27523
813.562	27564
813.703	27439
813.845	27081
813.986	27081
814.127	26883
814.268	26670
814.41	26724
814.551	26800
814.692	26807
814.833	26670
814.974	26796
815.115	26788
815.256	26556
815.397	26590
815.539	26526
815.68	26560
815.821	26400
815.962	26651
816.103	26552
816.244	26431
816.385	26309
816.526	26278
816.666	26161
816.807	25951
816.948	26145
817.089	26035
817.23	25993
817.371	26020
817.512	25925
817.653	25864
817.793	25917
817.934	25970
818.075	26027
818.216	25982
818.356	25902
818.497	25887
818.638	25696
818.778	25772
818.919	25651
819.06	25757
819.2	25909
819.341	25944
819.481	25982
819.622	26027
819.762	26229
819.903	26286
820.043	26263
820.184	26073
820.324	26119
820.465	26153
820.605	26107
820.746	26161
820.886	25932
821.026	26180
821.167	25993
821.307	26092
821.447	25963
821.588	25913
821.728	25795
821.868	25681
822.008	25582
822.149	25556
822.289	25335
822.429	25194
822.569	25232
822.709	25187
822.849	24924
822.99	24981
823.13	24973
823.27	25114
823.41	24798
823.55	24738
823.69	24783
823.83	24821
823.97	24665
824.11	24559
824.25	24578
824.389	24620
824.529	24650
824.669	24574
824.809	24604
824.949	24631
825.089	24760
825.228	24646
825.368	24445
825.508	24426
825.648	24448
825.787	24582
825.927	24494
826.067	24273
826.206	24391
826.346	24486
826.485	24612
826.625	24448
826.765	24528
826.904	24395
827.044	24285
827.183	24266
827.323	24136
827.462	24140
827.601	24114
827.741	24095
827.88	24258
828.02	23897
828.159	24129
828.298	24213
828.437	24258
828.577	24155
828.716	24163
828.855	24030
828.994	23954
829.134	23904
829.273	23984
829.412	23748
829.551	23840
829.69	23847
829.829	23870
829.968	23996
830.107	23923
830.246	23988
830.385	23726
830.524	23585
830.663	23752
830.802	23570
830.941	23440
831.08	23452
831.219	23474
831.357	23452
831.496	23687
831.635	23421
831.774	23288
831.913	23406
832.051	23315
832.19	23216
832.329	23265
832.467	23159
832.606	23022
832.744	23094
832.883	23235
833.022	23075
833.16	23052
833.299	23277
833.437	23162
833.576	23341
833.714	23193
833.852	23269
833.991	23280
834.129	23250
834.267	23284
834.406	23303
834.544	23136
834.682	23200
834.821	23315
834.959	23516
835.097	23189
835.235	23235
835.373	23220
835.511	23216
835.65	23052
835.788	23140
835.926	22923
836.064	22953
836.202	22835
836.34	23079
836.478	23178
836.615	23090
836.753	23041
836.891	23143
837.029	23041
837.167	23029
837.305	22911
837.443	23006
837.58	22965
837.718	23052
837.856	22946
837.993	22835
838.131	22877
838.269	22706
838.406	22847
838.544	22713
838.681	22561
838.819	22527
838.956	22500
839.094	22322
839.231	22523
839.369	22512
839.506	22748
839.643	22603
839.781	22474
839.918	22386
840.055	22386
840.193	22542
840.33	22379
840.467	22428
840.604	22337
840.742	22691
840.879	22192
841.016	22234
841.153	22223
841.29	22348
841.427	22310
841.564	22337
841.701	22413
841.838	22257
841.975	22215
842.112	22363
842.249	22318
842.385	22135
842.522	22299
842.659	22097
842.796	22128
842.933	22181
843.069	21945
843.206	22070
843.343	22116
843.479	22116
843.616	22082
843.752	21827
843.889	21903
844.025	21873
844.162	21880
844.298	21979
844.435	21789
844.571	21698
844.708	21911
844.844	22032
844.98	22063
845.117	22013
845.253	21823
845.389	21701
845.525	21739
845.661	21663
845.798	21633
845.934	21835
846.07	21580
846.206	21709
846.342	21732
846.478	21572
846.614	21386
846.75	21344
846.886	21302
847.022	21477
847.158	21428
847.294	21466
847.429	21420
847.565	21351
847.701	21488
847.837	21127
847.972	21116
848.108	21222
848.244	21116
848.379	21081
848.515	21001
848.65	20979
848.786	20967
848.921	20819
849.057	21043
849.192	20910
849.328	20948
849.463	20906
849.598	20804
849.734	20769
849.869	20883
850.004	20739
850.14	20754
850.275	20701
850.41	20632
850.545	20625
850.68	20724
850.815	20648
850.95	20746
851.085	20872
851.22	20811
851.355	20682
851.49	20613
851.625	20667
851.76	20743
851.895	20716
852.03	20537
852.165	20743
852.299	20697
852.434	20758
852.569	20746
852.703	20864
852.838	20830
852.973	20895
853.107	20689
853.242	20682
853.376	20579
853.511	20442
853.645	20343
853.78	20587
853.914	20549
854.048	20450
854.183	20503
854.317	20469
854.451	20731
854.585	20575
854.72	20541
854.854	20518
854.988	20575
855.122	20480
855.256	20480
855.39	20552
855.524	20526
855.658	20594
855.792	20552
855.926	20625
856.06	20613
856.194	20617
856.327	20484
856.461	20465
856.595	20423
856.729	20511
856.862	20655
856.996	20533
857.13	20549
857.263	20701
857.397	20526
857.53	20549
857.664	20598
857.797	20568
857.931	20632
858.064	20545
858.197	20609
858.331	20461
858.464	20438
858.597	20518
858.731	20579
858.864	20552
858.997	20469
859.13	20533
859.263	20587
859.396	20655
859.529	20484
859.662	20503
859.795	20415
859.928	20507
860.061	20769
860.194	20716
860.327	20617
860.46	20549
860.592	20621
860.725	20750
860.858	20712
860.99	20587
861.123	20419
861.256	20446
861.388	20457
861.521	21272
861.653	20385
861.786	20282
861.918	20358
862.05	20408
862.183	20431
862.315	20389
862.447	20465
862.58	20469
862.712	20164
862.844	20286
862.976	20366
863.108	20301
863.24	20823
863.372	20259
863.504	20225
863.636	20153
863.768	20187
863.9	20374
864.032	20119
864.164	20130
864.296	20374
864.428	20530
864.559	20339
864.691	20320
864.823	20290
864.954	20225
865.086	20221
865.217	20202
865.349	20081
865.48	20149
865.612	20244
865.743	20214
865.875	20221
866.006	20161
866.137	20149
866.269	20176
866.4	20142
866.531	20176
866.662	20096
866.793	20092
866.924	20088
867.055	20092
867.186	20100
867.317	20046
867.448	19978
867.579	20046
867.71	19970
867.841	19940
867.972	20088
868.103	20149
868.233	20103
868.364	20077
868.495	20191
868.625	20183
868.756	20480
868.886	20142
869.017	20442
869.147	20362
869.278	20476
869.408	20450
869.539	20408
869.669	20374
869.799	20469
869.929	20343
870.06	20431
870.19	20655
870.32	20617
870.45	20571
870.58	20758
870.71	20853
870.84	20800
870.97	20834
871.1	20781
871.23	20891
871.36	20967
871.489	20842
871.619	20925
871.749	20838
871.879	20899
872.008	21039
872.138	21001
872.267	20937
872.397	20845
872.526	20773
872.656	20746
872.785	20777
872.915	20891
873.044	20982
873.173	20944
873.303	21146
873.432	21001
873.561	20975
873.69	20891
873.819	20941
873.948	21066
874.077	20994
874.206	20929
874.335	20929
874.464	21070
874.593	21142
874.722	21070
874.851	21241
874.979	21199
875.108	21249
875.237	21192
875.365	21089
875.494	21089
875.623	21272
875.751	21188
875.88	21184
876.008	21310
876.136	21466
876.265	21629
876.393	21690
876.521	21564
876.65	21774
876.778	21644
876.906	21682
877.034	21561
877.162	21606
877.29	21496
877.418	21580
877.546	21542
877.674	21469
877.802	21580
877.93	21618
878.058	21595
878.185	21325
878.313	21572
878.441	21561
878.568	21420
878.696	21488
878.824	21622
878.951	21656
879.079	21804
879.206	21945
879.333	21667
879.461	21652
879.588	21606
879.715	21667
879.842	21831
879.97	21694
880.097	21469
880.224	21447
880.351	21428
880.478	21386
880.605	21370
880.732	21294
880.859	21606
880.986	21454
881.112	21473
881.239	21272
881.366	21154
881.493	21146
881.619	20948
881.746	21112
881.872	20921
881.999	20960
882.125	21013
882.252	21013
882.378	21024
882.505	21055
882.631	20899
882.757	20629
882.883	20773
883.01	20758
883.136	20556
883.262	20560
883.388	20583
883.514	20686
883.64	20697
883.766	20507
883.892	20377
884.018	20644
884.143	20594
884.269	20686
884.395	20469
884.52	20434
884.646	20336
884.772	20355
884.897	20256
885.023	20339
885.148	20556
885.274	20461
885.399	20423
885.524	20393
885.65	20256
885.775	20313
885.9	20271
886.025	20480
886.15	20351
886.275	20286
886.4	20187
886.525	20396
886.65	20317
886.775	20294
886.9	20358
887.025	20495
887.149	20271
887.274	20183
887.399	20058
887.523	20065
887.648	20153
887.773	19970
887.897	20187
888.021	20122
888.146	20046
888.27	20176
888.395	20183
888.519	20134
888.643	20126
888.767	20020
888.891	20027
889.015	19875
889.139	19955
889.263	19906
889.387	19944
889.511	20107
889.635	20046
889.759	19803
889.883	19932
890.006	19852
890.13	19932
890.254	19890
890.377	19811
890.501	19670
890.624	19658
890.748	19727
890.871	19601
890.995	19460
891.118	19499
891.241	19533
891.364	19476
891.488	19651
891.611	19537
891.734	19609
891.857	19613
891.98	19525
892.103	19472
892.226	19354
892.349	19339
892.471	19255
892.594	19324
892.717	19403
892.839	19354
892.962	19434
893.085	19388
893.207	19567
893.33	19358
893.452	19270
893.575	19453
893.697	19377
893.819	19533
893.941	19567
894.064	19483
894.186	19411
894.308	19270
894.43	19426
894.552	19476
894.674	19552
894.796	19312
894.918	19369
895.04	19434
895.161	19575
895.283	19453
895.405	19388
895.526	19575
895.648	19430
895.769	19457
895.891	19415
896.012	19514
896.134	19419
896.255	19426
896.376	19362
896.498	19449
896.619	19487
896.74	19457
896.861	19460
896.982	19639
897.103	19871
897.224	19643
897.345	19594
897.466	19575
897.587	19540
897.708	19864
897.828	19658
897.949	19597
898.07	19499
898.19	19537
898.311	19708
898.431	19548
898.552	19651
898.672	19807
898.792	19833
898.913	19628
899.033	19590
899.153	19582
899.273	19365
899.393	19373
899.513	19453
899.633	19445
899.753	19506
899.873	19384
899.993	19506
900.113	19312
900.232	19373
900.352	19362
900.472	19236
900.591	19145
900.711	19183
900.83	19145
900.95	19247
901.069	19297
901.189	18981
901.308	18894
901.427	18776
901.546	18859
901.665	18856
901.784	18833
901.904	18639
902.023	18608
902.141	18395
902.26	18422
902.379	18353
902.498	18334
902.617	18243
902.735	18372
902.854	18243
902.973	18239
903.091	18026
903.21	18121
903.328	17980
903.446	17885
903.565	17847
903.683	17767
903.801	17752
903.919	17737
904.038	17729
904.156	17585
904.274	17589
904.392	17592
904.51	17573
904.627	17528
904.745	17695
904.863	17672
904.981	17345
905.098	17220
905.216	17231
905.334	17299
905.451	17216
905.569	17220
905.686	17307
905.803	17227
905.921	16900
906.038	17132
906.155	17151
906.272	16911
906.389	17067
906.506	16797
906.623	16831
906.74	16782
906.857	16679
906.974	16694
907.091	16889
907.208	16949
907.324	16889
907.441	16725
907.557	16466
907.674	16546
907.79	16451
907.907	16500
908.023	16546
908.139	16443
908.256	16466
908.372	16421
908.488	16402
908.604	16287
908.72	16158
908.836	16268
908.952	16238
909.068	16246
909.184	16314
909.3	16272
909.415	16257
909.531	16188
909.647	15983
909.762	15998
909.878	15903
909.993	15983
910.108	15831
910.224	15930
910.339	15876
910.454	15850
910.57	15778
910.685	15667
910.8	16017
910.915	15895
911.03	15739
911.145	15523
911.259	15591
911.374	15530
911.489	15530
911.604	15515
911.718	15329
911.833	15405
911.947	15359
912.062	15264
912.176	15363
912.291	15321
912.405	15359
912.519	15519
912.633	15572
912.748	15488
912.862	15348
912.976	15074
913.09	14982
913.204	15077
913.318	15085
913.431	15241
913.545	15123
913.659	15188
913.772	15112
913.886	14952
914	14925
914.113	15020
914.226	15077
914.34	15081
914.453	14823
914.566	14963
914.68	14773
914.793	14921
914.906	14610
915.019	14556
915.132	14651
915.245	14575
915.358	14697
915.47	14530
915.583	14644
915.696	14590
915.809	14659
915.921	14663
916.034	14541
916.146	14469
916.259	14423
916.371	14571
916.483	14511
916.595	14400
916.708	14366
916.82	14484
916.932	14324
917.044	14366
917.156	14396
917.268	14278
917.38	14221
917.491	14210
917.603	14275
917.715	14317
917.826	14294
917.938	14240
918.049	14100
918.161	14187
918.272	14351
918.384	14412
918.495	14195
918.606	14046
918.717	14062
918.828	13967
918.939	14054
919.05	13959
919.161	13986
919.272	13788
919.383	13875
919.494	14008
919.604	14214
919.715	13997
919.826	13928
919.936	13989
920.047	14142
920.157	14054
920.267	14206
920.378	14035
920.488	13982
920.598	14168
920.708	14305
920.818	14088
920.928	14092
921.038	14229
921.148	14195
921.258	13970
921.368	13902
921.477	13852
921.587	13700
921.697	13559
921.806	13723
921.916	13582
922.025	13411
922.134	13415
922.244	13350
922.353	13518
922.462	13217
922.571	13179
922.68	13027
922.789	13042
922.898	13019
923.007	12970
923.116	12973
923.224	13019
923.333	13031
923.442	12962
923.55	12882
923.659	12894
923.767	12954
923.876	12814
923.984	12878
924.092	12749
924.201	12848
924.309	12768
924.417	12745
924.525	12741
924.633	12700
924.741	13670
924.849	12532
924.956	12677
925.064	12437
925.172	12372
925.279	12437
925.387	12509
925.494	12429
925.602	12532
925.709	12650
925.816	12445
925.924	12365
926.031	12490
926.138	12467
926.245	12525
926.352	12391
926.459	12464
926.566	12460
926.673	12281
926.779	12285
926.886	12186
926.993	12140
927.099	12053
927.206	12007
927.312	11965
927.419	12136
927.525	12003
927.631	12049
927.737	11954
927.843	11863
927.95	11786
928.056	11904
928.162	11988
928.267	11927
928.373	12388
928.479	11977
928.585	11729
928.69	11893
928.796	11859
928.901	11764
929.007	11581
929.112	11756
929.218	11726
929.323	11665
929.428	11551
929.533	11710
929.638	11501
929.743	11570
929.848	11642
929.953	11589
930.058	11398
930.163	11280
930.267	11315
930.372	11433
930.477	11231
930.581	11543
930.685	11334
930.79	11212
930.894	11239
930.998	11208
931.103	11356
931.207	10984
931.311	10877
931.415	10843
931.519	10584
931.623	10607
