Data from test_V78500241_2858.txt Node
Date: Fri Mar 25 15:29:45 CST 2022
User: usil
Spectrometer: V785-0024
Trigger mode: 0
Integration Time (sec): 4.000000E-1
Scans to average: 1
Nonlinearity correction enabled: false
Boxcar width: 0
Storing dark spectrum: false
XAxis mode: Wavelengths
Number of Pixels in Spectrum: 1024
>>>>>Begin Spectral Data<<<<<
801.071	27062
801.214	26944
801.356	26689
801.499	26762
801.641	26457
801.783	26457
801.926	26689
802.068	26518
802.211	26488
802.353	26366
802.496	26317
802.638	26221
802.78	26142
802.923	26107
803.065	26062
803.208	26153
803.35	26088
803.492	26324
803.635	26404
803.777	26317
803.919	26377
804.061	26686
804.204	26469
804.346	26267
804.488	26252
804.63	26271
804.773	26252
804.915	26385
805.057	26556
805.199	26248
805.341	26469
805.483	26564
805.626	26488
805.768	26324
805.91	26412
806.052	26446
806.194	26339
806.336	26587
806.478	26507
806.62	26450
806.762	26484
806.904	26758
807.046	27077
807.188	26937
807.33	26918
807.472	27066
807.614	26811
807.756	26750
807.898	26712
808.04	26708
808.182	26655
808.324	26792
808.465	26826
808.607	26804
808.749	27081
808.891	26956
809.033	27313
809.174	27116
809.316	26944
809.458	27024
809.6	27066
809.741	27214
809.883	27291
810.025	27184
810.166	27207
810.308	27233
810.45	27127
810.591	27169
810.733	27066
810.875	26944
811.016	27062
811.158	26952
811.299	27218
811.441	27291
811.582	27138
811.724	27017
811.865	26956
812.007	27039
812.148	27001
812.29	27157
812.431	27089
812.573	27218
812.714	27458
812.855	27443
812.997	27606
813.138	27800
813.279	27622
813.421	27515
813.562	27427
813.703	27169
813.845	27298
813.986	26944
814.127	26785
814.268	26739
814.41	26727
814.551	26651
814.692	26765
814.833	26526
814.974	26670
815.115	26777
815.256	26446
815.397	26667
815.539	26651
815.68	26552
815.821	26313
815.962	26442
816.103	26442
816.244	26374
816.385	26320
816.526	26259
816.666	26065
816.807	25871
816.948	26043
817.089	26039
817.23	26062
817.371	25909
817.512	26050
817.653	25750
817.793	25837
817.934	25913
818.075	25932
818.216	25936
818.356	25868
818.497	25856
818.638	25681
818.778	25670
818.919	25651
819.06	25818
819.2	25852
819.341	25963
819.481	25932
819.622	26100
819.762	26301
819.903	26172
820.043	26046
820.184	25970
820.324	26054
820.465	26164
820.605	26039
820.746	26054
820.886	25894
821.026	25822
821.167	25913
821.307	26001
821.447	25955
821.588	25814
821.728	25715
821.868	25537
822.008	25487
822.149	25464
822.289	25422
822.429	24996
822.569	25031
822.709	25118
822.849	25000
822.99	24829
823.13	24829
823.27	24776
823.41	24688
823.55	24528
823.69	24749
823.83	24760
823.97	24734
824.11	24471
824.25	24490
824.389	24467
824.529	24585
824.669	24570
824.809	24540
824.949	24654
825.089	24570
825.228	24528
825.368	24407
825.508	24407
825.648	24357
825.787	24441
825.927	24464
826.067	24422
826.206	24369
826.346	24342
826.485	24475
826.625	24441
826.765	24414
826.904	24380
827.044	24220
827.183	24247
827.323	23927
827.462	24152
827.601	24186
827.741	24190
827.88	24098
828.02	23897
828.159	24102
828.298	24091
828.437	24194
828.577	23935
828.716	24167
828.855	23939
828.994	23851
829.134	23847
829.273	23893
829.412	23627
829.551	23764
829.69	23672
829.829	23802
829.968	23882
830.107	23836
830.246	23798
830.385	23745
830.524	23665
830.663	23535
830.802	23444
830.941	23364
831.08	23379
831.219	23368
831.357	23543
831.496	23581
831.635	23421
831.774	23181
831.913	23242
832.051	23151
832.19	23117
832.329	23178
832.467	23102
832.606	22976
832.744	22972
832.883	22995
833.022	22847
833.16	23010
833.299	23140
833.437	23147
833.576	23174
833.714	23071
833.852	23162
833.991	23246
834.129	23098
834.267	23330
834.406	23147
834.544	23151
834.682	23086
834.821	23159
834.959	23315
835.097	22984
835.235	23181
835.373	23090
835.511	23204
835.65	22991
835.788	22942
835.926	22797
836.064	22691
836.202	22854
836.34	23010
836.478	23064
836.615	22923
836.753	22889
836.891	22908
837.029	23025
837.167	22828
837.305	22816
837.443	22831
837.58	22877
837.718	22900
837.856	22698
837.993	22683
838.131	22744
838.269	22630
838.406	22843
838.544	22721
838.681	22402
838.819	22363
838.956	22246
839.094	22204
839.231	22367
839.369	22272
839.506	22713
839.643	22455
839.781	22249
839.918	22341
840.055	22325
840.193	22341
840.33	22188
840.467	22230
840.604	22219
840.742	22577
840.879	22105
841.016	22223
841.153	22093
841.29	22246
841.427	22101
841.564	22253
841.701	22284
841.838	22147
841.975	21964
842.112	22261
842.249	22029
842.385	22032
842.522	22173
842.659	22002
842.796	21922
842.933	22025
843.069	21953
843.206	21953
843.343	21964
843.479	21926
843.616	22044
843.752	21793
843.889	21724
844.025	21831
844.162	21736
844.298	21869
844.435	21747
844.571	21633
844.708	21922
844.844	21861
844.98	21934
845.117	21869
845.253	21641
845.389	21618
845.525	21644
845.661	21492
845.798	21443
845.934	21511
846.07	21496
846.206	21401
846.342	21629
846.478	21538
846.614	21249
846.75	21157
846.886	21214
847.022	21340
847.158	21207
847.294	21287
847.429	21325
847.565	21207
847.701	21473
847.837	21058
847.972	20880
848.108	21108
848.244	21051
848.379	20785
848.515	20834
848.65	20773
848.786	20876
848.921	20853
849.057	21013
849.192	20910
849.328	20823
849.463	20838
849.598	20804
849.734	20815
849.869	20788
850.004	20568
850.14	20552
850.275	20632
850.41	20533
850.545	20507
850.68	20541
850.815	20583
850.95	20564
851.085	20845
851.22	20587
851.355	20545
851.49	20590
851.625	20552
851.76	20594
851.895	20473
852.03	20457
852.165	20571
852.299	20716
852.434	20693
852.569	20564
852.703	20457
852.838	20667
852.973	20587
853.107	20636
853.242	20434
853.376	20522
853.511	20256
853.645	20328
853.78	20514
853.914	20457
854.048	20412
854.183	20313
854.317	20419
854.451	20609
854.585	20412
854.72	20454
854.854	20488
854.988	20336
855.122	20412
855.256	20370
855.39	20381
855.524	20476
855.658	20552
855.792	20461
855.926	20412
856.06	20381
856.194	20503
856.327	20366
856.461	20343
856.595	20370
856.729	20370
856.862	20549
856.996	20438
857.13	20457
857.263	20530
857.397	20461
857.53	20290
857.664	20461
857.797	20400
857.931	20511
858.064	20393
858.197	20488
858.331	20404
858.464	20336
858.597	20343
858.731	20381
858.864	20309
858.997	20233
859.13	20347
859.263	20324
859.396	20530
859.529	20389
859.662	20438
859.795	20431
859.928	20419
860.061	20556
860.194	20587
860.327	20366
860.46	20488
860.592	20598
860.725	20613
860.858	20438
860.99	20446
861.123	20427
861.256	20358
861.388	20313
861.521	21123
861.653	20180
861.786	20157
861.918	20396
862.05	20267
862.183	20233
862.315	20282
862.447	20381
862.58	20187
862.712	20157
862.844	20172
862.976	20210
863.108	20252
863.24	20659
863.372	20088
863.504	20172
863.636	20130
863.768	20077
863.9	20096
864.032	19959
864.164	20183
864.296	20142
864.428	20259
864.559	20225
864.691	20218
864.823	20202
864.954	20092
865.086	20084
865.217	20077
865.349	19944
865.48	20016
865.612	19989
865.743	20119
865.875	20073
866.006	19879
866.137	20081
866.269	20005
866.4	19989
866.531	20073
866.662	19955
866.793	20050
866.924	19902
867.055	20069
867.186	20016
867.317	19925
867.448	19811
867.579	19913
867.71	19947
867.841	19906
867.972	19940
868.103	20024
868.233	20046
868.364	19928
868.495	20065
868.625	20199
868.756	20385
868.886	20069
869.017	20221
869.147	20355
869.278	20263
869.408	20145
869.539	20145
869.669	20290
869.799	20290
869.929	20278
870.06	20290
870.19	20571
870.32	20434
870.45	20526
870.58	20640
870.71	20758
870.84	20651
870.97	20522
871.1	20701
871.23	20727
871.36	20899
871.489	20674
871.619	20720
871.749	20765
871.879	20857
872.008	20971
872.138	20891
872.267	20800
872.397	20826
872.526	20636
872.656	20640
872.785	20712
872.915	20788
873.044	20914
873.173	20762
873.303	20868
873.432	20876
873.561	20925
873.69	20792
873.819	20914
873.948	20952
874.077	20872
874.206	20792
874.335	20804
874.464	21001
874.593	21047
874.722	21058
874.851	21119
874.979	21051
875.108	21169
875.237	21036
875.365	20998
875.494	20956
875.623	21188
875.751	21058
875.88	21047
876.008	21275
876.136	21279
876.265	21447
876.393	21603
876.521	21492
876.65	21416
876.778	21534
876.906	21447
877.034	21405
877.162	21447
877.29	21351
877.418	21408
877.546	21447
877.674	21412
877.802	21359
877.93	21431
878.058	21378
878.185	21272
878.313	21496
878.441	21348
878.568	21252
878.696	21458
878.824	21492
878.951	21599
879.079	21469
879.206	21778
879.333	21545
879.461	21416
879.588	21568
879.715	21667
879.842	21701
879.97	21321
880.097	21374
880.224	21195
880.351	21321
880.478	21348
880.605	21176
880.732	21249
880.859	21507
880.986	21351
881.112	21302
881.239	21100
881.366	20963
881.493	20960
881.619	20804
881.746	21017
881.872	20872
881.999	20815
882.125	20731
882.252	20960
882.378	20800
882.505	21058
882.631	20598
882.757	20640
882.883	20678
883.01	20632
883.136	20541
883.262	20412
883.388	20343
883.514	20541
883.64	20598
883.766	20389
883.892	20210
884.018	20301
884.143	20606
884.269	20686
884.395	20294
884.52	20290
884.646	20164
884.772	20054
884.897	20145
885.023	20164
885.148	20263
885.274	20385
885.399	20233
885.524	20130
885.65	20214
885.775	20206
885.9	20244
886.025	20298
886.15	20298
886.275	20157
886.4	20058
886.525	20149
886.65	20092
886.775	20005
886.9	20191
887.025	20412
887.149	20229
887.274	20024
887.399	20012
887.523	19928
887.648	19868
887.773	19921
887.897	20069
888.021	20107
888.146	19879
888.27	20069
888.395	20149
888.519	20050
888.643	20065
888.767	20020
888.891	19871
889.015	19712
889.139	19807
889.263	19765
889.387	19879
889.511	19913
889.635	19944
889.759	19818
889.883	19738
890.006	19814
890.13	19826
890.254	19674
890.377	19761
890.501	19514
890.624	19620
890.748	19674
890.871	19499
890.995	19331
891.118	19381
891.241	19449
891.364	19346
891.488	19430
891.611	19445
891.734	19335
891.857	19426
891.98	19373
892.103	19411
892.226	19419
892.349	19327
892.471	19164
892.594	19335
892.717	19358
892.839	19259
892.962	19358
893.085	19396
893.207	19354
893.33	19198
893.452	19114
893.575	19464
893.697	19217
893.819	19339
893.941	19582
894.064	19301
894.186	19365
894.308	19122
894.43	19354
894.552	19453
894.674	19434
894.796	19126
894.918	19244
895.04	19198
895.161	19422
895.283	19259
895.405	19175
895.526	19293
895.648	19282
895.769	19381
895.891	19354
896.012	19312
896.134	19373
896.255	19358
896.376	19316
896.498	19392
896.619	19282
896.74	19388
896.861	19301
896.982	19563
897.103	19765
897.224	19533
897.345	19575
897.466	19476
897.587	19597
897.708	19609
897.828	19651
897.949	19544
898.07	19468
898.19	19521
898.311	19666
898.431	19712
898.552	19533
898.672	19639
898.792	19552
898.913	19518
899.033	19518
899.153	19411
899.273	19354
899.393	19304
899.513	19324
899.633	19324
899.753	19331
899.873	19278
899.993	19339
900.113	19301
900.232	19202
900.352	19331
900.472	19190
900.591	19084
900.711	19168
900.83	18985
900.95	19156
901.069	19183
901.189	18943
901.308	18829
901.427	18684
901.546	18692
901.665	18707
901.784	18700
901.904	18658
902.023	18418
902.141	18296
902.26	18224
902.379	18346
902.498	18243
902.617	18262
902.735	18209
902.854	18174
902.973	18152
903.091	17870
903.21	17920
903.328	17912
903.446	17866
903.565	17733
903.683	17627
903.801	17627
903.919	17589
904.038	17657
904.156	17509
904.274	17627
904.392	17440
904.51	17455
904.627	17433
904.745	17649
904.863	17608
904.981	17326
905.098	17147
905.216	17185
905.334	17284
905.451	17292
905.569	17086
905.686	17181
905.803	17174
905.921	16930
906.038	17121
906.155	17052
906.272	16915
906.389	16831
906.506	16752
906.623	16786
906.74	16717
906.857	16535
906.974	16649
907.091	16839
907.208	16805
907.324	16733
907.441	16603
907.557	16443
907.674	16436
907.79	16348
907.907	16402
908.023	16409
908.139	16379
908.256	16337
908.372	16303
908.488	16257
908.604	16139
908.72	16154
908.836	16093
908.952	16226
909.068	16268
909.184	16291
909.3	16204
909.415	16135
909.531	16090
909.647	15915
909.762	15876
909.878	15816
909.993	15934
910.108	15705
910.224	15797
910.339	15789
910.454	15766
910.57	15679
910.685	15515
910.8	15831
910.915	15743
911.03	15682
911.145	15568
911.259	15511
911.374	15564
911.489	15348
911.604	15329
911.718	15264
911.833	15287
911.947	15123
912.062	15097
912.176	15188
912.291	15294
912.405	15211
912.519	15416
912.633	15386
912.748	15298
912.862	15241
912.976	15017
913.09	14891
913.204	14899
913.318	15070
913.431	15260
913.545	15089
913.659	15077
913.772	14971
913.886	14910
914	14834
914.113	14883
914.226	15028
914.34	14925
914.453	14796
914.566	14857
914.68	14750
914.793	14708
914.906	14556
915.019	14495
915.132	14412
915.245	14526
915.358	14457
915.47	14537
915.583	14541
915.696	14530
915.809	14655
915.921	14598
916.034	14556
916.146	14400
916.259	14355
916.371	14473
916.483	14431
916.595	14404
916.708	14305
916.82	14305
916.932	14275
917.044	14336
917.156	14195
917.268	14096
917.38	14282
917.491	14187
917.603	14199
917.715	14206
917.826	14282
917.938	14145
918.049	14020
918.161	14088
918.272	14244
918.384	14244
918.495	14100
918.606	13906
918.717	13887
918.828	14027
918.939	13921
919.05	13887
919.161	13913
919.272	13715
919.383	13753
919.494	13913
919.604	14092
919.715	13963
919.826	13807
919.936	13993
920.047	14008
920.157	13928
920.267	14172
920.378	13951
920.488	13860
920.598	14020
920.708	14244
920.818	14058
920.928	14138
921.038	14168
921.148	14145
921.258	13928
921.368	13814
921.477	13670
921.587	13681
921.697	13563
921.806	13681
921.916	13499
922.025	13373
922.134	13343
922.244	13266
922.353	13327
922.462	13255
922.571	13152
922.68	13008
922.789	12985
922.898	12973
923.007	12894
923.116	12932
923.224	12951
923.333	12886
923.442	12829
923.55	12741
923.659	12840
923.767	12779
923.876	12722
923.984	12795
924.092	12715
924.201	12692
924.309	12734
924.417	12612
924.525	12673
924.633	12601
924.741	13582
924.849	12433
924.956	12635
925.064	12441
925.172	12304
925.279	12395
925.387	12353
925.494	12437
925.602	12490
925.709	12513
925.816	12277
925.924	12418
926.031	12448
926.138	12399
926.245	12357
926.352	12292
926.459	12464
926.566	12407
926.673	12346
926.779	12270
926.886	12144
926.993	12045
927.099	11977
927.206	11954
927.312	11946
927.419	12038
927.525	11935
927.631	12068
927.737	11847
927.843	11885
927.95	11733
928.056	11794
928.162	11798
928.267	11851
928.373	12585
928.479	11870
928.585	11729
928.69	11748
928.796	11832
928.901	11684
929.007	11558
929.112	11691
929.218	11688
929.323	11577
929.428	11608
929.533	11661
929.638	11547
929.743	11490
929.848	11589
929.953	11581
930.058	11417
930.163	11216
930.267	11360
930.372	11307
930.477	11277
930.581	11421
930.685	11330
930.79	11113
930.894	11185
930.998	11124
931.103	11223
931.207	10877
931.311	10828
931.415	10755
931.519	10645
931.623	10580
