Data from test_V78500241_600.txt Node
Date: Fri Mar 25 15:14:02 CST 2022
User: usil
Spectrometer: V785-0024
Trigger mode: 0
Integration Time (sec): 4.000000E-1
Scans to average: 1
Nonlinearity correction enabled: false
Boxcar width: 0
Storing dark spectrum: false
XAxis mode: Wavelengths
Number of Pixels in Spectrum: 1024
>>>>>Begin Spectral Data<<<<<
801.071	27469
801.214	27340
801.356	27195
801.499	27252
801.641	27058
801.783	27066
801.926	27074
802.068	26914
802.211	26921
802.353	26834
802.496	26636
802.638	26590
802.78	26541
802.923	26765
803.065	26461
803.208	26773
803.35	26442
803.492	26792
803.635	26785
803.777	26674
803.919	26731
804.061	27154
804.204	26743
804.346	26765
804.488	26511
804.63	26762
804.773	26762
804.915	26743
805.057	26902
805.199	26735
805.341	26899
805.483	26982
805.626	26899
805.768	26796
805.91	26883
806.052	26838
806.194	26785
806.336	27157
806.478	26921
806.62	26925
806.762	27032
806.904	27161
807.046	27416
807.188	27397
807.33	27329
807.472	27363
807.614	27336
807.756	27336
807.898	27161
808.04	27203
808.182	27100
808.324	27283
808.465	27252
808.607	27462
808.749	27458
808.891	27583
809.033	27774
809.174	27618
809.316	27679
809.458	27492
809.6	27534
809.741	27690
809.883	27663
810.025	27785
810.166	27854
810.308	27842
810.45	27755
810.591	27816
810.733	27644
810.875	27545
811.016	27473
811.158	27469
811.299	27629
811.441	27713
811.582	27690
811.724	27500
811.865	27496
812.007	27576
812.148	27485
812.29	27564
812.431	27732
812.573	27816
812.714	27972
812.855	28177
812.997	28272
813.138	28348
813.279	28280
813.421	28116
813.562	28051
813.703	27812
813.845	27739
813.986	27405
814.127	27310
814.268	27298
814.41	27135
814.551	27173
814.692	27211
814.833	27188
814.974	27203
815.115	27192
815.256	27089
815.397	27150
815.539	26975
815.68	27009
815.821	26963
815.962	27112
816.103	26948
816.244	26925
816.385	26868
816.526	26716
816.666	26560
816.807	26575
816.948	26590
817.089	26651
817.23	26568
817.371	26533
817.512	26571
817.653	26480
817.793	26396
817.934	26457
818.075	26518
818.216	26579
818.356	26450
818.497	26400
818.638	26221
818.778	26290
818.919	26351
819.06	26221
819.2	26583
819.341	26480
819.481	26499
819.622	26651
819.762	26883
819.903	26727
820.043	26701
820.184	26724
820.324	26667
820.465	26762
820.605	26606
820.746	26629
820.886	26590
821.026	26526
821.167	26552
821.307	26708
821.447	26629
821.588	26511
821.728	26313
821.868	26214
822.008	26046
822.149	26054
822.289	25890
822.429	25769
822.569	25616
822.709	25639
822.849	25548
822.99	25491
823.13	25556
823.27	25426
823.41	25274
823.55	25244
823.69	25209
823.83	25312
823.97	25244
824.11	25091
824.25	25076
824.389	25175
824.529	25156
824.669	25050
824.809	25164
824.949	25221
825.089	25247
825.228	25110
825.368	24970
825.508	24966
825.648	24897
825.787	24996
825.927	25118
826.067	24913
826.206	24954
826.346	25061
826.485	25015
826.625	24909
826.765	24992
826.904	25057
827.044	24833
827.183	24711
827.323	24604
827.462	24703
827.601	24715
827.741	24753
827.88	24711
828.02	24639
828.159	24639
828.298	24661
828.437	24787
828.577	24719
828.716	24764
828.855	24669
828.994	24433
829.134	24357
829.273	24528
829.412	24452
829.551	24315
829.69	24532
829.829	24528
829.968	24433
830.107	24330
830.246	24471
830.385	24327
830.524	24342
830.663	24194
830.802	24087
830.941	24003
831.08	23870
831.219	24167
831.357	24178
831.496	24285
831.635	23935
831.774	24068
831.913	23992
832.051	23847
832.19	23916
832.329	23779
832.467	23638
832.606	23531
832.744	23764
832.883	23748
833.022	23627
833.16	23695
833.299	23798
833.437	23691
833.576	23802
833.714	23596
833.852	23813
833.991	23798
834.129	23817
834.267	23817
834.406	23756
834.544	23859
834.682	23783
834.821	23748
834.959	23817
835.097	23585
835.235	23863
835.373	23786
835.511	23573
835.65	23478
835.788	23619
835.926	23452
836.064	23334
836.202	23330
836.34	23649
836.478	23699
836.615	23566
836.753	23539
836.891	23592
837.029	23687
837.167	23573
837.305	23463
837.443	23520
837.58	23467
837.718	23509
837.856	23497
837.993	23383
838.131	23452
838.269	23406
838.406	23368
838.544	23376
838.681	23048
838.819	23105
838.956	22953
839.094	22927
839.231	22911
839.369	23159
839.506	23353
839.643	23124
839.781	22904
839.918	22824
840.055	22767
840.193	22790
840.33	22831
840.467	22820
840.604	22881
840.742	23060
840.879	22717
841.016	22831
841.153	22790
841.29	22900
841.427	22858
841.564	22946
841.701	22850
841.838	22805
841.975	22721
842.112	22805
842.249	22782
842.385	22451
842.522	22767
842.659	22607
842.796	22516
842.933	22603
843.069	22626
843.206	22550
843.343	22573
843.479	22443
843.616	22561
843.752	22428
843.889	22341
844.025	22382
844.162	22310
844.298	22459
844.435	22417
844.571	22287
844.708	22413
844.844	22584
844.98	22428
845.117	22554
845.253	22348
845.389	22310
845.525	22322
845.661	22272
845.798	22265
845.934	22150
846.07	22116
846.206	22139
846.342	22215
846.478	22093
846.614	21876
846.75	21880
846.886	21793
847.022	21926
847.158	21892
847.294	21838
847.429	21915
847.565	21736
847.701	22044
847.837	21606
847.972	21561
848.108	21572
848.244	21686
848.379	21606
848.515	21416
848.65	21363
848.786	21408
848.921	21496
849.057	21496
849.192	21549
849.328	21393
849.463	21534
849.598	21363
849.734	21325
849.869	21203
850.004	21249
850.14	21222
850.275	21214
850.41	21135
850.545	21233
850.68	21169
850.815	21233
850.95	21226
851.085	21416
851.22	21416
851.355	21207
851.49	21207
851.625	21157
851.76	21150
851.895	21211
852.03	20990
852.165	21138
852.299	21241
852.434	21207
852.569	21211
852.703	21188
852.838	21222
852.973	21252
853.107	21325
853.242	21077
853.376	21123
853.511	20971
853.645	20963
853.78	21135
853.914	20994
854.048	20944
854.183	21036
854.317	21051
854.451	21222
854.585	21032
854.72	20990
854.854	21150
854.988	20963
855.122	21009
855.256	20864
855.39	21020
855.524	21077
855.658	21131
855.792	20986
855.926	21096
856.06	21066
856.194	21096
856.327	21089
856.461	21017
856.595	21047
856.729	20979
856.862	21161
856.996	21013
857.13	21043
857.263	21207
857.397	21119
857.53	20899
857.664	21058
857.797	21131
857.931	21096
858.064	21188
858.197	21135
858.331	20986
858.464	20944
858.597	20975
858.731	21028
858.864	21039
858.997	20902
859.13	21020
859.263	21017
859.396	21131
859.529	21165
859.662	21032
859.795	21017
859.928	21017
860.061	21142
860.194	21127
860.327	21150
860.46	21032
860.592	21214
860.725	21116
860.858	21222
860.99	20956
861.123	20971
861.256	20971
861.388	21039
861.521	21785
861.653	20792
861.786	20963
861.918	20880
862.05	20952
862.183	20899
862.315	20948
862.447	21119
862.58	20963
862.712	20804
862.844	20727
862.976	20807
863.108	20826
863.24	21161
863.372	20640
863.504	20731
863.636	20720
863.768	20765
863.9	20724
864.032	20689
864.164	20758
864.296	20724
864.428	20864
864.559	20788
864.691	20819
864.823	20716
864.954	20804
865.086	20670
865.217	20743
865.349	20503
865.48	20617
865.612	20629
865.743	20788
865.875	20659
866.006	20769
866.137	20667
866.269	20640
866.4	20609
866.531	20636
866.662	20575
866.793	20594
866.924	20686
867.055	20609
867.186	20743
867.317	20571
867.448	20370
867.579	20503
867.71	20404
867.841	20541
867.972	20530
868.103	20454
868.233	20625
868.364	20526
868.495	20689
868.625	20834
868.756	20941
868.886	20743
869.017	20769
869.147	20925
869.278	20979
869.408	20834
869.539	20781
869.669	20880
869.799	20785
869.929	20899
870.06	20963
870.19	21096
870.32	21074
870.45	21123
870.58	21150
870.71	21332
870.84	21256
870.97	21264
871.1	21184
871.23	21363
871.36	21332
871.489	21252
871.619	21397
871.749	21428
871.879	21313
872.008	21557
872.138	21363
872.267	21450
872.397	21397
872.526	21336
872.656	21264
872.785	21264
872.915	21367
873.044	21488
873.173	21416
873.303	21443
873.432	21488
873.561	21450
873.69	21443
873.819	21492
873.948	21412
874.077	21473
874.206	21340
874.335	21515
874.464	21591
874.593	21671
874.722	21656
874.851	21705
874.979	21724
875.108	21652
875.237	21629
875.365	21507
875.494	21652
875.623	21717
875.751	21587
875.88	21576
876.008	21713
876.136	21899
876.265	22124
876.393	22192
876.521	22082
876.65	22139
876.778	22067
876.906	22067
877.034	21998
877.162	21953
877.29	22048
877.418	22059
877.546	22010
877.674	21975
877.802	21979
877.93	21987
878.058	22074
878.185	21888
878.313	21979
878.441	21953
878.568	21903
878.696	21956
878.824	22036
878.951	22097
879.079	22181
879.206	22303
879.333	22211
879.461	22051
879.588	22082
879.715	22162
879.842	22226
879.97	21998
880.097	21892
880.224	21861
880.351	21895
880.478	21876
880.605	21663
880.732	21918
880.859	21953
880.986	21945
881.112	21793
881.239	21644
881.366	21466
881.493	21469
881.619	21477
881.746	21336
881.872	21443
881.999	21435
882.125	21344
882.252	21378
882.378	21397
882.505	21557
882.631	21344
882.757	21024
882.883	21169
883.01	21260
883.136	21077
883.262	21005
883.388	20963
883.514	21127
883.64	21222
883.766	21051
883.892	20914
884.018	20838
884.143	21085
884.269	21085
884.395	20895
884.52	20686
884.646	20887
884.772	20655
884.897	20697
885.023	20842
885.148	20849
885.274	20986
885.399	20963
885.524	20796
885.65	20823
885.775	20811
885.9	20731
886.025	20975
886.15	20697
886.275	20640
886.4	20735
886.525	20838
886.65	20705
886.775	20823
886.9	20815
887.025	20929
887.149	20712
887.274	20629
887.399	20602
887.523	20621
887.648	20404
887.773	20423
887.897	20594
888.021	20438
888.146	20568
888.27	20625
888.395	20697
888.519	20640
888.643	20583
888.767	20701
888.891	20332
889.015	20339
889.139	20450
889.263	20339
889.387	20492
889.511	20480
889.635	20434
889.759	20286
889.883	20351
890.006	20256
890.13	20313
890.254	20164
890.377	20202
890.501	20138
890.624	20122
890.748	20096
890.871	19986
890.995	19826
891.118	19841
891.241	19963
891.364	19944
891.488	20096
891.611	19868
891.734	19780
891.857	19978
891.98	20031
892.103	19917
892.226	19982
892.349	19887
892.471	19624
892.594	19784
892.717	19871
892.839	19864
892.962	19826
893.085	20001
893.207	19776
893.33	19795
893.452	19765
893.575	19955
893.697	19769
893.819	19940
893.941	20046
894.064	19993
894.186	19727
894.308	19704
894.43	19833
894.552	19932
894.674	19856
894.796	19727
894.918	19811
895.04	19818
895.161	19890
895.283	19788
895.405	19734
895.526	19928
895.648	19814
895.769	19750
895.891	19849
896.012	19871
896.134	19898
896.255	20005
896.376	19776
896.498	19913
896.619	19906
896.74	19753
896.861	19978
896.982	20172
897.103	20233
897.224	20153
897.345	20077
897.466	19940
897.587	20103
897.708	20199
897.828	20065
897.949	19951
898.07	19833
898.19	20020
898.311	20168
898.431	19959
898.552	19982
898.672	20081
898.792	20161
898.913	20153
899.033	19986
899.153	19928
899.273	19841
899.393	19803
899.513	19879
899.633	19871
899.753	19856
899.873	19841
899.993	19833
900.113	19719
900.232	19974
900.352	19826
900.472	19731
900.591	19620
900.711	19784
900.83	19601
900.95	19700
901.069	19677
901.189	19419
901.308	19365
901.427	19084
901.546	19084
901.665	19126
901.784	19190
901.904	19076
902.023	18958
902.141	18821
902.26	18875
902.379	18726
902.498	18734
902.617	18646
902.735	18730
902.854	18719
902.973	18673
903.091	18441
903.21	18334
903.328	18429
903.446	18315
903.565	18148
903.683	18186
903.801	18098
903.919	18114
904.038	18144
904.156	18110
904.274	18098
904.392	17912
904.51	17893
904.627	17866
904.745	17984
904.863	17969
904.981	17863
905.098	17623
905.216	17653
905.334	17691
905.451	17691
905.569	17585
905.686	17680
905.803	17672
905.921	17414
906.038	17532
906.155	17520
906.272	17376
906.389	17448
906.506	17299
906.623	17227
906.74	17193
906.857	17090
906.974	17033
907.091	17200
907.208	17277
907.324	17220
907.441	17052
907.557	16953
907.674	16942
907.79	16923
907.907	16877
908.023	16889
908.139	16885
908.256	16820
908.372	16774
908.488	16850
908.604	16653
908.72	16740
908.836	16592
908.952	16596
909.068	16706
909.184	16721
909.3	16558
909.415	16615
909.531	16675
909.647	16367
909.762	16272
909.878	16382
909.993	16348
910.108	16352
910.224	16143
910.339	16272
910.454	16185
910.57	16101
910.685	16055
910.8	16413
910.915	16303
911.03	16192
911.145	16040
911.259	16025
911.374	15941
911.489	15873
911.604	15797
911.718	15656
911.833	15698
911.947	15557
912.062	15553
912.176	15663
912.291	15698
912.405	15622
912.519	15846
912.633	15930
912.748	15736
912.862	15637
912.976	15545
913.09	15393
913.204	15447
913.318	15504
913.431	15599
913.545	15549
913.659	15534
913.772	15462
913.886	15332
914	15268
914.113	15424
914.226	15466
914.34	15317
914.453	15142
914.566	15306
914.68	15165
914.793	15104
914.906	14914
915.019	14895
915.132	14982
915.245	14796
915.358	15013
915.47	14944
915.583	14933
915.696	15009
915.809	15062
915.921	15043
916.034	14861
916.146	14845
916.259	14785
916.371	14788
916.483	14883
916.595	14788
916.708	14864
916.82	14746
916.932	14655
917.044	14735
917.156	14743
917.268	14606
917.38	14648
917.491	14594
917.603	14621
917.715	14617
917.826	14610
917.938	14522
918.049	14412
918.161	14465
918.272	14651
918.384	14640
918.495	14556
918.606	14377
918.717	14282
918.828	14442
918.939	14355
919.05	14218
919.161	14328
919.272	14256
919.383	14267
919.494	14358
919.604	14564
919.715	14324
919.826	14301
919.936	14362
920.047	14370
920.157	14393
920.267	14461
920.378	14328
920.488	14256
920.598	14495
920.708	14526
920.818	14537
920.928	14480
921.038	14667
921.148	14602
921.258	14282
921.368	14240
921.477	14046
921.587	14111
921.697	13883
921.806	14115
921.916	13906
922.025	13803
922.134	13708
922.244	13753
922.353	13605
922.462	13590
922.571	13457
922.68	13377
922.789	13411
922.898	13335
923.007	13301
923.116	13415
923.224	13266
923.333	13285
923.442	13179
923.55	13183
923.659	13209
923.767	13228
923.876	13118
923.984	13175
924.092	13031
924.201	13061
924.309	13091
924.417	13160
924.525	13012
924.633	13004
924.741	13898
924.849	12810
924.956	12981
925.064	12730
925.172	12772
925.279	12814
925.387	12817
925.494	12726
925.602	12829
925.709	12897
925.816	12681
925.924	12673
926.031	12749
926.138	12681
926.245	12753
926.352	12551
926.459	12779
926.566	12814
926.673	12631
926.779	12570
926.886	12498
926.993	12410
927.099	12422
927.206	12399
927.312	12254
927.419	12334
927.525	12372
927.631	12407
927.737	12273
927.843	12216
927.95	12114
928.056	12205
928.162	12144
928.267	12197
928.373	12783
928.479	12262
928.585	12019
928.69	12079
928.796	12121
928.901	12057
929.007	11969
929.112	12030
929.218	12030
929.323	11954
929.428	11847
929.533	11988
929.638	11843
929.743	11889
929.848	11889
929.953	11676
930.058	11729
930.163	11596
930.267	11596
930.372	11729
930.477	11589
930.581	11775
930.685	11596
930.79	11509
930.894	11436
930.998	11395
931.103	11570
931.207	11220
931.311	11090
931.415	11102
931.519	10900
931.623	10828
