Data from test_V78500241_1950.txt Node
Date: Fri Mar 25 15:23:26 CST 2022
User: usil
Spectrometer: V785-0024
Trigger mode: 0
Integration Time (sec): 4.000000E-1
Scans to average: 1
Nonlinearity correction enabled: false
Boxcar width: 0
Storing dark spectrum: false
XAxis mode: Wavelengths
Number of Pixels in Spectrum: 1024
>>>>>Begin Spectral Data<<<<<
801.071	27743
801.214	27660
801.356	27504
801.499	27431
801.641	27218
801.783	27252
801.926	27374
802.068	27195
802.211	27233
802.353	26960
802.496	26963
802.638	27001
802.78	26880
802.923	26823
803.065	26819
803.208	26849
803.35	27043
803.492	26975
803.635	27066
803.777	26979
803.919	27154
804.061	27401
804.204	27203
804.346	26979
804.488	26925
804.63	27013
804.773	27081
804.915	27104
805.057	27135
805.199	27009
805.341	27184
805.483	27256
805.626	27336
805.768	27154
805.91	27169
806.052	27161
806.194	27135
806.336	27351
806.478	27245
806.62	27157
806.762	27306
806.904	27606
807.046	27850
807.188	27633
807.33	27606
807.472	27789
807.614	27538
807.756	27732
807.898	27492
808.04	27519
808.182	27367
808.324	27583
808.465	27488
808.607	27778
808.749	27869
808.891	27842
809.033	27937
809.174	27819
809.316	27732
809.458	27987
809.6	27797
809.741	28051
809.883	27884
810.025	28158
810.166	28051
810.308	28143
810.45	28162
810.591	28029
810.733	27850
810.875	27797
811.016	27656
811.158	27808
811.299	27869
811.441	27945
811.582	27850
811.724	27888
811.865	27838
812.007	28002
812.148	27823
812.29	27846
812.431	28101
812.573	28131
812.714	28390
812.855	28413
812.997	28557
813.138	28508
813.279	28474
813.421	28196
813.562	28207
813.703	28109
813.845	28078
813.986	27759
814.127	27526
814.268	27530
814.41	27580
814.551	27542
814.692	27610
814.833	27515
814.974	27538
815.115	27648
815.256	27203
815.397	27367
815.539	27538
815.68	27363
815.821	27325
815.962	27321
816.103	27443
816.244	27260
816.385	27104
816.526	27135
816.666	26880
816.807	26853
816.948	26826
817.089	26975
817.23	26887
817.371	26773
817.512	26796
817.653	26807
817.793	26746
817.934	26891
818.075	26735
818.216	26838
818.356	26754
818.497	26636
818.638	26545
818.778	26594
818.919	26499
819.06	26530
819.2	26693
819.341	26906
819.481	26716
819.622	26986
819.762	27317
819.903	27009
820.043	26906
820.184	26994
820.324	26807
820.465	26998
820.605	26864
820.746	27017
820.886	26906
821.026	27047
821.167	26895
821.307	27051
821.447	26853
821.588	26792
821.728	26682
821.868	26400
822.008	26423
822.149	26271
822.289	26339
822.429	26103
822.569	25917
822.709	25940
822.849	25826
822.99	25826
823.13	25780
823.27	25772
823.41	25696
823.55	25525
823.69	25643
823.83	25601
823.97	25403
824.11	25403
824.25	25449
824.389	25445
824.529	25639
824.669	25502
824.809	25487
824.949	25502
825.089	25567
825.228	25411
825.368	25445
825.508	25365
825.648	25339
825.787	25350
825.927	25441
826.067	25308
826.206	25354
826.346	25320
826.485	25362
826.625	25384
826.765	25540
826.904	25350
827.044	25004
827.183	25137
827.323	25027
827.462	25217
827.601	24977
827.741	25099
827.88	25015
828.02	24825
828.159	24939
828.298	25110
828.437	25168
828.577	24939
828.716	25126
828.855	24878
828.994	24760
829.134	24722
829.273	24795
829.412	24665
829.551	24730
829.69	24719
829.829	24703
829.968	24768
830.107	24669
830.246	24734
830.385	24681
830.524	24582
830.663	24620
830.802	24509
830.941	24384
831.08	24330
831.219	24388
831.357	24346
831.496	24566
831.635	24395
831.774	24232
831.913	24258
832.051	24106
832.19	24281
832.329	24159
832.467	24022
832.606	24045
832.744	24011
832.883	24015
833.022	23889
833.16	23996
833.299	23973
833.437	24072
833.576	24186
833.714	24174
833.852	24095
833.991	24091
834.129	24194
834.267	24220
834.406	24110
834.544	24167
834.682	24060
834.821	23973
834.959	24167
835.097	24167
835.235	24121
835.373	23973
835.511	24148
835.65	23992
835.788	23958
835.926	23722
836.064	23722
836.202	23855
836.34	23931
836.478	23931
836.615	23878
836.753	23840
836.891	24110
837.029	23999
837.167	23828
837.305	23737
837.443	23878
837.58	23885
837.718	23889
837.856	23786
837.993	23809
838.131	23707
838.269	23718
838.406	23638
838.544	23623
838.681	23455
838.819	23604
838.956	23258
839.094	23322
839.231	23322
839.369	23501
839.506	23531
839.643	23406
839.781	23292
839.918	23220
840.055	23258
840.193	23223
840.33	23273
840.467	23212
840.604	23159
840.742	23433
840.879	23143
841.016	23079
841.153	23071
841.29	23189
841.427	23033
841.564	23200
841.701	23083
841.838	23109
841.975	22961
842.112	23041
842.249	23060
842.385	22869
842.522	23029
842.659	23075
842.796	22904
842.933	22850
843.069	22900
843.206	22942
843.343	22987
843.479	22885
843.616	23025
843.752	22763
843.889	22740
844.025	22771
844.162	22611
844.298	22843
844.435	22664
844.571	22725
844.708	22744
844.844	22858
844.98	22892
845.117	22843
845.253	22611
845.389	22577
845.525	22569
845.661	22455
845.798	22440
845.934	22500
846.07	22386
846.206	22447
846.342	22436
846.478	22295
846.614	22246
846.75	22048
846.886	22166
847.022	22200
847.158	22116
847.294	22268
847.429	22238
847.565	22204
847.701	22398
847.837	21949
847.972	21941
848.108	22063
848.244	22025
848.379	21819
848.515	21739
848.65	21774
848.786	21781
848.921	21705
849.057	21793
849.192	21850
849.328	21705
849.463	21732
849.598	21720
849.734	21736
849.869	21534
850.004	21564
850.14	21587
850.275	21488
850.41	21454
850.545	21481
850.68	21469
850.815	21462
850.95	21553
851.085	21622
851.22	21542
851.355	21561
851.49	21386
851.625	21447
851.76	21504
851.895	21424
852.03	21526
852.165	21412
852.299	21488
852.434	21568
852.569	21469
852.703	21458
852.838	21523
852.973	21572
853.107	21583
853.242	21367
853.376	21245
853.511	21180
853.645	21367
853.78	21530
853.914	21351
854.048	21165
854.183	21283
854.317	21264
854.451	21374
854.585	21344
854.72	21454
854.854	21351
854.988	21211
855.122	21260
855.256	21226
855.39	21302
855.524	21431
855.658	21466
855.792	21260
855.926	21321
856.06	21466
856.194	21374
856.327	21340
856.461	21272
856.595	21184
856.729	21329
856.862	21389
856.996	21321
857.13	21424
857.263	21439
857.397	21405
857.53	21408
857.664	21393
857.797	21386
857.931	21378
858.064	21310
858.197	21458
858.331	21332
858.464	21344
858.597	21298
858.731	21298
858.864	21355
858.997	21401
859.13	21370
859.263	21321
859.396	21412
859.529	21367
859.662	21249
859.795	21180
859.928	21313
860.061	21637
860.194	21583
860.327	21405
860.46	21325
860.592	21401
860.725	21454
860.858	21401
860.99	21275
861.123	21211
861.256	21211
861.388	21355
861.521	22067
861.653	21302
861.786	21131
861.918	21165
862.05	21154
862.183	21321
862.315	21294
862.447	21275
862.58	21279
862.712	20933
862.844	20979
862.976	21165
863.108	21192
863.24	21542
863.372	21032
863.504	20933
863.636	21066
863.768	21131
863.9	21131
864.032	21058
864.164	21108
864.296	21043
864.428	21108
864.559	21123
864.691	21032
864.823	21085
864.954	21028
865.086	20967
865.217	20929
865.349	20800
865.48	20948
865.612	20941
865.743	21135
865.875	21005
866.006	20887
866.137	20990
866.269	21096
866.4	20864
866.531	20895
866.662	20777
866.793	20899
866.924	20902
867.055	20826
867.186	20876
867.317	20769
867.448	20868
867.579	20872
867.71	20750
867.841	20670
867.972	20849
868.103	20872
868.233	20792
868.364	20849
868.495	20925
868.625	21085
868.756	21195
868.886	20986
869.017	21108
869.147	21211
869.278	21230
869.408	21131
869.539	21074
869.669	21184
869.799	21066
869.929	21291
870.06	21226
870.19	21397
870.32	21435
870.45	21424
870.58	21447
870.71	21504
870.84	21637
870.97	21481
871.1	21428
871.23	21747
871.36	21743
871.489	21492
871.619	21660
871.749	21679
871.879	21667
872.008	21842
872.138	21694
872.267	21766
872.397	21496
872.526	21580
872.656	21576
872.785	21428
872.915	21774
873.044	21793
873.173	21679
873.303	21781
873.432	21842
873.561	21869
873.69	21724
873.819	21835
873.948	21835
874.077	21804
874.206	21671
874.335	21743
874.464	21846
874.593	22006
874.722	21827
874.851	21922
874.979	21903
875.108	22093
875.237	21873
875.365	21850
875.494	21892
875.623	21888
875.751	21930
875.88	21979
876.008	21937
876.136	22082
876.265	22428
876.393	22424
876.521	22447
876.65	22512
876.778	22322
876.906	22310
877.034	22128
877.162	22306
877.29	22284
877.418	22314
877.546	22352
877.674	22333
877.802	22371
877.93	22291
878.058	22211
878.185	22257
878.313	22348
878.441	22337
878.568	22124
878.696	22310
878.824	22306
878.951	22432
879.079	22405
879.206	22580
879.333	22443
879.461	22363
879.588	22542
879.715	22421
879.842	22561
879.97	22379
880.097	22219
880.224	22162
880.351	22261
880.478	22112
880.605	22143
880.732	22002
880.859	22390
880.986	22181
881.112	22188
881.239	21968
881.366	21793
881.493	21797
881.619	21736
881.746	21835
881.872	21732
881.999	21770
882.125	21618
882.252	21770
882.378	21713
882.505	21842
882.631	21553
882.757	21538
882.883	21496
883.01	21393
883.136	21466
883.262	21363
883.388	21127
883.514	21408
883.64	21504
883.766	21272
883.892	21135
884.018	21161
884.143	21370
884.269	21447
884.395	21298
884.52	21184
884.646	21127
884.772	20975
884.897	20979
885.023	21085
885.148	21157
885.274	21157
885.399	21058
885.524	21077
885.65	21104
885.775	21062
885.9	21028
886.025	21180
886.15	21161
886.275	21036
886.4	21001
886.525	21043
886.65	21017
886.775	20861
886.9	21013
887.025	21214
887.149	21013
887.274	20933
887.399	20743
887.523	20773
887.648	20842
887.773	20769
887.897	20876
888.021	20800
888.146	20899
888.27	20910
888.395	20914
888.519	20899
888.643	20921
888.767	20891
888.891	20720
889.015	20629
889.139	20644
889.263	20598
889.387	20708
889.511	20834
889.635	20743
889.759	20552
889.883	20651
890.006	20629
890.13	20678
890.254	20518
890.377	20427
890.501	20355
890.624	20415
890.748	20419
890.871	20355
890.995	20237
891.118	20202
891.241	20221
891.364	20301
891.488	20370
891.611	20233
891.734	20267
891.857	20248
891.98	20206
892.103	20168
892.226	20229
892.349	20043
892.471	20024
892.594	20020
892.717	20024
892.839	20096
892.962	20012
893.085	20100
893.207	20031
893.33	20001
893.452	19887
893.575	20096
893.697	20103
893.819	20263
893.941	20256
894.064	20248
894.186	20050
894.308	20024
894.43	20153
894.552	20240
894.674	20157
894.796	20031
894.918	20153
895.04	19978
895.161	20191
895.283	20039
895.405	19986
895.526	20054
895.648	20065
895.769	20145
895.891	20263
896.012	20145
896.134	20183
896.255	20081
896.376	20100
896.498	20065
896.619	20100
896.74	20153
896.861	20062
896.982	20454
897.103	20621
897.224	20389
897.345	20313
897.466	20267
897.587	20290
897.708	20465
897.828	20366
897.949	20180
898.07	20062
898.19	20168
898.311	20298
898.431	20221
898.552	20362
898.672	20305
898.792	20389
898.913	20347
899.033	20271
899.153	20073
899.273	19978
899.393	20016
899.513	20062
899.633	20084
899.753	20153
899.873	19940
899.993	20077
900.113	19909
900.232	19967
900.352	20005
900.472	19860
900.591	19875
900.711	19970
900.83	19807
900.95	19997
901.069	19894
901.189	19738
901.308	19571
901.427	19415
901.546	19521
901.665	19434
901.784	19491
901.904	19247
902.023	19141
902.141	18962
902.26	19042
902.379	18973
902.498	18882
902.617	18886
902.735	18894
902.854	18897
902.973	18806
903.091	18597
903.21	18642
903.328	18642
903.446	18642
903.565	18490
903.683	18376
903.801	18323
903.919	18418
904.038	18429
904.156	18106
904.274	18262
904.392	18155
904.51	18133
904.627	18155
904.745	18110
904.863	18213
904.981	17939
905.098	17775
905.216	17866
905.334	17927
905.451	17920
905.569	17840
905.686	17809
905.803	17832
905.921	17543
906.038	17764
906.155	17665
906.272	17566
906.389	17509
906.506	17471
906.623	17429
906.74	17368
906.857	17372
906.974	17349
907.091	17368
907.208	17615
907.324	17410
907.441	17227
907.557	17151
907.674	17067
907.79	17113
907.907	17029
908.023	17071
908.139	17048
908.256	17056
908.372	17025
908.488	17014
908.604	16793
908.72	16793
908.836	16915
908.952	16706
909.068	16862
909.184	16869
909.3	16774
909.415	16942
909.531	16774
909.647	16558
909.762	16565
909.878	16478
909.993	16565
910.108	16618
910.224	16451
910.339	16561
910.454	16405
910.57	16219
910.685	16242
910.8	16577
910.915	16428
911.03	16291
911.145	16105
911.259	16158
911.374	16192
911.489	15987
911.604	15941
911.718	15835
911.833	15975
911.947	15751
912.062	15690
912.176	15854
912.291	15759
912.405	15747
912.519	16013
912.633	16055
912.748	15808
912.862	15838
912.976	15656
913.09	15542
913.204	15572
913.318	15682
913.431	15724
913.545	15732
913.659	15937
913.772	15671
913.886	15492
914	15393
914.113	15561
914.226	15648
914.34	15523
914.453	15416
914.566	15511
914.68	15454
914.793	15302
914.906	15062
915.019	15009
915.132	15047
915.245	15032
915.358	15150
915.47	15199
915.583	15108
915.696	15009
915.809	15195
915.921	15230
916.034	15036
916.146	14902
916.259	15051
916.371	15169
916.483	14975
916.595	14887
916.708	14963
916.82	15028
916.932	14864
917.044	14864
917.156	14902
917.268	14785
917.38	14765
917.491	14743
917.603	14849
917.715	14724
917.826	14857
917.938	14758
918.049	14636
918.161	14705
918.272	14872
918.384	14811
918.495	14705
918.606	14560
918.717	14648
918.828	14579
918.939	14552
919.05	14385
919.161	14568
919.272	14278
919.383	14313
919.494	14560
919.604	14720
919.715	14476
919.826	14400
919.936	14423
920.047	14526
920.157	14454
920.267	14686
920.378	14438
920.488	14419
920.598	14621
920.708	14750
920.818	14579
920.928	14651
921.038	14629
921.148	14724
921.258	14454
921.368	14294
921.477	14145
921.587	14229
921.697	14062
921.806	14176
921.916	13978
922.025	13898
922.134	13757
922.244	13753
922.353	13852
922.462	13784
922.571	13677
922.68	13487
922.789	13384
922.898	13476
923.007	13403
923.116	13521
923.224	13502
923.333	13400
923.442	13350
923.55	13259
923.659	13369
923.767	13354
923.876	13244
923.984	13358
924.092	13213
924.201	13263
924.309	13133
924.417	13171
924.525	13209
924.633	13225
924.741	14077
924.849	12989
924.956	13072
925.064	12935
925.172	12817
925.279	12905
925.387	12871
925.494	12852
925.602	13031
925.709	12996
925.816	12802
925.924	12924
926.031	12985
926.138	12878
926.245	12787
926.352	12779
926.459	12913
926.566	12932
926.673	12783
926.779	12806
926.886	12601
926.993	12513
927.099	12486
927.206	12502
927.312	12448
927.419	12525
927.525	12399
927.631	12559
927.737	12410
927.843	12285
927.95	12152
928.056	12311
928.162	12300
928.267	12357
928.373	12798
928.479	12391
928.585	12136
928.69	12262
928.796	12346
928.901	12163
929.007	12011
929.112	12182
929.218	12114
929.323	12098
929.428	11992
929.533	12186
929.638	11977
929.743	11984
929.848	11992
929.953	11965
930.058	11817
930.163	11688
930.267	11733
930.372	11859
930.477	11676
930.581	11809
930.685	11767
930.79	11566
930.894	11646
930.998	11554
931.103	11657
931.207	11311
931.311	11239
931.415	11212
931.519	11067
931.623	10976
