Data from test_V78500241_1504.txt Node
Date: Fri Mar 25 15:20:19 CST 2022
User: usil
Spectrometer: V785-0024
Trigger mode: 0
Integration Time (sec): 4.000000E-1
Scans to average: 1
Nonlinearity correction enabled: false
Boxcar width: 0
Storing dark spectrum: false
XAxis mode: Wavelengths
Number of Pixels in Spectrum: 1024
>>>>>Begin Spectral Data<<<<<
801.071	28158
801.214	28059
801.356	27736
801.499	27698
801.641	27583
801.783	27667
801.926	27717
802.068	27591
802.211	27534
802.353	27466
802.496	27443
802.638	27408
802.78	27340
802.923	27275
803.065	27199
803.208	27264
803.35	27378
803.492	27408
803.635	27469
803.777	27416
803.919	27564
804.061	27732
804.204	27538
804.346	27351
804.488	27439
804.63	27431
804.773	27412
804.915	27587
805.057	27709
805.199	27572
805.341	27561
805.483	27739
805.626	27549
805.768	27671
805.91	27846
806.052	27629
806.194	27614
806.336	27800
806.478	27610
806.62	27808
806.762	27625
806.904	27812
807.046	28090
807.188	28093
807.33	28112
807.472	28055
807.614	27857
807.756	28147
807.898	27983
808.04	27812
808.182	27991
808.324	27979
808.465	28074
808.607	28158
808.749	28394
808.891	28329
809.033	28478
809.174	28421
809.316	28223
809.458	28143
809.6	28303
809.741	28497
809.883	28451
810.025	28607
810.166	28580
810.308	28565
810.45	28645
810.591	28546
810.733	28424
810.875	28287
811.016	28185
811.158	28166
811.299	28337
811.441	28424
811.582	28421
811.724	28356
811.865	28363
812.007	28318
812.148	28405
812.29	28325
812.431	28466
812.573	28748
812.714	28702
812.855	28790
812.997	28850
813.138	29075
813.279	29044
813.421	28999
813.562	28831
813.703	28717
813.845	28580
813.986	28284
814.127	28173
814.268	27994
814.41	28048
814.551	27930
814.692	28070
814.833	27994
814.974	27968
815.115	28090
815.256	27918
815.397	27899
815.539	27816
815.68	27808
815.821	27766
815.962	27842
816.103	27785
816.244	27701
816.385	27473
816.526	27625
816.666	27348
816.807	27241
816.948	27336
817.089	27443
817.23	27275
817.371	27298
817.512	27241
817.653	27268
817.793	27123
817.934	27336
818.075	27192
818.216	27389
818.356	27325
818.497	27184
818.638	26967
818.778	27116
818.919	27077
819.06	27233
819.2	27135
819.341	27313
819.481	27348
819.622	27485
819.762	27644
819.903	27610
820.043	27485
820.184	27408
820.324	27382
820.465	27599
820.605	27447
820.746	27382
820.886	27313
821.026	27291
821.167	27363
821.307	27332
821.447	27275
821.588	27226
821.728	27127
821.868	26800
822.008	26834
822.149	26739
822.289	26678
822.429	26488
822.569	26427
822.709	26381
822.849	26343
822.99	26309
823.13	26183
823.27	26210
823.41	26130
823.55	25955
823.69	26100
823.83	26069
823.97	26126
824.11	25940
824.25	25875
824.389	25925
824.529	26062
824.669	25921
824.809	25928
824.949	26138
825.089	25966
825.228	25894
825.368	25765
825.508	25696
825.648	25814
825.787	25757
825.927	25769
826.067	25746
826.206	25776
826.346	25894
826.485	25875
826.625	25742
826.765	25856
826.904	25765
827.044	25639
827.183	25594
827.323	25457
827.462	25548
827.601	25506
827.741	25441
827.88	25529
828.02	25388
828.159	25304
828.298	25502
828.437	25472
828.577	25449
828.716	25510
828.855	25487
828.994	25160
829.134	25301
829.273	25213
829.412	25194
829.551	25297
829.69	25225
829.829	25183
829.968	25266
830.107	25293
830.246	25148
830.385	25156
830.524	25221
830.663	24992
830.802	24909
830.941	24757
831.08	24715
831.219	24913
831.357	24943
831.496	25107
831.635	24802
831.774	24768
831.913	24692
832.051	24513
832.19	24486
832.329	24627
832.467	24540
832.606	24517
832.744	24471
832.883	24437
833.022	24536
833.16	24578
833.299	24582
833.437	24532
833.576	24521
833.714	24498
833.852	24547
833.991	24585
834.129	24654
834.267	24612
834.406	24730
834.544	24498
834.682	24559
834.821	24517
834.959	24703
835.097	24311
835.235	24528
835.373	24612
835.511	24551
835.65	24315
835.788	24319
835.926	24213
836.064	24266
836.202	23988
836.34	24346
836.478	24426
836.615	24258
836.753	24338
836.891	24346
837.029	24205
837.167	24201
837.305	24163
837.443	24254
837.58	24247
837.718	24315
837.856	24220
837.993	24308
838.131	24144
838.269	24060
838.406	24102
838.544	23988
838.681	23863
838.819	23779
838.956	23600
839.094	23554
839.231	23684
839.369	23817
839.506	23946
839.643	23889
839.781	23661
839.918	23558
840.055	23554
840.193	23535
840.33	23619
840.467	23608
840.604	23573
840.742	23851
840.879	23566
841.016	23429
841.153	23455
841.29	23703
841.427	23589
841.564	23573
841.701	23611
841.838	23497
841.975	23448
842.112	23512
842.249	23421
842.385	23292
842.522	23528
842.659	23379
842.796	23349
842.933	23311
843.069	23269
843.206	23277
843.343	23254
843.479	23349
843.616	23326
843.752	23166
843.889	23132
844.025	23250
844.162	23098
844.298	23311
844.435	22987
844.571	23010
844.708	23102
844.844	23178
844.98	23231
845.117	23280
845.253	22957
845.389	23022
845.525	22942
845.661	22869
845.798	22839
845.934	22820
846.07	22710
846.206	22839
846.342	22896
846.478	22759
846.614	22672
846.75	22443
846.886	22615
847.022	22618
847.158	22649
847.294	22481
847.429	22679
847.565	22569
847.701	22869
847.837	22295
847.972	22177
848.108	22447
848.244	22268
848.379	22249
848.515	22048
848.65	21994
848.786	22158
848.921	22177
849.057	22265
849.192	22215
849.328	22128
849.463	22048
849.598	22063
849.734	22109
849.869	21991
850.004	21918
850.14	21934
850.275	21892
850.41	21899
850.545	21850
850.68	21880
850.815	21907
850.95	21968
851.085	21918
851.22	21907
851.355	21835
851.49	21899
851.625	21850
851.76	21922
851.895	21778
852.03	21747
852.165	21892
852.299	21911
852.434	22002
852.569	22013
852.703	21987
852.838	21937
852.973	22010
853.107	22021
853.242	21713
853.376	21774
853.511	21564
853.645	21633
853.78	21911
853.914	21789
854.048	21599
854.183	21698
854.317	21656
854.451	21785
854.585	21629
854.72	21705
854.854	21778
854.988	21656
855.122	21694
855.256	21637
855.39	21682
855.524	21812
855.658	21797
855.792	21766
855.926	21694
856.06	21720
856.194	21899
856.327	21690
856.461	21599
856.595	21671
856.729	21614
856.862	21770
856.996	21793
857.13	21854
857.263	21698
857.397	21785
857.53	21637
857.664	21823
857.797	21762
857.931	21823
858.064	21622
858.197	21816
858.331	21682
858.464	21583
858.597	21599
858.731	21641
858.864	21625
858.997	21595
859.13	21622
859.263	21747
859.396	21728
859.529	21686
859.662	21667
859.795	21641
859.928	21663
860.061	21873
860.194	21888
860.327	21720
860.46	21690
860.592	21728
860.725	21838
860.858	21781
860.99	21762
861.123	21698
861.256	21652
861.388	21698
861.521	22314
861.653	21576
861.786	21534
861.918	21488
862.05	21587
862.183	21603
862.315	21656
862.447	21675
862.58	21717
862.712	21462
862.844	21439
862.976	21473
863.108	21496
863.24	21663
863.372	21416
863.504	21393
863.636	21477
863.768	21405
863.9	21420
864.032	21321
864.164	21325
864.296	21401
864.428	21610
864.559	21477
864.691	21473
864.823	21325
864.954	21408
865.086	21454
865.217	21306
865.349	21340
865.48	21230
865.612	21230
865.743	21428
865.875	21416
866.006	21157
866.137	21310
866.269	21332
866.4	21344
866.531	21302
866.662	21237
866.793	21268
866.924	21222
867.055	21279
867.186	21180
867.317	21233
867.448	21173
867.579	21116
867.71	21020
867.841	21154
867.972	21287
868.103	21252
868.233	21218
868.364	21226
868.495	21306
868.625	21431
868.756	21428
868.886	21325
869.017	21534
869.147	21424
869.278	21698
869.408	21424
869.539	21458
869.669	21580
869.799	21500
869.929	21614
870.06	21534
870.19	21686
870.32	21705
870.45	21827
870.58	21930
870.71	21945
870.84	21934
870.97	21918
871.1	21968
871.23	21972
871.36	22055
871.489	22021
871.619	22040
871.749	21953
871.879	22112
872.008	22090
872.138	22147
872.267	21998
872.397	21873
872.526	21861
872.656	21911
872.785	21857
872.915	22040
873.044	22284
873.173	22006
873.303	22128
873.432	22280
873.561	22192
873.69	22204
873.819	22051
873.948	22147
874.077	22150
874.206	22044
874.335	22006
874.464	22211
874.593	22219
874.722	22303
874.851	22230
874.979	22398
875.108	22367
875.237	22249
875.365	22234
875.494	22158
875.623	22352
875.751	22421
875.88	22265
876.008	22413
876.136	22485
876.265	22668
876.393	22911
876.521	22755
876.65	22812
876.778	22721
876.906	22729
877.034	22554
877.162	22702
877.29	22691
877.418	22687
877.546	22603
877.674	22565
877.802	22793
877.93	22527
878.058	22569
878.185	22656
878.313	22542
878.441	22516
878.568	22398
878.696	22474
878.824	22679
878.951	22664
879.079	22831
879.206	22896
879.333	22774
879.461	22694
879.588	22710
879.715	22774
879.842	22759
879.97	22683
880.097	22405
880.224	22428
880.351	22428
880.478	22405
880.605	22478
880.732	22497
880.859	22691
880.986	22523
881.112	22394
881.239	22360
881.366	22173
881.493	22150
881.619	22002
881.746	22109
881.872	22021
881.999	22010
882.125	21941
882.252	22070
882.378	22090
882.505	22158
882.631	21918
882.757	21762
882.883	21812
883.01	21751
883.136	21675
883.262	21583
883.388	21515
883.514	21755
883.64	21572
883.766	21625
883.892	21568
884.018	21500
884.143	21633
884.269	21679
884.395	21389
884.52	21294
884.646	21344
884.772	21313
884.897	21150
885.023	21420
885.148	21526
885.274	21523
885.399	21393
885.524	21306
885.65	21332
885.775	21378
885.9	21363
886.025	21428
886.15	21321
886.275	21268
886.4	21313
886.525	21313
886.65	21199
886.775	21233
886.9	21420
887.025	21511
887.149	21272
887.274	21230
887.399	21165
887.523	21119
887.648	21161
887.773	21001
887.897	21157
888.021	21138
888.146	20998
888.27	21100
888.395	21283
888.519	21207
888.643	21188
888.767	21104
888.891	20990
889.015	20933
889.139	20986
889.263	20910
889.387	20986
889.511	21119
889.635	21005
889.759	20906
889.883	20830
890.006	20826
890.13	20967
890.254	20864
890.377	20880
890.501	20575
890.624	20575
890.748	20746
890.871	20686
890.995	20488
891.118	20423
891.241	20461
891.364	20476
891.488	20621
891.611	20526
891.734	20301
891.857	20526
891.98	20549
892.103	20336
892.226	20594
892.349	20556
892.471	20370
892.594	20473
892.717	20446
892.839	20347
892.962	20408
893.085	20396
893.207	20419
893.33	20336
893.452	20180
893.575	20461
893.697	20336
893.819	20503
893.941	20438
894.064	20533
894.186	20305
894.308	20275
894.43	20446
894.552	20492
894.674	20415
894.796	20305
894.918	20275
895.04	20244
895.161	20450
895.283	20389
895.405	20317
895.526	20339
895.648	20438
895.769	20438
895.891	20328
896.012	20313
896.134	20328
896.255	20374
896.376	20400
896.498	20366
896.619	20389
896.74	20408
896.861	20495
896.982	20629
897.103	20792
897.224	20587
897.345	20606
897.466	20594
897.587	20644
897.708	20762
897.828	20629
897.949	20518
898.07	20518
898.19	20514
898.311	20659
898.431	20393
898.552	20587
898.672	20648
898.792	20640
898.913	20564
899.033	20590
899.153	20465
899.273	20275
899.393	20343
899.513	20324
899.633	20438
899.753	20320
899.873	20286
899.993	20358
900.113	20206
900.232	20358
900.352	20233
900.472	20062
900.591	20065
900.711	19997
900.83	19986
900.95	20263
901.069	20092
901.189	19951
901.308	19822
901.427	19647
901.546	19700
901.665	19700
901.784	19685
901.904	19605
902.023	19559
902.141	19194
902.26	19183
902.379	19358
902.498	19324
902.617	19156
902.735	19282
902.854	19148
902.973	19103
903.091	18894
903.21	18901
903.328	18738
903.446	18741
903.565	18711
903.683	18654
903.801	18620
903.919	18604
904.038	18627
904.156	18547
904.274	18502
904.392	18391
904.51	18346
904.627	18357
904.745	18422
904.863	18471
904.981	18228
905.098	18041
905.216	18064
905.334	18159
905.451	18106
905.569	18125
905.686	18106
905.803	18178
905.921	17863
906.038	17946
906.155	17821
906.272	17756
906.389	17790
906.506	17642
906.623	17543
906.74	17596
906.857	17543
906.974	17535
907.091	17608
907.208	17779
907.324	17741
907.441	17512
907.557	17455
907.674	17334
907.79	17318
907.907	17288
908.023	17376
908.139	17330
908.256	17250
908.372	17254
908.488	17159
908.604	17064
908.72	17018
908.836	17140
908.952	17033
909.068	17094
909.184	17208
909.3	17128
909.415	17143
909.531	17025
909.647	16854
909.762	16717
909.878	16755
909.993	16850
910.108	16649
910.224	16702
910.339	16687
910.454	16668
910.57	16611
910.685	16565
910.8	16786
910.915	16683
911.03	16489
911.145	16424
911.259	16379
911.374	16409
911.489	16268
911.604	16276
911.718	16029
911.833	16131
911.947	15972
912.062	15972
912.176	16029
912.291	16044
912.405	16067
912.519	16242
912.633	16295
912.748	16139
912.862	16051
912.976	15983
913.09	15785
913.204	15884
913.318	15838
913.431	15953
913.545	16093
913.659	15994
913.772	15835
913.886	15751
914	15717
914.113	15838
914.226	15755
914.34	15675
914.453	15587
914.566	15732
914.68	15584
914.793	15660
914.906	15386
915.019	15458
915.132	15275
915.245	15256
915.358	15317
915.47	15355
915.583	15260
915.696	15359
915.809	15435
915.921	15393
916.034	15173
916.146	15256
916.259	15188
916.371	15291
916.483	15298
916.595	15051
916.708	15150
916.82	15093
916.932	15150
917.044	15066
917.156	15089
917.268	15066
917.38	15036
917.491	14990
917.603	14975
917.715	15024
917.826	14910
917.938	14785
918.049	14906
918.161	14925
918.272	15013
918.384	14933
918.495	14971
918.606	14758
918.717	14606
918.828	14762
918.939	14750
919.05	14514
919.161	14693
919.272	14533
919.383	14571
919.494	14769
919.604	14918
919.715	14697
919.826	14648
919.936	14549
920.047	14807
920.157	14765
920.267	14861
920.378	14655
920.488	14587
920.598	14807
920.708	14952
920.818	14720
920.928	14811
921.038	14956
921.148	14925
921.258	14587
921.368	14419
921.477	14339
921.587	14427
921.697	14339
921.806	14370
921.916	14138
922.025	14043
922.134	14027
922.244	13970
922.353	14096
922.462	13826
922.571	13814
922.68	13795
922.789	13746
922.898	13628
923.007	13571
923.116	13776
923.224	13613
923.333	13643
923.442	13575
923.55	13529
923.659	13624
923.767	13548
923.876	13457
923.984	13533
924.092	13320
924.201	13384
924.309	13445
924.417	13445
924.525	13285
924.633	13304
924.741	14202
924.849	13190
924.956	13187
925.064	13194
925.172	13023
925.279	13000
925.387	13122
925.494	12981
925.602	13259
925.709	13076
925.816	12993
925.924	13065
926.031	13019
926.138	13019
926.245	12962
926.352	12932
926.459	13149
926.566	13114
926.673	12973
926.779	12821
926.886	12783
926.993	12707
927.099	12681
927.206	12540
927.312	12578
927.419	12642
927.525	12604
927.631	12684
927.737	12585
927.843	12532
927.95	12467
928.056	12490
928.162	12429
928.267	12555
928.373	13069
928.479	12494
928.585	12334
928.69	12388
928.796	12441
928.901	12350
929.007	12254
929.112	12353
929.218	12266
929.323	12186
929.428	12148
929.533	12277
929.638	12079
929.743	12175
929.848	12201
929.953	12064
930.058	11999
930.163	11878
930.267	11954
930.372	12133
930.477	11836
930.581	12133
930.685	11863
930.79	11760
930.894	11786
930.998	11726
931.103	11809
931.207	11486
931.311	11387
931.415	11337
931.519	11223
931.623	11181
