Data from test_V78500241_306.txt Node
Date: Fri Mar 25 15:11:59 CST 2022
User: usil
Spectrometer: V785-0024
Trigger mode: 0
Integration Time (sec): 4.000000E-1
Scans to average: 1
Nonlinearity correction enabled: false
Boxcar width: 0
Storing dark spectrum: false
XAxis mode: Wavelengths
Number of Pixels in Spectrum: 1024
>>>>>Begin Spectral Data<<<<<
801.071	28021
801.214	27736
801.356	27591
801.499	27637
801.641	27405
801.783	27511
801.926	27469
802.068	27374
802.211	27466
802.353	27317
802.496	27135
802.638	27089
802.78	27154
802.923	26902
803.065	27047
803.208	27005
803.35	27077
803.492	27431
803.635	27256
803.777	27123
803.919	27359
804.061	27515
804.204	27393
804.346	27112
804.488	27062
804.63	27275
804.773	27096
804.915	27245
805.057	27370
805.199	27100
805.341	27393
805.483	27477
805.626	27310
805.768	27165
805.91	27230
806.052	27466
806.194	27199
806.336	27530
806.478	27378
806.62	27291
806.762	27488
806.904	27614
807.046	27873
807.188	27724
807.33	27686
807.472	27762
807.614	27660
807.756	27694
807.898	27492
808.04	27412
808.182	27454
808.324	27545
808.465	27492
808.607	27747
808.749	27899
808.891	28124
809.033	28067
809.174	27949
809.316	27895
809.458	27934
809.6	27812
809.741	27873
809.883	27998
810.025	28097
810.166	27983
810.308	28093
810.45	28105
810.591	28029
810.733	27793
810.875	27941
811.016	27937
811.158	27800
811.299	27930
811.441	27964
811.582	27861
811.724	27960
811.865	27949
812.007	27785
812.148	28074
812.29	27827
812.431	28006
812.573	28044
812.714	28280
812.855	28413
812.997	28538
813.138	28561
813.279	28546
813.421	28512
813.562	28485
813.703	28253
813.845	28185
813.986	27892
814.127	27660
814.268	27580
814.41	27648
814.551	27466
814.692	27686
814.833	27542
814.974	27572
815.115	27542
815.256	27294
815.397	27389
815.539	27523
815.68	27310
815.821	27157
815.962	27329
816.103	27321
816.244	27195
816.385	27085
816.526	27001
816.666	26918
816.807	26819
816.948	26899
817.089	26872
817.23	26727
817.371	26629
817.512	26838
817.653	26724
817.793	26663
817.934	26857
818.075	26739
818.216	26708
818.356	26765
818.497	26689
818.638	26526
818.778	26453
818.919	26549
819.06	26450
819.2	26640
819.341	26659
819.481	26663
819.622	26910
819.762	27081
819.903	27070
820.043	27039
820.184	26956
820.324	26960
820.465	26971
820.605	26853
820.746	26781
820.886	26484
821.026	26769
821.167	26716
821.307	26815
821.447	26667
821.588	26598
821.728	26606
821.868	26317
822.008	26290
822.149	26271
822.289	26206
822.429	25970
822.569	25814
822.709	25738
822.849	25655
822.99	25723
823.13	25613
823.27	25460
823.41	25571
823.55	25350
823.69	25521
823.83	25529
823.97	25540
824.11	25354
824.25	25304
824.389	25213
824.529	25320
824.669	25304
824.809	25415
824.949	25304
825.089	25358
825.228	25350
825.368	25103
825.508	25179
825.648	25156
825.787	25133
825.927	25141
826.067	25190
826.206	25110
826.346	25000
826.485	25148
826.625	25187
826.765	25213
826.904	25190
827.044	24913
827.183	24897
827.323	24821
827.462	24863
827.601	24798
827.741	24688
827.88	24753
828.02	24627
828.159	24764
828.298	24715
828.437	24920
828.577	24764
828.716	24840
828.855	24768
828.994	24505
829.134	24589
829.273	24513
829.412	24464
829.551	24445
829.69	24494
829.829	24505
829.968	24464
830.107	24559
830.246	24502
830.385	24433
830.524	24483
830.663	24285
830.802	24060
830.941	24304
831.08	24072
831.219	24251
831.357	24228
831.496	24300
831.635	24136
831.774	24095
831.913	24148
832.051	23954
832.19	23855
832.329	23851
832.467	23691
832.606	23764
832.744	23805
832.883	23798
833.022	23817
833.16	23897
833.299	23950
833.437	23745
833.576	23790
833.714	23767
833.852	23824
833.991	23866
834.129	23923
834.267	23916
834.406	23756
834.544	23756
834.682	23794
834.821	23775
834.959	24007
835.097	23748
835.235	23805
835.373	23832
835.511	23836
835.65	23646
835.788	23699
835.926	23547
836.064	23482
836.202	23512
836.34	23714
836.478	23718
836.615	23516
836.753	23707
836.891	23802
837.029	23638
837.167	23585
837.305	23611
837.443	23585
837.58	23562
837.718	23619
837.856	23524
837.993	23387
838.131	23501
838.269	23383
838.406	23531
838.544	23368
838.681	23254
838.819	22999
838.956	22976
839.094	22812
839.231	23044
839.369	23174
839.506	23288
839.643	23220
839.781	22949
839.918	22904
840.055	22946
840.193	22736
840.33	22854
840.467	22831
840.604	22911
840.742	23029
840.879	22687
841.016	22782
841.153	22847
841.29	23056
841.427	22774
841.564	22923
841.701	22786
841.838	22752
841.975	22733
842.112	22778
842.249	22596
842.385	22459
842.522	22892
842.659	22618
842.796	22599
842.933	22626
843.069	22512
843.206	22550
843.343	22550
843.479	22527
843.616	22493
843.752	22314
843.889	22424
844.025	22557
844.162	22329
844.298	22459
844.435	22436
844.571	22234
844.708	22382
844.844	22462
844.98	22516
845.117	22405
845.253	22318
845.389	22272
845.525	22101
845.661	22238
845.798	22082
845.934	22162
846.07	22059
846.206	22055
846.342	22181
846.478	22067
846.614	21960
846.75	21751
846.886	21800
847.022	21842
847.158	21857
847.294	21865
847.429	21838
847.565	21918
847.701	22147
847.837	21576
847.972	21473
848.108	21663
848.244	21701
848.379	21542
848.515	21355
848.65	21496
848.786	21542
848.921	21374
849.057	21523
849.192	21443
849.328	21424
849.463	21317
849.598	21332
849.734	21329
849.869	21306
850.004	21169
850.14	21222
850.275	21184
850.41	21211
850.545	21112
850.68	21123
850.815	21340
850.95	21241
851.085	21321
851.22	21359
851.355	21188
851.49	21157
851.625	21169
851.76	21146
851.895	20979
852.03	20986
852.165	21112
852.299	21104
852.434	21184
852.569	21104
852.703	21127
852.838	21203
852.973	21256
853.107	21169
853.242	21150
853.376	20963
853.511	20853
853.645	20800
853.78	20982
853.914	20963
854.048	20921
854.183	20925
854.317	21043
854.451	21119
854.585	20929
854.72	20868
854.854	21005
854.988	20891
855.122	20895
855.256	20880
855.39	20861
855.524	21119
855.658	21043
855.792	20937
855.926	20887
856.06	20979
856.194	20986
856.327	20960
856.461	20891
856.595	20887
856.729	20876
856.862	21077
856.996	21009
857.13	21017
857.263	21070
857.397	21180
857.53	20906
857.664	21024
857.797	20937
857.931	21009
858.064	20914
858.197	20956
858.331	20941
858.464	20929
858.597	20689
858.731	20823
858.864	20845
858.997	20952
859.13	20887
859.263	20880
859.396	21036
859.529	20960
859.662	20861
859.795	20944
859.928	21036
860.061	20979
860.194	21119
860.327	21001
860.46	20929
860.592	20982
860.725	21131
860.858	20952
860.99	20986
861.123	20823
861.256	20933
861.388	20971
861.521	21641
861.653	20724
861.786	20845
861.918	20651
862.05	20750
862.183	20952
862.315	20925
862.447	21066
862.58	20929
862.712	20708
862.844	20526
862.976	20777
863.108	20727
863.24	21173
863.372	20678
863.504	20621
863.636	20724
863.768	20712
863.9	20693
864.032	20484
864.164	20659
864.296	20556
864.428	20617
864.559	20807
864.691	20667
864.823	20590
864.954	20629
865.086	20648
865.217	20541
865.349	20469
865.48	20549
865.612	20522
865.743	20575
865.875	20609
866.006	20594
866.137	20526
866.269	20503
866.4	20556
866.531	20545
866.662	20381
866.793	20412
866.924	20579
867.055	20571
867.186	20351
867.317	20473
867.448	20366
867.579	20385
867.71	20381
867.841	20320
867.972	20507
868.103	20423
868.233	20370
868.364	20476
868.495	20419
868.625	20804
868.756	20777
868.886	20629
869.017	20800
869.147	20861
869.278	20731
869.408	20815
869.539	20788
869.669	20724
869.799	20849
869.929	20830
870.06	20914
870.19	21116
870.32	21017
870.45	21043
870.58	21093
870.71	21173
870.84	21169
870.97	21074
871.1	21131
871.23	21397
871.36	21283
871.489	21291
871.619	21351
871.749	21351
871.879	21272
872.008	21412
872.138	21386
872.267	21237
872.397	21241
872.526	21199
872.656	21077
872.785	21169
872.915	21291
873.044	21386
873.173	21317
873.303	21416
873.432	21428
873.561	21313
873.69	21283
873.819	21397
873.948	21386
874.077	21367
874.206	21378
874.335	21237
874.464	21492
874.593	21538
874.722	21553
874.851	21595
874.979	21583
875.108	21622
875.237	21542
875.365	21477
875.494	21542
875.623	21485
875.751	21610
875.88	21477
876.008	21587
876.136	21682
876.265	21998
876.393	22036
876.521	21953
876.65	22109
876.778	21975
876.906	21804
877.034	21812
877.162	21880
877.29	21850
877.418	21937
877.546	21922
877.674	21884
877.802	21918
877.93	21941
878.058	21861
878.185	21778
878.313	21865
878.441	21804
878.568	21774
878.696	21861
878.824	21915
878.951	22086
879.079	21972
879.206	22173
879.333	22070
879.461	21983
879.588	22131
879.715	21987
879.842	22333
879.97	21972
880.097	21846
880.224	21747
880.351	21819
880.478	21736
880.605	21641
880.732	21724
880.859	21934
880.986	21717
881.112	21717
881.239	21557
881.366	21428
881.493	21340
881.619	21397
881.746	21435
881.872	21237
881.999	21310
882.125	21256
882.252	21355
882.378	21306
882.505	21507
882.631	21275
882.757	20994
882.883	21062
883.01	20994
883.136	21005
883.262	20845
883.388	20914
883.514	21017
883.64	21039
883.766	21051
883.892	20746
884.018	20861
884.143	20941
884.269	21036
884.395	20872
884.52	20686
884.646	20659
884.772	20640
884.897	20514
885.023	20697
885.148	20823
885.274	20819
885.399	20804
885.524	20731
885.65	20651
885.775	20701
885.9	20670
886.025	20823
886.15	20716
886.275	20705
886.4	20507
886.525	20708
886.65	20549
886.775	20594
886.9	20724
887.025	20807
887.149	20587
887.274	20469
887.399	20465
887.523	20495
887.648	20438
887.773	20473
887.897	20499
888.021	20514
888.146	20362
888.27	20442
888.395	20564
888.519	20484
888.643	20351
888.767	20492
888.891	20541
889.015	20240
889.139	20244
889.263	20259
889.387	20332
889.511	20423
889.635	20385
889.759	20187
889.883	20225
890.006	20214
890.13	20298
890.254	20206
890.377	20157
890.501	20020
890.624	19951
890.748	20077
890.871	19879
890.995	19761
891.118	19784
891.241	19883
891.364	19689
891.488	19887
891.611	19761
891.734	19681
891.857	19940
891.98	19841
892.103	19898
892.226	19814
892.349	19871
892.471	19666
892.594	19731
892.717	19909
892.839	19712
892.962	19727
893.085	19651
893.207	19765
893.33	19628
893.452	19693
893.575	19666
893.697	19681
893.819	19849
893.941	19940
894.064	19803
894.186	19616
894.308	19624
894.43	19693
894.552	19852
894.674	19864
894.796	19578
894.918	19723
895.04	19632
895.161	19750
895.283	19791
895.405	19635
895.526	19784
895.648	19689
895.769	19860
895.891	19830
896.012	19837
896.134	19772
896.255	19753
896.376	19605
896.498	19852
896.619	19841
896.74	19856
896.861	19830
896.982	20180
897.103	20164
897.224	20058
897.345	20001
897.466	19864
897.587	19993
897.708	20050
897.828	20043
897.949	19860
898.07	19864
898.19	19814
898.311	20096
898.431	19925
898.552	19932
898.672	20043
898.792	19970
898.913	19997
899.033	19788
899.153	19803
899.273	19502
899.393	19502
899.513	19772
899.633	19731
899.753	19757
899.873	19613
899.993	19712
900.113	19616
900.232	19731
900.352	19525
900.472	19529
900.591	19491
900.711	19582
900.83	19525
900.95	19559
901.069	19609
901.189	19346
901.308	19152
901.427	19126
901.546	19088
901.665	19057
901.784	19069
901.904	18920
902.023	18795
902.141	18597
902.26	18623
902.379	18661
902.498	18589
902.617	18574
902.735	18593
902.854	18555
902.973	18471
903.091	18258
903.21	18330
903.328	18285
903.446	18205
903.565	18110
903.683	18174
903.801	17824
903.919	18022
904.038	17901
904.156	17889
904.274	17950
904.392	17790
904.51	17889
904.627	17821
904.745	17832
904.863	17843
904.981	17604
905.098	17414
905.216	17459
905.334	17471
905.451	17532
905.569	17383
905.686	17551
905.803	17448
905.921	17303
906.038	17376
906.155	17379
906.272	17250
906.389	17193
906.506	17045
906.623	17048
906.74	16999
906.857	16980
906.974	16866
907.091	17029
907.208	17041
907.324	17025
907.441	16847
907.557	16828
907.674	16771
907.79	16710
907.907	16725
908.023	16729
908.139	16820
908.256	16603
908.372	16660
908.488	16653
908.604	16493
908.72	16584
908.836	16443
908.952	16546
909.068	16443
909.184	16523
909.3	16462
909.415	16405
909.531	16447
909.647	16215
909.762	16268
909.878	16139
909.993	16207
910.108	16188
910.224	16112
910.339	16116
910.454	15972
910.57	15907
910.685	15869
910.8	16280
910.915	16112
911.03	15934
911.145	15755
911.259	15808
911.374	15686
911.489	15835
911.604	15622
911.718	15564
911.833	15488
911.947	15386
912.062	15412
912.176	15439
912.291	15488
912.405	15545
912.519	15660
912.633	15663
912.748	15603
912.862	15382
912.976	15264
913.09	15184
913.204	15192
913.318	15401
913.431	15359
913.545	15439
913.659	15382
913.772	15340
913.886	15108
914	15135
914.113	15192
914.226	15184
914.34	15176
914.453	14948
914.566	15146
914.68	15001
914.793	14933
914.906	14807
915.019	14788
915.132	14731
915.245	14697
915.358	14765
915.47	14743
915.583	14781
915.696	14735
915.809	14804
915.921	14823
916.034	14731
916.146	14678
916.259	14670
916.371	14667
916.483	14693
916.595	14545
916.708	14434
916.82	14640
916.932	14503
917.044	14629
917.156	14575
917.268	14358
917.38	14434
917.491	14415
917.603	14454
917.715	14442
917.826	14541
917.938	14317
918.049	14320
918.161	14343
918.272	14476
918.384	14431
918.495	14259
918.606	14218
918.717	14111
918.828	14214
918.939	14244
919.05	14081
919.161	14058
919.272	13917
919.383	13940
919.494	14195
919.604	14385
919.715	14138
919.826	14054
919.936	14164
920.047	14244
920.157	14138
920.267	14347
920.378	14199
920.488	14107
920.598	14233
920.708	14366
920.818	14256
920.928	14214
921.038	14454
921.148	14415
921.258	14001
921.368	14062
921.477	13795
921.587	13852
921.697	13632
921.806	13890
921.916	13753
922.025	13624
922.134	13468
922.244	13533
922.353	13556
922.462	13358
922.571	13316
922.68	13160
922.789	13099
922.898	13339
923.007	13091
923.116	13213
923.224	13072
923.333	13152
923.442	12973
923.55	12973
923.659	12958
923.767	13046
923.876	12962
923.984	13015
924.092	12871
924.201	12943
924.309	12882
924.417	12890
924.525	12844
924.633	12840
924.741	13502
924.849	12662
924.956	12719
925.064	12662
925.172	12559
925.279	12608
925.387	12532
925.494	12494
925.602	12741
925.709	12608
925.816	12494
925.924	12555
926.031	12681
926.138	12570
926.245	12570
926.352	12483
926.459	12623
926.566	12642
926.673	12547
926.779	12388
926.886	12319
926.993	12201
927.099	12205
927.206	12129
927.312	12159
927.419	12254
927.525	12114
927.631	12216
927.737	12019
927.843	12015
927.95	11912
928.056	12019
928.162	11908
928.267	12038
928.373	12719
928.479	12098
928.585	11805
928.69	11920
928.796	11977
928.901	11748
929.007	11699
929.112	11961
929.218	11851
929.323	11729
929.428	11726
929.533	11836
929.638	11638
929.743	11638
929.848	11783
929.953	11646
930.058	11512
930.163	11395
930.267	11402
930.372	11558
930.477	11417
930.581	11623
930.685	11356
930.79	11341
930.894	11315
930.998	11246
931.103	11360
931.207	11018
931.311	10972
931.415	10873
931.519	10736
931.623	10630
