Data from test_V78500241_3440.txt Node
Date: Fri Mar 25 15:33:48 CST 2022
User: usil
Spectrometer: V785-0024
Trigger mode: 0
Integration Time (sec): 4.000000E-1
Scans to average: 1
Nonlinearity correction enabled: false
Boxcar width: 0
Storing dark spectrum: false
XAxis mode: Wavelengths
Number of Pixels in Spectrum: 1024
>>>>>Begin Spectral Data<<<<<
801.071	27241
801.214	27169
801.356	27070
801.499	26986
801.641	26769
801.783	26876
801.926	26906
802.068	26792
802.211	26655
802.353	26648
802.496	26431
802.638	26533
802.78	26400
802.923	26309
803.065	26343
803.208	26339
803.35	26427
803.492	26537
803.635	26594
803.777	26594
803.919	26705
804.061	26948
804.204	26644
804.346	26594
804.488	26511
804.63	26613
804.773	26644
804.915	26697
805.057	26746
805.199	26507
805.341	26602
805.483	26777
805.626	26720
805.768	26720
805.91	26796
806.052	26651
806.194	26667
806.336	26899
806.478	26632
806.62	26682
806.762	26758
806.904	26967
807.046	27207
807.188	27245
807.33	27135
807.472	27062
807.614	27085
807.756	27001
807.898	26956
808.04	26887
808.182	26933
808.324	26956
808.465	26940
808.607	27150
808.749	27340
808.891	27420
809.033	27492
809.174	27439
809.316	27279
809.458	27374
809.6	27222
809.741	27374
809.883	27447
810.025	27694
810.166	27580
810.308	27553
810.45	27553
810.591	27481
810.733	27218
810.875	27256
811.016	27256
811.158	27382
811.299	27473
811.441	27557
811.582	27614
811.724	27424
811.865	27260
812.007	27222
812.148	27370
812.29	27435
812.431	27412
812.573	27641
812.714	27766
812.855	27800
812.997	27907
813.138	28093
813.279	27876
813.421	27641
813.562	27785
813.703	27743
813.845	27450
813.986	27313
814.127	26994
814.268	26918
814.41	26994
814.551	26899
814.692	27058
814.833	26967
814.974	26811
815.115	26952
815.256	26918
815.397	26887
815.539	26929
815.68	26769
815.821	26678
815.962	26697
816.103	26663
816.244	26476
816.385	26526
816.526	26400
816.666	26336
816.807	26263
816.948	26240
817.089	26362
817.23	26240
817.371	26126
817.512	26195
817.653	26233
817.793	26191
817.934	26210
818.075	26240
818.216	26301
818.356	26164
818.497	26050
818.638	25925
818.778	26005
818.919	25940
819.06	25955
819.2	26084
819.341	26183
819.481	26195
819.622	26526
819.762	26545
819.903	26507
820.043	26381
820.184	26328
820.324	26343
820.465	26450
820.605	26427
820.746	26355
820.886	26252
821.026	26408
821.167	26256
821.307	26309
821.447	26191
821.588	26130
821.728	25997
821.868	25917
822.008	25670
822.149	25742
822.289	25769
822.429	25430
822.569	25343
822.709	25308
822.849	25312
822.99	25297
823.13	25152
823.27	25175
823.41	25107
823.55	24973
823.69	25103
823.83	24985
823.97	24916
824.11	24817
824.25	24692
824.389	24715
824.529	24817
824.669	24795
824.809	24905
824.949	24935
825.089	24947
825.228	24962
825.368	24620
825.508	24582
825.648	24722
825.787	24741
825.927	24703
826.067	24692
826.206	24665
826.346	24829
826.485	24837
826.625	24597
826.765	24817
826.904	24852
827.044	24585
827.183	24475
827.323	24509
827.462	24441
827.601	24357
827.741	24388
827.88	24414
828.02	24308
828.159	24494
828.298	24479
828.437	24486
828.577	24433
828.716	24338
828.855	24338
828.994	24125
829.134	24053
829.273	24125
829.412	24057
829.551	24277
829.69	24243
829.829	24110
829.968	24186
830.107	24277
830.246	24129
830.385	24041
830.524	24030
830.663	24018
830.802	23798
830.941	23745
831.08	23714
831.219	23748
831.357	23783
831.496	23954
831.635	23752
831.774	23710
831.913	23551
832.051	23573
832.19	23471
832.329	23497
832.467	23383
832.606	23307
832.744	23269
832.883	23372
833.022	23421
833.16	23440
833.299	23474
833.437	23558
833.576	23486
833.714	23414
833.852	23497
833.991	23512
834.129	23558
834.267	23608
834.406	23520
834.544	23520
834.682	23402
834.821	23592
834.959	23687
835.097	23528
835.235	23444
835.373	23493
835.511	23414
835.65	23360
835.788	23353
835.926	23010
836.064	23128
836.202	23208
836.34	23349
836.478	23391
836.615	23334
836.753	23311
836.891	23372
837.029	23330
837.167	23216
837.305	23254
837.443	23235
837.58	23094
837.718	23258
837.856	23345
837.993	23098
838.131	23349
838.269	23067
838.406	23166
838.544	23128
838.681	22915
838.819	22847
838.956	22672
839.094	22649
839.231	22725
839.369	22923
839.506	23067
839.643	22949
839.781	22653
839.918	22672
840.055	22637
840.193	22698
840.33	22645
840.467	22660
840.604	22512
840.742	22831
840.879	22519
841.016	22577
841.153	22577
841.29	22683
841.427	22569
841.564	22653
841.701	22656
841.838	22478
841.975	22478
842.112	22500
842.249	22656
842.385	22394
842.522	22584
842.659	22428
842.796	22314
842.933	22421
843.069	22181
843.206	22405
843.343	22440
843.479	22379
843.616	22348
843.752	22196
843.889	22120
844.025	22204
844.162	22124
844.298	22070
844.435	22093
844.571	22150
844.708	22120
844.844	22284
844.98	22249
845.117	22181
845.253	22082
845.389	21930
845.525	22040
845.661	21991
845.798	21994
845.934	21911
846.07	21842
846.206	21876
846.342	22044
846.478	21865
846.614	21762
846.75	21633
846.886	21534
847.022	21595
847.158	21644
847.294	21542
847.429	21633
847.565	21644
847.701	21842
847.837	21332
847.972	21389
848.108	21450
848.244	21370
848.379	21249
848.515	21252
848.65	21192
848.786	21291
848.921	21310
849.057	21355
849.192	21370
849.328	21222
849.463	21233
849.598	21154
849.734	21055
849.869	21028
850.004	20906
850.14	20982
850.275	20975
850.41	20849
850.545	20960
850.68	21017
850.815	21028
850.95	20876
851.085	21192
851.22	21047
851.355	20971
851.49	20921
851.625	20937
851.76	20986
851.895	20880
852.03	20880
852.165	20990
852.299	21013
852.434	21119
852.569	20937
852.703	20853
852.838	21032
852.973	21135
853.107	20952
853.242	20982
853.376	20720
853.511	20644
853.645	20765
853.78	20914
853.914	20773
854.048	20716
854.183	20765
854.317	20921
854.451	20979
854.585	20754
854.72	20773
854.854	20880
854.988	20724
855.122	20739
855.256	20617
855.39	20792
855.524	20807
855.658	20785
855.792	20842
855.926	20887
856.06	20807
856.194	20804
856.327	20720
856.461	20575
856.595	20731
856.729	20902
856.862	20857
856.996	20906
857.13	20876
857.263	20883
857.397	20921
857.53	20727
857.664	20941
857.797	20864
857.931	20887
858.064	20815
858.197	20967
858.331	20765
858.464	20678
858.597	20754
858.731	20792
858.864	20655
858.997	20857
859.13	20899
859.263	20868
859.396	20849
859.529	20750
859.662	20629
859.795	20773
859.928	20819
860.061	20857
860.194	20979
860.327	20895
860.46	20819
860.592	20800
860.725	20994
860.858	20872
860.99	20872
861.123	20731
861.256	20807
861.388	20864
861.521	21458
861.653	20750
861.786	20571
861.918	20640
862.05	20724
862.183	20640
862.315	20689
862.447	20762
862.58	20682
862.712	20613
862.844	20545
862.976	20670
863.108	20583
863.24	20952
863.372	20526
863.504	20568
863.636	20537
863.768	20564
863.9	20469
864.032	20446
864.164	20385
864.296	20629
864.428	20678
864.559	20587
864.691	20575
864.823	20499
864.954	20518
865.086	20431
865.217	20480
865.349	20355
865.48	20404
865.612	20374
865.743	20530
865.875	20537
866.006	20393
866.137	20537
866.269	20370
866.4	20370
866.531	20370
866.662	20362
866.793	20332
866.924	20275
867.055	20366
867.186	20457
867.317	20317
867.448	20195
867.579	20259
867.71	20244
867.841	20275
867.972	20484
868.103	20404
868.233	20377
868.364	20362
868.495	20431
868.625	20579
868.756	20754
868.886	20473
869.017	20568
869.147	20697
869.278	20834
869.408	20720
869.539	20442
869.669	20689
869.799	20655
869.929	20720
870.06	20876
870.19	20849
870.32	20864
870.45	20956
870.58	20963
870.71	21268
870.84	21150
870.97	21096
871.1	21036
871.23	21150
871.36	21245
871.489	21138
871.619	21176
871.749	21176
871.879	21264
872.008	21325
872.138	21260
872.267	21291
872.397	21100
872.526	21055
872.656	21005
872.785	20979
872.915	21211
873.044	21260
873.173	21192
873.303	21249
873.432	21325
873.561	21279
873.69	21180
873.819	21154
873.948	21306
874.077	21264
874.206	21218
874.335	21195
874.464	21321
874.593	21557
874.722	21340
874.851	21591
874.979	21526
875.108	21545
875.237	21587
875.365	21351
875.494	21435
875.623	21424
875.751	21534
875.88	21443
876.008	21545
876.136	21648
876.265	21888
876.393	22078
876.521	21888
876.65	21918
876.778	21915
876.906	21857
877.034	21800
877.162	21804
877.29	21785
877.418	21899
877.546	21793
877.674	21937
877.802	21835
877.93	21903
878.058	21800
878.185	21629
878.313	21812
878.441	21785
878.568	21618
878.696	21850
878.824	21953
878.951	21930
879.079	22059
879.206	22147
879.333	21911
879.461	21876
879.588	21934
879.715	22029
879.842	22063
879.97	21972
880.097	21648
880.224	21641
880.351	21671
880.478	21717
880.605	21606
880.732	21660
880.859	21873
880.986	21679
881.112	21610
881.239	21500
881.366	21424
881.493	21348
881.619	21184
881.746	21256
881.872	21230
881.999	21195
882.125	21051
882.252	21199
882.378	21241
882.505	21367
882.631	21096
882.757	20982
882.883	21062
883.01	20948
883.136	21009
883.262	20819
883.388	20868
883.514	20921
883.64	20914
883.766	20899
883.892	20727
884.018	20800
884.143	20887
884.269	21043
884.395	20613
884.52	20587
884.646	20648
884.772	20571
884.897	20469
885.023	20587
885.148	20613
885.274	20701
885.399	20735
885.524	20564
885.65	20564
885.775	20590
885.9	20549
886.025	20583
886.15	20762
886.275	20492
886.4	20537
886.525	20606
886.65	20507
886.775	20454
886.9	20655
887.025	20743
887.149	20533
887.274	20328
887.399	20275
887.523	20370
887.648	20168
887.773	20168
887.897	20450
888.021	20480
888.146	20343
888.27	20404
888.395	20366
888.519	20396
888.643	20461
888.767	20339
888.891	20195
889.015	20168
889.139	20278
889.263	20054
889.387	20202
889.511	20343
889.635	20229
889.759	20107
889.883	20199
890.006	20256
890.13	20313
890.254	20062
890.377	20046
890.501	19849
890.624	19906
890.748	19932
890.871	19791
890.995	19776
891.118	19700
891.241	19750
891.364	19674
891.488	19864
891.611	19727
891.734	19674
891.857	19826
891.98	19715
892.103	19788
892.226	19841
892.349	19723
892.471	19578
892.594	19571
892.717	19620
892.839	19666
892.962	19715
893.085	19715
893.207	19571
893.33	19552
893.452	19563
893.575	19833
893.697	19518
893.819	19647
893.941	19822
894.064	19769
894.186	19651
894.308	19643
894.43	19681
894.552	19871
894.674	19658
894.796	19639
894.918	19765
895.04	19590
895.161	19791
895.283	19761
895.405	19590
895.526	19639
895.648	19731
895.769	19696
895.891	19784
896.012	19776
896.134	19723
896.255	19643
896.376	19609
896.498	19719
896.619	19738
896.74	19586
896.861	19715
896.982	19936
897.103	20206
897.224	20027
897.345	19887
897.466	19791
897.587	19803
897.708	19936
897.828	19932
897.949	19890
898.07	19761
898.19	19788
898.311	19989
898.431	19803
898.552	19856
898.672	20035
898.792	20016
898.913	19826
899.033	19746
899.153	19704
899.273	19624
899.393	19571
899.513	19658
899.633	19601
899.753	19757
899.873	19529
899.993	19662
900.113	19620
900.232	19613
900.352	19476
900.472	19441
900.591	19369
900.711	19400
900.83	19419
900.95	19521
901.069	19537
901.189	19426
901.308	19107
901.427	18993
901.546	19000
901.665	19057
901.784	19061
901.904	18837
902.023	18779
902.141	18585
902.26	18479
902.379	18521
902.498	18490
902.617	18551
902.735	18661
902.854	18479
902.973	18448
903.091	18205
903.21	18190
903.328	18197
903.446	18251
903.565	18038
903.683	18049
903.801	17897
903.919	18041
904.038	18003
904.156	17847
904.274	17813
904.392	17809
904.51	17790
904.627	17866
904.745	17802
904.863	17885
904.981	17589
905.098	17425
905.216	17558
905.334	17493
905.451	17414
905.569	17406
905.686	17516
905.803	17493
905.921	17307
906.038	17345
906.155	17246
906.272	17136
906.389	17128
906.506	17109
906.623	17045
906.74	17006
906.857	16976
906.974	16850
907.091	17037
907.208	17098
907.324	17003
907.441	16896
907.557	16797
907.674	16641
907.79	16668
907.907	16683
908.023	16733
908.139	16713
908.256	16710
908.372	16592
908.488	16603
908.604	16481
908.72	16398
908.836	16428
908.952	16394
909.068	16360
909.184	16599
909.3	16413
909.415	16500
909.531	16402
909.647	16211
909.762	16158
909.878	16082
909.993	16078
910.108	16116
910.224	16131
910.339	16131
910.454	16044
910.57	15903
910.685	15846
910.8	16234
910.915	16082
911.03	15975
911.145	15823
911.259	15698
911.374	15717
911.489	15781
911.604	15576
911.718	15481
911.833	15564
911.947	15450
912.062	15389
912.176	15519
912.291	15477
912.405	15454
912.519	15778
912.633	15656
912.748	15511
912.862	15466
912.976	15393
913.09	15222
913.204	15294
913.318	15355
913.431	15473
913.545	15507
913.659	15359
913.772	15230
913.886	15116
914	15062
914.113	15176
914.226	15275
914.34	15150
914.453	15055
914.566	15138
914.68	14963
914.793	15089
914.906	14891
915.019	14815
915.132	14769
915.245	14705
915.358	14743
915.47	14739
915.583	14804
915.696	14830
915.809	14815
915.921	14918
916.034	14708
916.146	14712
916.259	14670
916.371	14800
916.483	14632
916.595	14587
916.708	14564
916.82	14587
916.932	14473
917.044	14598
917.156	14469
917.268	14385
917.38	14476
917.491	14404
917.603	14381
917.715	14545
917.826	14438
917.938	14347
918.049	14278
918.161	14347
918.272	14450
918.384	14530
918.495	14438
918.606	14305
918.717	14202
918.828	14202
918.939	14233
919.05	14119
919.161	14168
919.272	14020
919.383	14016
919.494	14149
919.604	14351
919.715	14191
919.826	14142
919.936	14027
920.047	14157
920.157	14176
920.267	14267
920.378	14168
920.488	14119
920.598	14309
920.708	14400
920.818	14183
920.928	14294
921.038	14408
921.148	14396
921.258	14191
921.368	14050
921.477	13947
921.587	13845
921.697	13822
921.806	13902
921.916	13696
922.025	13670
922.134	13521
922.244	13529
922.353	13563
922.462	13487
922.571	13358
922.68	13206
922.789	13175
922.898	13228
923.007	13057
923.116	13270
923.224	13141
923.333	13129
923.442	13019
923.55	12909
923.659	13034
923.767	13088
923.876	12985
923.984	13050
924.092	12913
924.201	12970
924.309	13008
924.417	12886
924.525	12878
924.633	12958
924.741	13746
924.849	12669
924.956	12844
925.064	12604
925.172	12513
925.279	12627
925.387	12696
925.494	12658
925.602	12684
925.709	12669
925.816	12509
925.924	12536
926.031	12616
926.138	12574
926.245	12578
926.352	12471
926.459	12677
926.566	12551
926.673	12525
926.779	12418
926.886	12300
926.993	12254
927.099	12266
927.206	12098
927.312	12178
927.419	12308
927.525	12216
927.631	12209
927.737	12251
927.843	12106
927.95	11977
928.056	12030
928.162	12140
928.267	12083
928.373	12559
928.479	12102
928.585	11836
928.69	11984
928.796	12041
928.901	11859
929.007	11688
929.112	11984
929.218	11843
929.323	11885
929.428	11828
929.533	11828
929.638	11680
929.743	11718
929.848	11737
929.953	11783
930.058	11604
930.163	11452
930.267	11417
930.372	11589
930.477	11425
930.581	11627
930.685	11474
930.79	11448
930.894	11376
930.998	11299
931.103	11509
931.207	11124
931.311	11056
931.415	10980
931.519	10706
931.623	10717
