Data from test_V78500241_3089.txt Node
Date: Fri Mar 25 15:31:22 CST 2022
User: usil
Spectrometer: V785-0024
Trigger mode: 0
Integration Time (sec): 4.000000E-1
Scans to average: 1
Nonlinearity correction enabled: false
Boxcar width: 0
Storing dark spectrum: false
XAxis mode: Wavelengths
Number of Pixels in Spectrum: 1024
>>>>>Begin Spectral Data<<<<<
801.071	27351
801.214	27291
801.356	26963
801.499	26994
801.641	26876
801.783	26849
801.926	26872
802.068	26819
802.211	26663
802.353	26746
802.496	26602
802.638	26674
802.78	26522
802.923	26385
803.065	26328
803.208	26499
803.35	26518
803.492	26731
803.635	26674
803.777	26587
803.919	26701
804.061	26960
804.204	26800
804.346	26617
804.488	26453
804.63	26552
804.773	26442
804.915	26674
805.057	26792
805.199	26648
805.341	26800
805.483	26773
805.626	26876
805.768	26731
805.91	26689
806.052	26864
806.194	26606
806.336	26883
806.478	26693
806.62	26754
806.762	26990
806.904	27100
807.046	27226
807.188	27245
807.33	27230
807.472	27146
807.614	27032
807.756	27138
807.898	26971
808.04	26979
808.182	27173
808.324	26937
808.465	27024
808.607	27275
808.749	27317
808.891	27355
809.033	27572
809.174	27485
809.316	27195
809.458	27393
809.6	27370
809.741	27374
809.883	27363
810.025	27652
810.166	27861
810.308	27568
810.45	27709
810.591	27481
810.733	27370
810.875	27355
811.016	27241
811.158	27325
811.299	27469
811.441	27603
811.582	27519
811.724	27340
811.865	27268
812.007	27348
812.148	27233
812.29	27431
812.431	27481
812.573	27701
812.714	27663
812.855	27751
812.997	27914
813.138	28078
813.279	27979
813.421	27903
813.562	27793
813.703	27682
813.845	27637
813.986	27199
814.127	27176
814.268	26960
814.41	27089
814.551	26933
814.692	27043
814.833	26872
814.974	26956
815.115	27036
815.256	26853
815.397	26944
815.539	26872
815.68	26842
815.821	26670
815.962	26716
816.103	26724
816.244	26602
816.385	26606
816.526	26549
816.666	26377
816.807	26294
816.948	26374
817.089	26275
817.23	26339
817.371	26199
817.512	26252
817.653	26290
817.793	26142
817.934	26385
818.075	26298
818.216	26419
818.356	26050
818.497	26069
818.638	25936
818.778	25928
818.919	25917
819.06	26058
819.2	26119
819.341	26282
819.481	26290
819.622	26438
819.762	26632
819.903	26518
820.043	26507
820.184	26419
820.324	26339
820.465	26301
820.605	26355
820.746	26248
820.886	26142
821.026	26419
821.167	26275
821.307	26408
821.447	26176
821.588	26168
821.728	26111
821.868	25871
822.008	25719
822.149	25696
822.289	25590
822.429	25430
822.569	25327
822.709	25285
822.849	25282
822.99	25213
823.13	25175
823.27	25133
823.41	25031
823.55	24909
823.69	25072
823.83	25038
823.97	25061
824.11	24844
824.25	24734
824.389	24863
824.529	24829
824.669	24882
824.809	24920
824.949	25061
825.089	24954
825.228	25050
825.368	24692
825.508	24722
825.648	24661
825.787	24707
825.927	24798
826.067	24760
826.206	24715
826.346	24817
826.485	24821
826.625	24768
826.765	24806
826.904	24711
827.044	24505
827.183	24544
827.323	24578
827.462	24593
827.601	24426
827.741	24266
827.88	24467
828.02	24342
828.159	24414
828.298	24441
828.437	24494
828.577	24418
828.716	24566
828.855	24315
828.994	24095
829.134	24182
829.273	24182
829.412	24163
829.551	24087
829.69	24144
829.829	24254
829.968	24247
830.107	24091
830.246	24049
830.385	24106
830.524	24041
830.663	23836
830.802	23904
830.941	23714
831.08	23703
831.219	23965
831.357	23756
831.496	23893
831.635	23802
831.774	23714
831.913	23611
832.051	23505
832.19	23512
832.329	23501
832.467	23398
832.606	23402
832.744	23368
832.883	23467
833.022	23391
833.16	23421
833.299	23452
833.437	23406
833.576	23414
833.714	23653
833.852	23516
833.991	23551
834.129	23585
834.267	23425
834.406	23452
834.544	23528
834.682	23520
834.821	23501
834.959	23661
835.097	23417
835.235	23581
835.373	23448
835.511	23547
835.65	23307
835.788	23364
835.926	23193
836.064	23014
836.202	23212
836.34	23307
836.478	23284
836.615	23330
836.753	23242
836.891	23497
837.029	23326
837.167	23189
837.305	23044
837.443	23193
837.58	23258
837.718	23311
837.856	23212
837.993	23044
838.131	23208
838.269	23037
838.406	23010
838.544	22904
838.681	22892
838.819	22812
838.956	22683
839.094	22577
839.231	22778
839.369	22847
839.506	23014
839.643	22824
839.781	22599
839.918	22557
840.055	22546
840.193	22580
840.33	22554
840.467	22607
840.604	22694
840.742	22843
840.879	22466
841.016	22489
841.153	22508
841.29	22550
841.427	22542
841.564	22763
841.701	22577
841.838	22599
841.975	22462
842.112	22474
842.249	22413
842.385	22428
842.522	22573
842.659	22413
842.796	22333
842.933	22333
843.069	22284
843.206	22299
843.343	22333
843.479	22272
843.616	22295
843.752	22124
843.889	22063
844.025	22287
844.162	22196
844.298	22341
844.435	22010
844.571	22059
844.708	22078
844.844	22238
844.98	22219
845.117	22253
845.253	22105
845.389	21945
845.525	21854
845.661	22010
845.798	21774
845.934	21850
846.07	21751
846.206	21732
846.342	21922
846.478	21804
846.614	21732
846.75	21492
846.886	21580
847.022	21720
847.158	21614
847.294	21591
847.429	21580
847.565	21504
847.701	21793
847.837	21332
847.972	21252
848.108	21408
848.244	21260
848.379	21291
848.515	21119
848.65	21154
848.786	21093
848.921	21218
849.057	21291
849.192	21272
849.328	21279
849.463	21180
849.598	21180
849.734	21131
849.869	21028
850.004	20956
850.14	21131
850.275	20887
850.41	20899
850.545	20868
850.68	21005
850.815	20956
850.95	20937
851.085	21245
851.22	20963
851.355	20902
851.49	20815
851.625	20842
851.76	20864
851.895	20819
852.03	20853
852.165	20853
852.299	20998
852.434	20941
852.569	21013
852.703	20914
852.838	20975
852.973	21024
853.107	21157
853.242	20864
853.376	20762
853.511	20727
853.645	20861
853.78	20925
853.914	20724
854.048	20655
854.183	20724
854.317	20857
854.451	20872
854.585	20804
854.72	20796
854.854	20967
854.988	20686
855.122	20716
855.256	20648
855.39	20743
855.524	20838
855.658	20758
855.792	20720
855.926	20857
856.06	20788
856.194	20849
856.327	20663
856.461	20670
856.595	20750
856.729	20758
856.862	20891
856.996	20769
857.13	20830
857.263	20921
857.397	20758
857.53	20720
857.664	20773
857.797	20750
857.931	20819
858.064	20712
858.197	20807
858.331	20773
858.464	20720
858.597	20663
858.731	20705
858.864	20765
858.997	20788
859.13	20746
859.263	20716
859.396	20880
859.529	20899
859.662	20655
859.795	20773
859.928	20773
860.061	20853
860.194	21024
860.327	20800
860.46	20830
860.592	20781
860.725	20952
860.858	20975
860.99	20815
861.123	20693
861.256	20788
861.388	20872
861.521	21367
861.653	20571
861.786	20522
861.918	20549
862.05	20632
862.183	20602
862.315	20701
862.447	20720
862.58	20689
862.712	20396
862.844	20488
862.976	20651
863.108	20442
863.24	20781
863.372	20393
863.504	20545
863.636	20556
863.768	20484
863.9	20488
864.032	20385
864.164	20495
864.296	20366
864.428	20537
864.559	20590
864.691	20549
864.823	20377
864.954	20552
865.086	20465
865.217	20412
865.349	20415
865.48	20377
865.612	20267
865.743	20427
865.875	20461
866.006	20229
866.137	20377
866.269	20446
866.4	20461
866.531	20305
866.662	20252
866.793	20298
866.924	20389
867.055	20343
867.186	20412
867.317	20343
867.448	20218
867.579	20347
867.71	20298
867.841	20187
867.972	20343
868.103	20267
868.233	20309
868.364	20248
868.495	20590
868.625	20564
868.756	20602
868.886	20598
869.017	20552
869.147	20613
869.278	20648
869.408	20606
869.539	20499
869.669	20518
869.799	20701
869.929	20773
870.06	20655
870.19	20883
870.32	20861
870.45	20819
870.58	21055
870.71	21066
870.84	21104
870.97	20941
871.1	20956
871.23	21222
871.36	21100
871.489	21108
871.619	21154
871.749	21138
871.879	21157
872.008	21344
872.138	21310
872.267	21230
872.397	21001
872.526	21036
872.656	20868
872.785	20952
872.915	21195
873.044	21245
873.173	21100
873.303	21226
873.432	21203
873.561	21268
873.69	21154
873.819	21173
873.948	21237
874.077	21135
874.206	21203
874.335	21150
874.464	21302
874.593	21428
874.722	21332
874.851	21454
874.979	21507
875.108	21504
875.237	21340
875.365	21370
875.494	21428
875.623	21519
875.751	21492
875.88	21519
876.008	21648
876.136	21770
876.265	21797
876.393	22048
876.521	21888
876.65	22010
876.778	21998
876.906	21873
877.034	21724
877.162	21793
877.29	21682
877.418	21823
877.546	21930
877.674	21869
877.802	21873
877.93	21766
878.058	21884
878.185	21675
878.313	21717
878.441	21705
878.568	21557
878.696	21694
878.824	21766
878.951	21850
879.079	21972
879.206	22048
879.333	21850
879.461	21808
879.588	21854
879.715	22029
879.842	22169
879.97	21895
880.097	21595
880.224	21523
880.351	21732
880.478	21637
880.605	21542
880.732	21682
880.859	21816
880.986	21549
881.112	21644
881.239	21477
881.366	21431
881.493	21241
881.619	21142
881.746	21165
881.872	21188
881.999	21226
882.125	21077
882.252	21173
882.378	21260
882.505	21161
882.631	20986
882.757	20849
882.883	21017
883.01	20895
883.136	20773
883.262	20708
883.388	20750
883.514	20853
883.64	21009
883.766	20727
883.892	20560
884.018	20727
884.143	20891
884.269	20941
884.395	20549
884.52	20571
884.646	20556
884.772	20484
884.897	20473
885.023	20648
885.148	20636
885.274	20701
885.399	20727
885.524	20560
885.65	20514
885.775	20697
885.9	20583
886.025	20632
886.15	20659
886.275	20545
886.4	20511
886.525	20415
886.65	20431
886.775	20503
886.9	20697
887.025	20739
887.149	20484
887.274	20503
887.399	20286
887.523	20267
887.648	20339
887.773	20126
887.897	20431
888.021	20404
888.146	20252
888.27	20298
888.395	20499
888.519	20351
888.643	20282
888.767	20336
888.891	20111
889.015	20191
889.139	20126
889.263	20092
889.387	20256
889.511	20332
889.635	20206
889.759	19993
889.883	20084
890.006	20142
890.13	20206
890.254	20107
890.377	20054
890.501	19921
890.624	19917
890.748	19936
890.871	19715
890.995	19719
891.118	19704
891.241	19643
891.364	19616
891.488	19738
891.611	19639
891.734	19628
891.857	19776
891.98	19696
892.103	19776
892.226	19677
892.349	19689
892.471	19457
892.594	19567
892.717	19647
892.839	19556
892.962	19605
893.085	19666
893.207	19533
893.33	19597
893.452	19480
893.575	19635
893.697	19597
893.819	19689
893.941	19803
894.064	19700
894.186	19594
894.308	19605
894.43	19772
894.552	19689
894.674	19696
894.796	19575
894.918	19601
895.04	19582
895.161	19628
895.283	19666
895.405	19472
895.526	19632
895.648	19632
895.769	19670
895.891	19723
896.012	19727
896.134	19727
896.255	19635
896.376	19548
896.498	19575
896.619	19662
896.74	19491
896.861	19620
896.982	19947
897.103	20134
897.224	19898
897.345	19811
897.466	19780
897.587	19837
897.708	19921
897.828	19944
897.949	19883
898.07	19750
898.19	19909
898.311	19955
898.431	19750
898.552	19845
898.672	19883
898.792	19887
898.913	19917
899.033	19693
899.153	19708
899.273	19628
899.393	19487
899.513	19674
899.633	19605
899.753	19582
899.873	19575
899.993	19578
900.113	19483
900.232	19613
900.352	19533
900.472	19362
900.591	19354
900.711	19483
900.83	19350
900.95	19453
901.069	19415
901.189	19266
901.308	19088
901.427	19019
901.546	18981
901.665	18939
901.784	19031
901.904	18852
902.023	18719
902.141	18593
902.26	18570
902.379	18540
902.498	18410
902.617	18479
902.735	18623
902.854	18521
902.973	18521
903.091	18163
903.21	18136
903.328	18110
903.446	18091
903.565	17935
903.683	17920
903.801	17863
903.919	17927
904.038	17923
904.156	17786
904.274	17760
904.392	17798
904.51	17661
904.627	17722
904.745	17726
904.863	17707
904.981	17646
905.098	17585
905.216	17364
905.334	17444
905.451	17455
905.569	17395
905.686	17406
905.803	17459
905.921	17311
906.038	17261
906.155	17242
906.272	17052
906.389	17086
906.506	16995
906.623	16957
906.74	16862
906.857	16805
906.974	16805
907.091	16987
907.208	17086
907.324	16927
907.441	16984
907.557	16672
907.674	16816
907.79	16615
907.907	16626
908.023	16721
908.139	16603
908.256	16683
908.372	16565
908.488	16554
908.604	16443
908.72	16242
908.836	16500
908.952	16322
909.068	16409
909.184	16535
909.3	16379
909.415	16432
909.531	16356
909.647	16082
909.762	16166
909.878	16059
909.993	16196
910.108	16109
910.224	16074
910.339	16032
910.454	15979
910.57	15953
910.685	15934
910.8	16154
910.915	15991
911.03	15926
911.145	15770
911.259	15717
911.374	15724
911.489	15679
911.604	15663
911.718	15481
911.833	15561
911.947	15393
912.062	15401
912.176	15564
912.291	15549
912.405	15481
912.519	15641
912.633	15660
912.748	15511
912.862	15370
912.976	15279
913.09	15203
913.204	15264
913.318	15272
913.431	15374
913.545	15378
913.659	15393
913.772	15211
913.886	15036
914	15108
914.113	15150
914.226	15203
914.34	15188
914.453	14944
914.566	15188
914.68	15081
914.793	14941
914.906	14815
915.019	14796
915.132	14625
915.245	14712
915.358	14792
915.47	14689
915.583	14689
915.696	14678
915.809	14708
915.921	14773
916.034	14674
916.146	14705
916.259	14545
916.371	14648
916.483	14610
916.595	14564
916.708	14518
916.82	14545
916.932	14530
917.044	14457
917.156	14469
917.268	14343
917.38	14404
917.491	14259
917.603	14362
917.715	14446
917.826	14492
917.938	14309
918.049	14172
918.161	14370
918.272	14434
918.384	14408
918.495	14237
918.606	14161
918.717	14126
918.828	14229
918.939	14157
919.05	14107
919.161	14100
919.272	13936
919.383	13989
919.494	14107
919.604	14275
919.715	14115
919.826	14119
919.936	14050
920.047	14183
920.157	14081
920.267	14366
920.378	14138
920.488	14043
920.598	14305
920.708	14473
920.818	14286
920.928	14187
921.038	14332
921.148	14434
921.258	14157
921.368	13982
921.477	13902
921.587	13871
921.697	13780
921.806	13921
921.916	13803
922.025	13544
922.134	13506
922.244	13480
922.353	13567
922.462	13438
922.571	13400
922.68	13198
922.789	13152
922.898	13156
923.007	13179
923.116	13187
923.224	13129
923.333	13034
923.442	13122
923.55	12928
923.659	12989
923.767	13099
923.876	12954
923.984	12970
924.092	12867
924.201	13057
924.309	12894
924.417	12852
924.525	12825
924.633	12909
924.741	13715
924.849	12662
924.956	12814
925.064	12593
925.172	12566
925.279	12601
925.387	12585
925.494	12601
925.602	12749
925.709	12612
925.816	12544
925.924	12578
926.031	12642
926.138	12532
926.245	12578
926.352	12372
926.459	12642
926.566	12597
926.673	12498
926.779	12311
926.886	12410
926.993	12220
927.099	12182
927.206	12228
927.312	12098
927.419	12167
927.525	12129
927.631	12178
927.737	12079
927.843	12072
927.95	11969
928.056	11996
928.162	12034
928.267	12034
928.373	12715
928.479	12049
928.585	11771
928.69	11973
928.796	12003
928.901	11889
929.007	11714
929.112	11908
929.218	11866
929.323	11726
929.428	11741
929.533	11851
929.638	11699
929.743	11676
929.848	11809
929.953	11657
930.058	11524
930.163	11345
930.267	11455
930.372	11524
930.477	11376
930.581	11638
930.685	11512
930.79	11273
930.894	11353
930.998	11277
931.103	11490
931.207	11045
931.311	10965
931.415	10927
931.519	10858
931.623	10744
