Data from test_V78500241_2455.txt Node
Date: Fri Mar 25 15:26:57 CST 2022
User: usil
Spectrometer: V785-0024
Trigger mode: 0
Integration Time (sec): 4.000000E-1
Scans to average: 1
Nonlinearity correction enabled: false
Boxcar width: 0
Storing dark spectrum: false
XAxis mode: Wavelengths
Number of Pixels in Spectrum: 1024
>>>>>Begin Spectral Data<<<<<
801.071	26971
801.214	26925
801.356	26663
801.499	26545
801.641	26545
801.783	26625
801.926	26549
802.068	26469
802.211	26393
802.353	26457
802.496	26176
802.638	25982
802.78	26142
802.923	26046
803.065	26027
803.208	26081
803.35	26202
803.492	26221
803.635	26267
803.777	26221
803.919	26240
804.061	26602
804.204	26355
804.346	26298
804.488	26149
804.63	26206
804.773	26168
804.915	26225
805.057	26377
805.199	26225
805.341	26309
805.483	26457
805.626	26324
805.768	26301
805.91	26393
806.052	26362
806.194	26328
806.336	26446
806.478	26320
806.62	26396
806.762	26438
806.904	26560
807.046	26785
807.188	26929
807.33	26781
807.472	26921
807.614	26811
807.756	26750
807.898	26686
808.04	26571
808.182	26453
808.324	26648
808.465	26708
808.607	26811
808.749	27017
808.891	27001
809.033	27180
809.174	27081
809.316	27024
809.458	26918
809.6	26929
809.741	27005
809.883	27047
810.025	27203
810.166	27203
810.308	27226
810.45	27017
810.591	27142
810.733	26990
810.875	26918
811.016	26811
811.158	26842
811.299	26929
811.441	26872
811.582	26948
811.724	26910
811.865	26929
812.007	26800
812.148	26834
812.29	26937
812.431	27108
812.573	27241
812.714	27363
812.855	27523
812.997	27526
813.138	27614
813.279	27572
813.421	27408
813.562	27359
813.703	27154
813.845	27127
813.986	26777
814.127	26659
814.268	26659
814.41	26640
814.551	26564
814.692	26739
814.833	26488
814.974	26648
815.115	26663
815.256	26374
815.397	26457
815.539	26579
815.68	26271
815.821	26370
815.962	26442
816.103	26396
816.244	26202
816.385	26149
816.526	26206
816.666	25974
816.807	25940
816.948	25780
817.089	25944
817.23	25791
817.371	25925
817.512	25928
817.653	25738
817.793	25814
817.934	25841
818.075	25879
818.216	25791
818.356	25765
818.497	25712
818.638	25597
818.778	25559
818.919	25552
819.06	25712
819.2	25643
819.341	25750
819.481	25811
819.622	25902
819.762	26115
819.903	26069
820.043	26005
820.184	25989
820.324	25966
820.465	26035
820.605	25909
820.746	25868
820.886	25769
821.026	25951
821.167	25833
821.307	25860
821.447	25845
821.588	25704
821.728	25605
821.868	25460
822.008	25297
822.149	25164
822.289	25259
822.429	25103
822.569	24886
822.709	25046
822.849	24814
822.99	24749
823.13	24795
823.27	24814
823.41	24658
823.55	24544
823.69	24585
823.83	24658
823.97	24540
824.11	24505
824.25	24395
824.389	24498
824.529	24429
824.669	24403
824.809	24570
824.949	24585
825.089	24525
825.228	24536
825.368	24239
825.508	24399
825.648	24292
825.787	24273
825.927	24315
826.067	24262
826.206	24334
826.346	24441
826.485	24532
826.625	24258
826.765	24388
826.904	24292
827.044	24003
827.183	24053
827.323	24022
827.462	24167
827.601	24076
827.741	23927
827.88	24026
828.02	23878
828.159	24034
828.298	24022
828.437	24049
828.577	24049
828.716	23950
828.855	23965
828.994	23646
829.134	23710
829.273	23752
829.412	23653
829.551	23687
829.69	23714
829.829	23760
829.968	23794
830.107	23741
830.246	23878
830.385	23676
830.524	23512
830.663	23486
830.802	23505
830.941	23471
831.08	23444
831.219	23345
831.357	23417
831.496	23486
831.635	23402
831.774	23223
831.913	23166
832.051	23231
832.19	23261
832.329	23014
832.467	23048
832.606	22934
832.744	22873
832.883	22953
833.022	23018
833.16	22927
833.299	22968
833.437	23132
833.576	22961
833.714	23056
833.852	23208
833.991	23200
834.129	23216
834.267	23071
834.406	23121
834.544	23181
834.682	23155
834.821	23071
834.959	23311
835.097	23098
835.235	23181
835.373	23033
835.511	23014
835.65	22984
835.788	22961
835.926	22752
836.064	22816
836.202	22835
836.34	22915
836.478	23052
836.615	22957
836.753	22759
836.891	22908
837.029	22984
837.167	22923
837.305	22873
837.443	22873
837.58	22809
837.718	22885
837.856	22786
837.993	22778
838.131	22801
838.269	22603
838.406	22683
838.544	22603
838.681	22379
838.819	22402
838.956	22158
839.094	22348
839.231	22329
839.369	22428
839.506	22713
839.643	22417
839.781	22185
839.918	22226
840.055	22249
840.193	22249
840.33	22219
840.467	22360
840.604	22207
840.742	22481
840.879	22013
841.016	22124
841.153	22059
841.29	22284
841.427	22257
841.564	22238
841.701	22249
841.838	22158
841.975	22013
842.112	22154
842.249	21960
842.385	21888
842.522	22070
842.659	22090
842.796	21846
842.933	21964
843.069	21854
843.206	21838
843.343	22036
843.479	21975
843.616	21762
843.752	21644
843.889	21694
844.025	21903
844.162	21717
844.298	21899
844.435	21717
844.571	21603
844.708	21808
844.844	21918
844.98	21915
845.117	21827
845.253	21641
845.389	21644
845.525	21732
845.661	21641
845.798	21367
845.934	21481
846.07	21351
846.206	21561
846.342	21610
846.478	21443
846.614	21283
846.75	21119
846.886	21283
847.022	21230
847.158	21260
847.294	21302
847.429	21351
847.565	21184
847.701	21370
847.837	20956
847.972	20864
848.108	21047
848.244	21001
848.379	20834
848.515	20815
848.65	20769
848.786	20800
848.921	20792
849.057	20948
849.192	20807
849.328	20906
849.463	20834
849.598	20823
849.734	20693
849.869	20716
850.004	20632
850.14	20556
850.275	20621
850.41	20518
850.545	20530
850.68	20495
850.815	20609
850.95	20419
851.085	20678
851.22	20720
851.355	20629
851.49	20640
851.625	20526
851.76	20518
851.895	20503
852.03	20423
852.165	20556
852.299	20659
852.434	20629
852.569	20568
852.703	20594
852.838	20598
852.973	20583
853.107	20781
853.242	20469
853.376	20377
853.511	20332
853.645	20282
853.78	20507
853.914	20389
854.048	20294
854.183	20454
854.317	20389
854.451	20579
854.585	20427
854.72	20317
854.854	20438
854.988	20301
855.122	20404
855.256	20206
855.39	20503
855.524	20522
855.658	20434
855.792	20454
855.926	20495
856.06	20488
856.194	20511
856.327	20381
856.461	20153
856.595	20393
856.729	20469
856.862	20454
856.996	20442
857.13	20461
857.263	20549
857.397	20609
857.53	20278
857.664	20499
857.797	20313
857.931	20648
858.064	20518
858.197	20442
858.331	20320
858.464	20317
858.597	20320
858.731	20221
858.864	20320
858.997	20324
859.13	20454
859.263	20389
859.396	20533
859.529	20336
859.662	20381
859.795	20313
859.928	20454
860.061	20514
860.194	20541
860.327	20396
860.46	20355
860.592	20587
860.725	20598
860.858	20503
860.99	20259
861.123	20313
861.256	20343
861.388	20313
861.521	20960
861.653	20320
861.786	20244
861.918	20206
862.05	20271
862.183	20324
862.315	20336
862.447	20415
862.58	20183
862.712	20153
862.844	20164
862.976	20180
863.108	20210
863.24	20609
863.372	20039
863.504	20119
863.636	20195
863.768	20115
863.9	20115
864.032	19982
864.164	20012
864.296	20161
864.428	20172
864.559	20218
864.691	20149
864.823	20237
864.954	20115
865.086	20103
865.217	20058
865.349	19986
865.48	20054
865.612	20100
865.743	20111
865.875	20058
866.006	20039
866.137	19902
866.269	20134
866.4	19928
866.531	20100
866.662	19932
866.793	20016
866.924	19925
867.055	20062
867.186	19925
867.317	19940
867.448	19959
867.579	19898
867.71	19944
867.841	19993
867.972	19883
868.103	20088
868.233	20054
868.364	20001
868.495	20069
868.625	20195
868.756	20206
868.886	20115
869.017	20214
869.147	20336
869.278	20393
869.408	20199
869.539	20221
869.669	20343
869.799	20252
869.929	20301
870.06	20282
870.19	20480
870.32	20473
870.45	20590
870.58	20621
870.71	20708
870.84	20625
870.97	20613
871.1	20568
871.23	20731
871.36	20705
871.489	20724
871.619	20746
871.749	20777
871.879	20883
872.008	20994
872.138	20727
872.267	20788
872.397	20765
872.526	20686
872.656	20743
872.785	20735
872.915	20769
873.044	20929
873.173	20849
873.303	20845
873.432	20864
873.561	20910
873.69	20880
873.819	20952
873.948	20895
874.077	20910
874.206	20739
874.335	20788
874.464	21005
874.593	21062
874.722	21116
874.851	21116
874.979	21169
875.108	21051
875.237	21039
875.365	20925
875.494	20952
875.623	21302
875.751	21096
875.88	21116
876.008	21233
876.136	21256
876.265	21473
876.393	21698
876.521	21504
876.65	21492
876.778	21401
876.906	21397
877.034	21382
877.162	21424
877.29	21340
877.418	21355
877.546	21431
877.674	21469
877.802	21405
877.93	21435
878.058	21370
878.185	21302
878.313	21416
878.441	21294
878.568	21336
878.696	21439
878.824	21534
878.951	21492
879.079	21660
879.206	21785
879.333	21591
879.461	21542
879.588	21526
879.715	21606
879.842	21728
879.97	21557
880.097	21359
880.224	21123
880.351	21199
880.478	21329
880.605	21275
880.732	21241
880.859	21359
880.986	21256
881.112	21233
881.239	21157
881.366	20937
881.493	20971
881.619	20853
881.746	20979
881.872	20902
881.999	20788
882.125	20739
882.252	20868
882.378	20868
882.505	20963
882.631	20785
882.757	20518
882.883	20670
883.01	20655
883.136	20412
883.262	20381
883.388	20446
883.514	20541
883.64	20575
883.766	20427
883.892	20309
884.018	20248
884.143	20450
884.269	20617
884.395	20271
884.52	20103
884.646	20259
884.772	20043
884.897	19993
885.023	20256
885.148	20263
885.274	20351
885.399	20370
885.524	20161
885.65	20240
885.775	20328
885.9	20267
886.025	20259
886.15	20233
886.275	20149
886.4	20081
886.525	20100
886.65	20176
886.775	20149
886.9	20195
887.025	20465
887.149	20130
887.274	20046
887.399	19940
887.523	20027
887.648	19963
887.773	19803
887.897	20024
888.021	20077
888.146	19986
888.27	20103
888.395	20069
888.519	20077
888.643	19993
888.767	19989
888.891	19879
889.015	19776
889.139	19822
889.263	19769
889.387	19940
889.511	19982
889.635	19974
889.759	19769
889.883	19712
890.006	19750
890.13	19955
890.254	19738
890.377	19757
890.501	19727
890.624	19571
890.748	19601
890.871	19594
890.995	19324
891.118	19289
891.241	19377
891.364	19438
891.488	19434
891.611	19381
891.734	19411
891.857	19419
891.98	19358
892.103	19403
892.226	19369
892.349	19400
892.471	19225
892.594	19301
892.717	19285
892.839	19301
892.962	19339
893.085	19476
893.207	19259
893.33	19301
893.452	19289
893.575	19369
893.697	19278
893.819	19491
893.941	19510
894.064	19422
894.186	19301
894.308	19213
894.43	19407
894.552	19552
894.674	19358
894.796	19259
894.918	19236
895.04	19312
895.161	19369
895.283	19335
895.405	19160
895.526	19251
895.648	19274
895.769	19304
895.891	19343
896.012	19453
896.134	19422
896.255	19365
896.376	19236
896.498	19293
896.619	19396
896.74	19358
896.861	19430
896.982	19601
897.103	19765
897.224	19578
897.345	19651
897.466	19544
897.587	19609
897.708	19651
897.828	19521
897.949	19575
898.07	19373
898.19	19548
898.311	19605
898.431	19582
898.552	19556
898.672	19635
898.792	19499
898.913	19476
899.033	19453
899.153	19453
899.273	19221
899.393	19240
899.513	19327
899.633	19263
899.753	19354
899.873	19320
899.993	19289
900.113	19183
900.232	19266
900.352	19285
900.472	19095
900.591	19050
900.711	19141
900.83	19023
900.95	19206
901.069	19285
901.189	18924
901.308	18798
901.427	18707
901.546	18760
901.665	18776
901.784	18715
901.904	18490
902.023	18475
902.141	18315
902.26	18251
902.379	18220
902.498	18190
902.617	18197
902.735	18194
902.854	18220
902.973	18125
903.091	17946
903.21	17866
903.328	17916
903.446	17843
903.565	17802
903.683	17703
903.801	17535
903.919	17661
904.038	17714
904.156	17634
904.274	17497
904.392	17524
904.51	17410
904.627	17478
904.745	17493
904.863	17592
904.981	17311
905.098	17140
905.216	17132
905.334	17185
905.451	17159
905.569	17265
905.686	17197
905.803	17200
905.921	16930
906.038	17014
906.155	16968
906.272	16862
906.389	16869
906.506	16672
906.623	16869
906.74	16713
906.857	16558
906.974	16634
907.091	16812
907.208	16782
907.324	16698
907.441	16569
907.557	16432
907.674	16382
907.79	16284
907.907	16413
908.023	16447
908.139	16489
908.256	16470
908.372	16394
908.488	16306
908.604	16188
908.72	16036
908.836	16147
908.952	16105
909.068	16166
909.184	16207
909.3	16093
909.415	16097
909.531	16196
909.647	15926
909.762	15880
909.878	15842
909.993	15823
910.108	15857
910.224	15778
910.339	15823
910.454	15736
910.57	15679
910.685	15728
910.8	15911
910.915	15854
911.03	15595
911.145	15534
911.259	15549
911.374	15477
911.489	15340
911.604	15359
911.718	15119
911.833	15252
911.947	15157
912.062	15039
912.176	15169
912.291	15184
912.405	15169
912.519	15336
912.633	15424
912.748	15100
912.862	15142
912.976	15036
913.09	14944
913.204	14994
913.318	15058
913.431	15169
913.545	15146
913.659	15097
913.772	14933
913.886	14891
914	14842
914.113	14925
914.226	14982
914.34	14861
914.453	14777
914.566	14899
914.68	14697
914.793	14651
914.906	14537
915.019	14511
915.132	14431
915.245	14469
915.358	14461
915.47	14545
915.583	14442
915.696	14469
915.809	14629
915.921	14556
916.034	14313
916.146	14347
916.259	14347
916.371	14495
916.483	14431
916.595	14271
916.708	14256
916.82	14324
916.932	14252
917.044	14259
917.156	14183
917.268	14149
917.38	14256
917.491	14134
917.603	14210
917.715	14180
917.826	14229
917.938	14069
918.049	13868
918.161	14134
918.272	14256
918.384	14317
918.495	14107
918.606	13951
918.717	13921
918.828	13986
918.939	13974
919.05	13799
919.161	13921
919.272	13776
919.383	13761
919.494	13856
919.604	14069
919.715	13936
919.826	13769
919.936	14035
920.047	13967
920.157	13940
920.267	14126
920.378	13974
920.488	13947
920.598	14111
920.708	14176
920.818	14058
920.928	13982
921.038	14218
921.148	14180
921.258	13803
921.368	13807
921.477	13689
921.587	13655
921.697	13578
921.806	13715
921.916	13525
922.025	13331
922.134	13266
922.244	13255
922.353	13346
922.462	13255
922.571	13114
922.68	12996
922.789	12951
922.898	13069
923.007	12935
923.116	13042
923.224	12935
923.333	12993
923.442	12745
923.55	12719
923.659	12890
923.767	12840
923.876	12730
923.984	12772
924.092	12741
924.201	12700
924.309	12726
924.417	12715
924.525	12681
924.633	12711
924.741	13582
924.849	12429
924.956	12498
925.064	12384
925.172	12391
925.279	12422
925.387	12513
925.494	12475
925.602	12494
925.709	12448
925.816	12350
925.924	12410
926.031	12388
926.138	12395
926.245	12429
926.352	12175
926.459	12357
926.566	12376
926.673	12281
926.779	12182
926.886	12114
926.993	12060
927.099	12041
927.206	12003
927.312	11904
927.419	12030
927.525	12026
927.631	11980
927.737	11961
927.843	11878
927.95	11760
928.056	11760
928.162	11897
928.267	11889
928.373	12460
928.479	11904
928.585	11676
928.69	11813
928.796	11859
928.901	11676
929.007	11577
929.112	11699
929.218	11592
929.323	11547
929.428	11547
929.533	11649
929.638	11459
929.743	11410
929.848	11596
929.953	11471
930.058	11398
930.163	11227
930.267	11269
930.372	11406
930.477	11216
930.581	11482
930.685	11292
930.79	11235
930.894	11174
930.998	11174
931.103	11368
931.207	10968
931.311	10873
931.415	10744
931.519	10546
931.623	10455
