Data from test_V78500241_2893.txt Node
Date: Fri Mar 25 15:30:00 CST 2022
User: usil
Spectrometer: V785-0024
Trigger mode: 0
Integration Time (sec): 4.000000E-1
Scans to average: 1
Nonlinearity correction enabled: false
Boxcar width: 0
Storing dark spectrum: false
XAxis mode: Wavelengths
Number of Pixels in Spectrum: 1024
>>>>>Begin Spectral Data<<<<<
801.071	27310
801.214	27211
801.356	27047
801.499	26963
801.641	26864
801.783	26845
801.926	26906
802.068	26777
802.211	26830
802.353	26720
802.496	26621
802.638	26480
802.78	26480
802.923	26320
803.065	26366
803.208	26366
803.35	26419
803.492	26537
803.635	26609
803.777	26522
803.919	26575
804.061	27112
804.204	26758
804.346	26674
804.488	26507
804.63	26598
804.773	26495
804.915	26556
805.057	26716
805.199	26571
805.341	26629
805.483	26796
805.626	26659
805.768	26743
805.91	26731
806.052	26697
806.194	26492
806.336	26762
806.478	26872
806.62	26758
806.762	26864
806.904	26990
807.046	27249
807.188	27237
807.33	27154
807.472	27161
807.614	27100
807.756	27058
807.898	26960
808.04	26956
808.182	26864
808.324	26948
808.465	27119
808.607	27116
808.749	27302
808.891	27538
809.033	27599
809.174	27583
809.316	27355
809.458	27298
809.6	27245
809.741	27477
809.883	27367
810.025	27443
810.166	27538
810.308	27644
810.45	27705
810.591	27443
810.733	27237
810.875	27252
811.016	27313
811.158	27245
811.299	27359
811.441	27580
811.582	27443
811.724	27405
811.865	27272
812.007	27184
812.148	27397
812.29	27424
812.431	27515
812.573	27610
812.714	27717
812.855	27888
812.997	27800
813.138	28105
813.279	27911
813.421	27888
813.562	27918
813.703	27637
813.845	27587
813.986	27176
814.127	27093
814.268	26925
814.41	27020
814.551	27020
814.692	27089
814.833	26948
814.974	27009
815.115	26910
815.256	26883
815.397	26963
815.539	26880
815.68	26826
815.821	26743
815.962	26686
816.103	26697
816.244	26670
816.385	26609
816.526	26537
816.666	26362
816.807	26225
816.948	26305
817.089	26355
817.23	26324
817.371	26149
817.512	26248
817.653	26309
817.793	26267
817.934	26115
818.075	26142
818.216	26309
818.356	26271
818.497	26122
818.638	25955
818.778	25936
818.919	25966
819.06	26142
819.2	26271
819.341	26096
819.481	26073
819.622	26328
819.762	26431
819.903	26370
820.043	26446
820.184	26290
820.324	26358
820.465	26358
820.605	26351
820.746	26377
820.886	26187
821.026	26324
821.167	26309
821.307	26358
821.447	26218
821.588	26077
821.728	26054
821.868	25928
822.008	25723
822.149	25715
822.289	25670
822.429	25278
822.569	25369
822.709	25407
822.849	25240
822.99	25187
823.13	25259
823.27	25198
823.41	24928
823.55	24977
823.69	25023
823.83	24977
823.97	24970
824.11	24920
824.25	24791
824.389	24783
824.529	24848
824.669	24810
824.809	24852
824.949	24985
825.089	24913
825.228	24833
825.368	24700
825.508	24715
825.648	24681
825.787	24791
825.927	24856
826.067	24585
826.206	24681
826.346	24692
826.485	24757
826.625	24745
826.765	24810
826.904	24768
827.044	24372
827.183	24551
827.323	24292
827.462	24433
827.601	24544
827.741	24369
827.88	24502
828.02	24346
828.159	24395
828.298	24418
828.437	24467
828.577	24213
828.716	24414
828.855	24323
828.994	24102
829.134	24076
829.273	24129
829.412	24174
829.551	23980
829.69	24114
829.829	24034
829.968	24243
830.107	24209
830.246	24133
830.385	24072
830.524	23927
830.663	23836
830.802	23851
830.941	23703
831.08	23703
831.219	23771
831.357	23813
831.496	23878
831.635	23707
831.774	23699
831.913	23551
832.051	23516
832.19	23539
832.329	23547
832.467	23337
832.606	23299
832.744	23372
832.883	23288
833.022	23315
833.16	23383
833.299	23414
833.437	23379
833.576	23383
833.714	23417
833.852	23585
833.991	23528
834.129	23562
834.267	23486
834.406	23474
834.544	23471
834.682	23573
834.821	23356
834.959	23528
835.097	23376
835.235	23490
835.373	23376
835.511	23379
835.65	23360
835.788	23258
835.926	23216
836.064	23090
836.202	23044
836.34	23356
836.478	23448
836.615	23296
836.753	23379
836.891	23398
837.029	23292
837.167	23143
837.305	23155
837.443	23067
837.58	23155
837.718	23181
837.856	23151
837.993	23037
838.131	23102
838.269	22984
838.406	22987
838.544	22968
838.681	22809
838.819	22660
838.956	22603
839.094	22580
839.231	22584
839.369	22774
839.506	23003
839.643	22869
839.781	22653
839.918	22519
840.055	22554
840.193	22470
840.33	22436
840.467	22588
840.604	22481
840.742	22702
840.879	22508
841.016	22386
841.153	22325
841.29	22653
841.427	22462
841.564	22554
841.701	22390
841.838	22474
841.975	22413
842.112	22440
842.249	22333
842.385	22211
842.522	22542
842.659	22371
842.796	22325
842.933	22272
843.069	22074
843.206	22200
843.343	22249
843.479	22249
843.616	22360
843.752	21968
843.889	22070
844.025	22166
844.162	21960
844.298	22086
844.435	21983
844.571	21953
844.708	21987
844.844	22215
844.98	22158
845.117	22074
845.253	21998
845.389	21892
845.525	21945
845.661	21724
845.798	21743
845.934	21835
846.07	21774
846.206	21804
846.342	22040
846.478	21857
846.614	21641
846.75	21504
846.886	21511
847.022	21557
847.158	21542
847.294	21496
847.429	21595
847.565	21428
847.701	21709
847.837	21230
847.972	21195
848.108	21291
848.244	21252
848.379	21249
848.515	21146
848.65	20998
848.786	21165
848.921	21051
849.057	21154
849.192	21169
849.328	21108
849.463	21138
849.598	21055
849.734	20990
849.869	20956
850.004	20872
850.14	20819
850.275	20864
850.41	20777
850.545	20762
850.68	20864
850.815	20929
850.95	20845
851.085	21062
851.22	21055
851.355	20963
851.49	20887
851.625	20944
851.76	20857
851.895	20800
852.03	20804
852.165	20899
852.299	20933
852.434	20906
852.569	20868
852.703	20819
852.838	20910
852.973	21013
853.107	20952
853.242	20785
853.376	20648
853.511	20606
853.645	20579
853.78	20807
853.914	20686
854.048	20583
854.183	20701
854.317	20724
854.451	20842
854.585	20804
854.72	20678
854.854	20880
854.988	20644
855.122	20689
855.256	20511
855.39	20727
855.524	20769
855.658	20689
855.792	20670
855.926	20705
856.06	20762
856.194	20754
856.327	20575
856.461	20632
856.595	20587
856.729	20750
856.862	20720
856.996	20781
857.13	20674
857.263	20689
857.397	20743
857.53	20644
857.664	20655
857.797	20754
857.931	20720
858.064	20765
858.197	20750
858.331	20518
858.464	20594
858.597	20659
858.731	20739
858.864	20564
858.997	20739
859.13	20678
859.263	20701
859.396	20739
859.529	20708
859.662	20686
859.795	20476
859.928	20644
860.061	20804
860.194	20933
860.327	20762
860.46	20613
860.592	20773
860.725	20910
860.858	20838
860.99	20629
861.123	20598
861.256	20621
861.388	20648
861.521	21252
861.653	20480
861.786	20507
861.918	20507
862.05	20590
862.183	20575
862.315	20606
862.447	20785
862.58	20648
862.712	20442
862.844	20347
862.976	20492
863.108	20492
863.24	20849
863.372	20286
863.504	20423
863.636	20461
863.768	20332
863.9	20385
864.032	20278
864.164	20438
864.296	20351
864.428	20537
864.559	20366
864.691	20511
864.823	20374
864.954	20419
865.086	20275
865.217	20248
865.349	20290
865.48	20271
865.612	20237
865.743	20347
865.875	20343
866.006	20199
866.137	20259
866.269	20259
866.4	20328
866.531	20046
866.662	20271
866.793	20286
866.924	20267
867.055	20229
867.186	20180
867.317	20271
867.448	20103
867.579	20157
867.71	20183
867.841	20073
867.972	20275
868.103	20199
868.233	20252
868.364	20396
868.495	20271
868.625	20461
868.756	20629
868.886	20294
869.017	20484
869.147	20518
869.278	20613
869.408	20461
869.539	20476
869.669	20476
869.799	20473
869.929	20530
870.06	20640
870.19	20845
870.32	20807
870.45	20864
870.58	20914
870.71	20948
870.84	21017
870.97	20902
871.1	20785
871.23	21036
871.36	21070
871.489	21081
871.619	21047
871.749	21096
871.879	21047
872.008	21260
872.138	21093
872.267	21100
872.397	20998
872.526	20872
872.656	20921
872.785	20971
872.915	20902
873.044	21173
873.173	21100
873.303	21104
873.432	21108
873.561	21249
873.69	21005
873.819	21032
873.948	21211
874.077	21047
874.206	21100
874.335	21165
874.464	21218
874.593	21291
874.722	21325
874.851	21374
874.979	21408
875.108	21336
875.237	21336
875.365	21325
875.494	21245
875.623	21401
875.751	21382
875.88	21511
876.008	21378
876.136	21523
876.265	21720
876.393	21865
876.521	21865
876.65	21835
876.778	21774
876.906	21675
877.034	21679
877.162	21637
877.29	21637
877.418	21663
877.546	21705
877.674	21656
877.802	21694
877.93	21656
878.058	21698
878.185	21473
878.313	21682
878.441	21606
878.568	21599
878.696	21709
878.824	21675
878.951	21728
879.079	21793
879.206	21991
879.333	21873
879.461	21724
879.588	21903
879.715	21743
879.842	22048
879.97	21709
880.097	21576
880.224	21576
880.351	21663
880.478	21583
880.605	21504
880.732	21496
880.859	21857
880.986	21519
881.112	21557
881.239	21553
881.366	21260
881.493	21184
881.619	21135
881.746	21039
881.872	21070
881.999	20998
882.125	21028
882.252	21233
882.378	21036
882.505	21169
882.631	21032
882.757	20773
882.883	20861
883.01	20842
883.136	20720
883.262	20667
883.388	20587
883.514	20918
883.64	20899
883.766	20655
883.892	20625
884.018	20594
884.143	20621
884.269	20785
884.395	20571
884.52	20389
884.646	20625
884.772	20488
884.897	20320
885.023	20480
885.148	20541
885.274	20480
885.399	20530
885.524	20495
885.65	20518
885.775	20480
885.9	20484
886.025	20488
886.15	20541
886.275	20412
886.4	20396
886.525	20465
886.65	20381
886.775	20320
886.9	20613
887.025	20629
887.149	20336
887.274	20294
887.399	20206
887.523	20161
887.648	20176
887.773	20054
887.897	20263
888.021	20351
888.146	20210
888.27	20355
888.395	20248
888.519	20275
888.643	20290
888.767	20275
888.891	20111
889.015	20107
889.139	20050
889.263	20134
889.387	20065
889.511	20271
889.635	20092
889.759	19887
889.883	19997
890.006	20008
890.13	20088
890.254	19940
890.377	19898
890.501	19746
890.624	19830
890.748	19822
890.871	19670
890.995	19639
891.118	19464
891.241	19537
891.364	19609
891.488	19772
891.611	19567
891.734	19575
891.857	19643
891.98	19624
892.103	19674
892.226	19753
892.349	19635
892.471	19445
892.594	19552
892.717	19521
892.839	19578
892.962	19491
893.085	19609
893.207	19518
893.33	19343
893.452	19548
893.575	19571
893.697	19552
893.819	19559
893.941	19674
894.064	19723
894.186	19571
894.308	19457
894.43	19620
894.552	19666
894.674	19590
894.796	19419
894.918	19407
895.04	19590
895.161	19476
895.283	19491
895.405	19396
895.526	19540
895.648	19537
895.769	19594
895.891	19559
896.012	19601
896.134	19582
896.255	19567
896.376	19540
896.498	19559
896.619	19590
896.74	19480
896.861	19597
896.982	19814
897.103	20024
897.224	19860
897.345	19814
897.466	19689
897.587	19909
897.708	19898
897.828	19753
897.949	19712
898.07	19582
898.19	19753
898.311	19837
898.431	19727
898.552	19696
898.672	19715
898.792	19795
898.913	19795
899.033	19670
899.153	19563
899.273	19510
899.393	19548
899.513	19605
899.633	19533
899.753	19761
899.873	19563
899.993	19491
900.113	19548
900.232	19586
900.352	19388
900.472	19400
900.591	19263
900.711	19472
900.83	19236
900.95	19472
901.069	19381
901.189	19278
901.308	18989
901.427	18916
901.546	18954
901.665	18901
901.784	18935
901.904	18806
902.023	18791
902.141	18593
902.26	18452
902.379	18540
902.498	18330
902.617	18346
902.735	18486
902.854	18384
902.973	18311
903.091	18102
903.21	18136
903.328	18174
903.446	18076
903.565	17977
903.683	18015
903.801	17767
903.919	17901
904.038	17817
904.156	17714
904.274	17775
904.392	17726
904.51	17684
904.627	17760
904.745	17771
904.863	17790
904.981	17577
905.098	17345
905.216	17341
905.334	17372
905.451	17410
905.569	17360
905.686	17410
905.803	17337
905.921	17223
906.038	17197
906.155	17292
906.272	17117
906.389	17098
906.506	16847
906.623	16896
906.74	17006
906.857	16748
906.974	16790
907.091	16873
907.208	17048
907.324	16915
907.441	16767
907.557	16653
907.674	16641
907.79	16634
907.907	16592
908.023	16713
908.139	16653
908.256	16641
908.372	16611
908.488	16485
908.604	16341
908.72	16344
908.836	16379
908.952	16360
909.068	16443
909.184	16451
909.3	16306
909.415	16322
909.531	16394
909.647	16166
909.762	16059
909.878	16036
909.993	16055
910.108	16036
910.224	16074
910.339	15987
910.454	15949
910.57	15888
910.685	15941
910.8	16131
910.915	16010
911.03	15800
911.145	15690
911.259	15717
911.374	15671
911.489	15625
911.604	15496
911.718	15386
911.833	15637
911.947	15336
912.062	15359
912.176	15538
912.291	15462
912.405	15431
912.519	15553
912.633	15606
912.748	15447
912.862	15454
912.976	15275
913.09	15184
913.204	15173
913.318	15237
913.431	15283
913.545	15336
913.659	15245
913.772	15154
913.886	15104
914	15039
914.113	15135
914.226	15142
914.34	15169
914.453	14979
914.566	14971
914.68	14963
914.793	14960
914.906	14731
915.019	14697
915.132	14655
915.245	14659
915.358	14678
915.47	14689
915.583	14610
915.696	14777
915.809	14762
915.921	14842
916.034	14560
916.146	14640
916.259	14583
916.371	14689
916.483	14663
916.595	14533
916.708	14579
916.82	14431
916.932	14495
917.044	14393
917.156	14492
917.268	14324
917.38	14366
917.491	14347
917.603	14252
917.715	14309
917.826	14317
917.938	14252
918.049	14149
918.161	14282
918.272	14404
918.384	14339
918.495	14412
918.606	14164
918.717	14001
918.828	14145
918.939	14187
919.05	13967
919.161	14111
919.272	13936
919.383	14065
919.494	14138
919.604	14328
919.715	14176
919.826	13997
919.936	13997
920.047	14161
920.157	14043
920.267	14195
920.378	14145
920.488	13967
920.598	14180
920.708	14347
920.818	14195
920.928	14244
921.038	14377
921.148	14317
921.258	13959
921.368	14001
921.477	13890
921.587	13871
921.697	13712
921.806	13875
921.916	13712
922.025	13537
922.134	13453
922.244	13362
922.353	13426
922.462	13346
922.571	13343
922.68	13133
922.789	13091
922.898	13129
923.007	13118
923.116	13137
923.224	13107
923.333	12954
923.442	12928
923.55	12924
923.659	13019
923.767	12996
923.876	12932
923.984	12916
924.092	12878
924.201	12928
924.309	12859
924.417	12837
924.525	12776
924.633	12833
924.741	13670
924.849	12585
924.956	12719
925.064	12623
925.172	12536
925.279	12506
925.387	12658
925.494	12582
925.602	12703
925.709	12601
925.816	12437
925.924	12566
926.031	12616
926.138	12483
926.245	12547
926.352	12422
926.459	12559
926.566	12536
926.673	12410
926.779	12369
926.886	12346
926.993	12163
927.099	12140
927.206	12171
927.312	12041
927.419	12224
927.525	12205
927.631	12102
927.737	12079
927.843	11980
927.95	11821
928.056	11996
928.162	12007
928.267	12026
928.373	12604
928.479	12045
928.585	11824
928.69	11897
928.796	11901
928.901	11790
929.007	11726
929.112	11764
929.218	11771
929.323	11752
929.428	11714
929.533	11889
929.638	11604
929.743	11676
929.848	11634
929.953	11653
930.058	11630
930.163	11341
930.267	11482
930.372	11547
930.477	11345
930.581	11577
930.685	11406
930.79	11250
930.894	11254
930.998	11239
931.103	11406
931.207	11064
931.311	10980
931.415	10839
931.519	10786
931.623	10748
