Data from test_V78500241_2333.txt Node
Date: Fri Mar 25 15:26:06 CST 2022
User: usil
Spectrometer: V785-0024
Trigger mode: 0
Integration Time (sec): 4.000000E-1
Scans to average: 1
Nonlinearity correction enabled: false
Boxcar width: 0
Storing dark spectrum: false
XAxis mode: Wavelengths
Number of Pixels in Spectrum: 1024
>>>>>Begin Spectral Data<<<<<
801.071	27427
801.214	27477
801.356	27252
801.499	27009
801.641	26834
801.783	27119
801.926	26940
802.068	26986
802.211	26899
802.353	26796
802.496	26629
802.638	26727
802.78	26511
802.923	26511
803.065	26473
803.208	26473
803.35	26606
803.492	26826
803.635	26769
803.777	26636
803.919	26906
804.061	27104
804.204	26796
804.346	26724
804.488	26781
804.63	26746
804.773	26655
804.915	26823
805.057	26944
805.199	26629
805.341	26891
805.483	27047
805.626	26807
805.768	26781
805.91	26861
806.052	26933
806.194	26861
806.336	27005
806.478	26872
806.62	26861
806.762	26948
806.904	27157
807.046	27252
807.188	27241
807.33	27298
807.472	27283
807.614	27222
807.756	27222
807.898	27096
808.04	27173
808.182	27123
808.324	27192
808.465	27161
808.607	27393
808.749	27450
808.891	27736
809.033	27637
809.174	27500
809.316	27488
809.458	27405
809.6	27420
809.741	27538
809.883	27526
810.025	27823
810.166	27682
810.308	27660
810.45	27660
810.591	27705
810.733	27405
810.875	27606
811.016	27340
811.158	27211
811.299	27511
811.441	27469
811.582	27477
811.724	27450
811.865	27325
812.007	27443
812.148	27469
812.29	27488
812.431	27717
812.573	27800
812.714	27937
812.855	27926
812.997	27956
813.138	28280
813.279	28040
813.421	28006
813.562	28006
813.703	27705
813.845	27606
813.986	27382
814.127	27214
814.268	27058
814.41	27081
814.551	27249
814.692	27294
814.833	27020
814.974	27093
815.115	27028
815.256	26971
815.397	27203
815.539	27104
815.68	26979
815.821	26838
815.962	26918
816.103	26887
816.244	26758
816.385	26788
816.526	26632
816.666	26598
816.807	26381
816.948	26484
817.089	26560
817.23	26259
817.371	26571
817.512	26324
817.653	26488
817.793	26415
817.934	26530
818.075	26537
818.216	26404
818.356	26351
818.497	26339
818.638	26176
818.778	26119
818.919	26374
819.06	26267
819.2	26233
819.341	26446
819.481	26271
819.622	26552
819.762	26716
819.903	26625
820.043	26552
820.184	26526
820.324	26552
820.465	26507
820.605	26667
820.746	26648
820.886	26431
821.026	26549
821.167	26488
821.307	26434
821.447	26389
821.588	26290
821.728	26317
821.868	26050
822.008	25955
822.149	25906
822.289	25902
822.429	25613
822.569	25540
822.709	25578
822.849	25388
822.99	25312
823.13	25388
823.27	25221
823.41	25171
823.55	25137
823.69	25232
823.83	25301
823.97	25160
824.11	25129
824.25	24890
824.389	25042
824.529	25031
824.669	24924
824.809	25057
824.949	25084
825.089	25095
825.228	25004
825.368	24924
825.508	24871
825.648	24951
825.787	24837
825.927	24913
826.067	24916
826.206	24802
826.346	24863
826.485	25046
826.625	24962
826.765	25004
826.904	24989
827.044	24604
827.183	24646
827.323	24696
827.462	24852
827.601	24578
827.741	24471
827.88	24570
828.02	24650
828.159	24582
828.298	24509
828.437	24837
828.577	24502
828.716	24642
828.855	24540
828.994	24323
829.134	24365
829.273	24395
829.412	24292
829.551	24194
829.69	24209
829.829	24338
829.968	24486
830.107	24334
830.246	24273
830.385	24251
830.524	24232
830.663	24087
830.802	24041
830.941	23946
831.08	23958
831.219	24034
831.357	23912
831.496	24095
831.635	23927
831.774	23748
831.913	23783
832.051	23611
832.19	23649
832.329	23608
832.467	23577
832.606	23528
832.744	23505
832.883	23600
833.022	23672
833.16	23615
833.299	23562
833.437	23642
833.576	23604
833.714	23539
833.852	23718
833.991	23684
834.129	23642
834.267	23672
834.406	23653
834.544	23665
834.682	23615
834.821	23611
834.959	23813
835.097	23661
835.235	23703
835.373	23615
835.511	23638
835.65	23543
835.788	23406
835.926	23368
836.064	23459
836.202	23235
836.34	23421
836.478	23482
836.615	23360
836.753	23459
836.891	23501
837.029	23402
837.167	23288
837.305	23455
837.443	23303
837.58	23387
837.718	23372
837.856	23501
837.993	23296
838.131	23265
838.269	23227
838.406	23250
838.544	23044
838.681	23014
838.819	23022
838.956	22824
839.094	22805
839.231	22953
839.369	22942
839.506	23162
839.643	23048
839.781	22923
839.918	22698
840.055	22763
840.193	22736
840.33	22824
840.467	22656
840.604	22744
840.742	22938
840.879	22557
841.016	22626
841.153	22580
841.29	22736
841.427	22717
841.564	22710
841.701	22759
841.838	22626
841.975	22611
842.112	22603
842.249	22478
842.385	22500
842.522	22713
842.659	22542
842.796	22512
842.933	22535
843.069	22405
843.206	22360
843.343	22531
843.479	22421
843.616	22504
843.752	22265
843.889	22192
844.025	22405
844.162	22181
844.298	22295
844.435	22147
844.571	22200
844.708	22223
844.844	22386
844.98	22360
845.117	22371
845.253	22284
845.389	22067
845.525	22017
845.661	22097
845.798	22021
845.934	22090
846.07	21926
846.206	22010
846.342	22173
846.478	21915
846.614	21751
846.75	21709
846.886	21789
847.022	21789
847.158	21736
847.294	21774
847.429	21861
847.565	21774
847.701	22048
847.837	21450
847.972	21431
848.108	21507
848.244	21477
848.379	21355
848.515	21329
848.65	21283
848.786	21218
848.921	21325
849.057	21382
849.192	21355
849.328	21332
849.463	21340
849.598	21260
849.734	21249
849.869	21199
850.004	21195
850.14	21074
850.275	21116
850.41	20864
850.545	21043
850.68	20975
850.815	21154
850.95	21119
851.085	21272
851.22	21123
851.355	21093
851.49	21089
851.625	21062
851.76	21104
851.895	20899
852.03	20864
852.165	21009
852.299	21055
852.434	21131
852.569	20990
852.703	21112
852.838	21180
852.973	21218
853.107	21173
853.242	21005
853.376	21017
853.511	20773
853.645	20861
853.78	21074
853.914	20941
854.048	20861
854.183	21028
854.317	20902
854.451	21165
854.585	20937
854.72	20971
854.854	21032
854.988	20800
855.122	20929
855.256	20815
855.39	20982
855.524	21047
855.658	20956
855.792	20895
855.926	20921
856.06	20963
856.194	21043
856.327	20864
856.461	20842
856.595	20811
856.729	20887
856.862	21081
856.996	20933
857.13	21039
857.263	20956
857.397	21055
857.53	20864
857.664	20967
857.797	21036
857.931	20910
858.064	21005
858.197	20990
858.331	20819
858.464	20838
858.597	20804
858.731	20910
858.864	20823
858.997	20826
859.13	20902
859.263	20967
859.396	20929
859.529	20880
859.662	20956
859.795	20910
859.928	20902
860.061	20967
860.194	21062
860.327	20880
860.46	20819
860.592	21017
860.725	21150
860.858	21020
860.99	20823
861.123	20880
861.256	20701
861.388	20887
861.521	21405
861.653	20807
861.786	20807
861.918	20731
862.05	20773
862.183	20807
862.315	20777
862.447	20849
862.58	20849
862.712	20522
862.844	20488
862.976	20731
863.108	20735
863.24	21089
863.372	20598
863.504	20621
863.636	20568
863.768	20670
863.9	20613
864.032	20568
864.164	20575
864.296	20583
864.428	20701
864.559	20556
864.691	20765
864.823	20632
864.954	20648
865.086	20625
865.217	20564
865.349	20484
865.48	20530
865.612	20552
865.743	20678
865.875	20442
866.006	20473
866.137	20564
866.269	20545
866.4	20575
866.531	20450
866.662	20533
866.793	20461
866.924	20438
867.055	20549
867.186	20495
867.317	20457
867.448	20313
867.579	20423
867.71	20446
867.841	20492
867.972	20366
868.103	20492
868.233	20492
868.364	20530
868.495	20507
868.625	20701
868.756	20750
868.886	20674
869.017	20746
869.147	20769
869.278	20796
869.408	20697
869.539	20716
869.669	20663
869.799	20883
869.929	20967
870.06	20864
870.19	21104
870.32	20975
870.45	21135
870.58	21150
870.71	21169
870.84	21195
870.97	21150
871.1	21116
871.23	21344
871.36	21237
871.489	21218
871.619	21260
871.749	21233
871.879	21389
872.008	21370
872.138	21428
872.267	21245
872.397	21241
872.526	21207
872.656	21157
872.785	21108
872.915	21359
873.044	21386
873.173	21249
873.303	21256
873.432	21386
873.561	21355
873.69	21313
873.819	21264
873.948	21408
874.077	21431
874.206	21363
874.335	21386
874.464	21591
874.593	21477
874.722	21519
874.851	21530
874.979	21447
875.108	21637
875.237	21492
875.365	21519
875.494	21561
875.623	21633
875.751	21549
875.88	21576
876.008	21785
876.136	21781
876.265	21880
876.393	22063
876.521	22036
876.65	22093
876.778	21987
876.906	21930
877.034	21934
877.162	21850
877.29	21876
877.418	21949
877.546	21956
877.674	21800
877.802	22013
877.93	21888
878.058	21945
878.185	21774
878.313	21785
878.441	21823
878.568	21736
878.696	21812
878.824	21869
878.951	21972
879.079	22070
879.206	22257
879.333	22044
879.461	21922
879.588	22006
879.715	21960
879.842	22131
879.97	21941
880.097	21663
880.224	21606
880.351	21781
880.478	21720
880.605	21682
880.732	21660
880.859	21953
880.986	21804
881.112	21797
881.239	21534
881.366	21469
881.493	21393
881.619	21237
881.746	21363
881.872	21348
881.999	21245
882.125	21230
882.252	21348
882.378	21275
882.505	21340
882.631	21283
882.757	21005
882.883	21142
883.01	20937
883.136	20933
883.262	20788
883.388	20834
883.514	20902
883.64	21043
883.766	20933
883.892	20834
884.018	20800
884.143	20883
884.269	20956
884.395	20720
884.52	20758
884.646	20682
884.772	20495
884.897	20537
885.023	20735
885.148	20697
885.274	20697
885.399	20743
885.524	20651
885.65	20621
885.775	20644
885.9	20602
886.025	20735
886.15	20769
886.275	20651
886.4	20571
886.525	20492
886.65	20587
886.775	20446
886.9	20655
887.025	20735
887.149	20682
887.274	20457
887.399	20415
887.523	20355
887.648	20419
887.773	20328
887.897	20404
888.021	20434
888.146	20419
888.27	20640
888.395	20473
888.519	20454
888.643	20450
888.767	20526
888.891	20324
889.015	20339
889.139	20256
889.263	20187
889.387	20366
889.511	20434
889.635	20282
889.759	20164
889.883	20240
890.006	20263
890.13	20404
890.254	20168
890.377	20031
890.501	20058
890.624	20031
890.748	20115
890.871	19803
890.995	19871
891.118	19807
891.241	19803
891.364	19795
891.488	19909
891.611	19845
891.734	19913
891.857	19837
891.98	19753
892.103	19837
892.226	19875
892.349	19841
892.471	19537
892.594	19807
892.717	19700
892.839	19693
892.962	19723
893.085	19719
893.207	19704
893.33	19616
893.452	19643
893.575	19761
893.697	19628
893.819	19811
893.941	19879
894.064	19887
894.186	19643
894.308	19670
894.43	19803
894.552	19898
894.674	19715
894.796	19639
894.918	19677
895.04	19674
895.161	19841
895.283	19795
895.405	19544
895.526	19689
895.648	19849
895.769	19685
895.891	19871
896.012	19776
896.134	19746
896.255	19742
896.376	19696
896.498	19742
896.619	19689
896.74	19750
896.861	19776
896.982	19955
897.103	20202
897.224	19951
897.345	20024
897.466	19852
897.587	19898
897.708	20058
897.828	19925
897.949	19974
898.07	19898
898.19	19875
898.311	19852
898.431	19902
898.552	19917
898.672	20020
898.792	19928
898.913	19974
899.033	19795
899.153	19715
899.273	19635
899.393	19647
899.513	19704
899.633	19685
899.753	19704
899.873	19635
899.993	19731
900.113	19750
900.232	19731
900.352	19537
900.472	19651
900.591	19377
900.711	19491
900.83	19415
900.95	19525
901.069	19696
901.189	19445
901.308	19126
901.427	19103
901.546	18985
901.665	19118
901.784	19148
901.904	18993
902.023	19019
902.141	18703
902.26	18604
902.379	18719
902.498	18612
902.617	18597
902.735	18654
902.854	18509
902.973	18475
903.091	18330
903.21	18327
903.328	18194
903.446	18289
903.565	18194
903.683	18068
903.801	17961
903.919	17939
904.038	18026
904.156	17775
904.274	17889
904.392	17805
904.51	17786
904.627	17923
904.745	17847
904.863	17901
904.981	17596
905.098	17467
905.216	17512
905.334	17592
905.451	17516
905.569	17440
905.686	17581
905.803	17566
905.921	17250
906.038	17490
906.155	17368
906.272	17231
906.389	17212
906.506	17174
906.623	17029
906.74	17041
906.857	16930
906.974	16972
907.091	17140
907.208	17159
907.324	17003
907.441	17014
907.557	16873
907.674	16774
907.79	16702
907.907	16679
908.023	16858
908.139	16740
908.256	16767
908.372	16679
908.488	16656
908.604	16546
908.72	16523
908.836	16596
908.952	16523
909.068	16470
909.184	16596
909.3	16500
909.415	16565
909.531	16542
909.647	16173
909.762	16261
909.878	16226
909.993	16200
910.108	16097
910.224	16177
910.339	16143
910.454	16067
910.57	16105
910.685	15979
910.8	16246
910.915	16090
911.03	16051
911.145	15835
911.259	15739
911.374	15827
911.489	15625
911.604	15728
911.718	15469
911.833	15542
911.947	15504
912.062	15424
912.176	15488
912.291	15526
912.405	15477
912.519	15717
912.633	15713
912.748	15511
912.862	15405
912.976	15447
913.09	15211
913.204	15344
913.318	15397
913.431	15564
913.545	15450
913.659	15473
913.772	15374
913.886	15211
914	15112
914.113	15264
914.226	15287
914.34	15321
914.453	15184
914.566	15176
914.68	15070
914.793	14990
914.906	14819
915.019	14773
915.132	14712
915.245	14830
915.358	14773
915.47	14739
915.583	14773
915.696	14754
915.809	14914
915.921	14887
916.034	14765
916.146	14632
916.259	14701
916.371	14800
916.483	14830
916.595	14602
916.708	14606
916.82	14674
916.932	14568
917.044	14556
917.156	14568
917.268	14484
917.38	14442
917.491	14408
917.603	14473
917.715	14564
917.826	14587
917.938	14427
918.049	14278
918.161	14415
918.272	14564
918.384	14526
918.495	14415
918.606	14339
918.717	14195
918.828	14336
918.939	14377
919.05	14107
919.161	14286
919.272	14020
919.383	14107
919.494	14256
919.604	14457
919.715	14214
919.826	14180
919.936	14168
920.047	14332
920.157	14126
920.267	14400
920.378	14271
920.488	14225
920.598	14225
920.708	14613
920.818	14389
920.928	14267
921.038	14461
921.148	14438
921.258	14290
921.368	14103
921.477	13978
921.587	13928
921.697	13860
921.806	13944
921.916	13818
922.025	13647
922.134	13658
922.244	13567
922.353	13651
922.462	13586
922.571	13453
922.68	13343
922.789	13270
922.898	13282
923.007	13266
923.116	13297
923.224	13320
923.333	13270
923.442	13145
923.55	13053
923.659	13209
923.767	13179
923.876	13107
923.984	13209
924.092	12970
924.201	13088
924.309	12924
924.417	12981
924.525	12905
924.633	12901
924.741	13833
924.849	12738
924.956	12863
925.064	12730
925.172	12696
925.279	12623
925.387	12677
925.494	12677
925.602	12821
925.709	12741
925.816	12684
925.924	12738
926.031	12711
926.138	12620
926.245	12738
926.352	12563
926.459	12730
926.566	12768
926.673	12547
926.779	12433
926.886	12486
926.993	12391
927.099	12224
927.206	12266
927.312	12247
927.419	12380
927.525	12285
927.631	12353
927.737	12262
927.843	12159
927.95	12034
928.056	12102
928.162	12171
928.267	12175
928.373	12696
928.479	12266
928.585	11954
928.69	12064
928.796	12098
928.901	11999
929.007	11866
929.112	11946
929.218	11931
929.323	11859
929.428	11798
929.533	11927
929.638	11726
929.743	11794
929.848	11866
929.953	11703
930.058	11596
930.163	11501
930.267	11585
930.372	11726
930.477	11410
930.581	11627
930.685	11558
930.79	11417
930.894	11444
930.998	11356
931.103	11497
931.207	11250
931.311	11113
931.415	11041
931.519	10801
931.623	10790
