Data from test_V78500241_245.txt Node
Date: Fri Mar 25 15:11:33 CST 2022
User: usil
Spectrometer: V785-0024
Trigger mode: 0
Integration Time (sec): 4.000000E-1
Scans to average: 1
Nonlinearity correction enabled: false
Boxcar width: 0
Storing dark spectrum: false
XAxis mode: Wavelengths
Number of Pixels in Spectrum: 1024
>>>>>Begin Spectral Data<<<<<
801.071	28303
801.214	28036
801.356	27972
801.499	27827
801.641	27873
801.783	27789
801.926	27660
802.068	27743
802.211	27701
802.353	27690
802.496	27515
802.638	27511
802.78	27466
802.923	27427
803.065	27336
803.208	27310
803.35	27443
803.492	27496
803.635	27557
803.777	27389
803.919	27572
804.061	27926
804.204	27564
804.346	27397
804.488	27488
804.63	27557
804.773	27287
804.915	27462
805.057	27625
805.199	27530
805.341	27515
805.483	27644
805.626	27572
805.768	27450
805.91	27583
806.052	27770
806.194	27542
806.336	27774
806.478	27667
806.62	27576
806.762	27808
806.904	28010
807.046	28238
807.188	28070
807.33	28010
807.472	28074
807.614	27991
807.756	27930
807.898	27804
808.04	27789
808.182	27762
808.324	27812
808.465	27781
808.607	28051
808.749	28314
808.891	28344
809.033	28413
809.174	28253
809.316	28032
809.458	28158
809.6	28173
809.741	28287
809.883	28432
810.025	28546
810.166	28455
810.308	28386
810.45	28318
810.591	28341
810.733	28215
810.875	28215
811.016	28105
811.158	27994
811.299	28219
811.441	28284
811.582	28249
811.724	28109
811.865	28192
812.007	28135
812.148	28128
812.29	28131
812.431	28310
812.573	28382
812.714	28535
812.855	28778
812.997	28748
813.138	28934
813.279	28782
813.421	28767
813.562	28675
813.703	28599
813.845	28249
813.986	28158
814.127	28010
814.268	27865
814.41	27778
814.551	27827
814.692	27972
814.833	27797
814.974	27831
815.115	27823
815.256	27671
815.397	27614
815.539	27663
815.68	27477
815.821	27698
815.962	27576
816.103	27424
816.244	27412
816.385	27416
816.526	27249
816.666	27074
816.807	27096
816.948	27207
817.089	27127
817.23	26975
817.371	27024
817.512	26933
817.653	27051
817.793	27013
817.934	27093
818.075	27093
818.216	26963
818.356	26876
818.497	26998
818.638	26724
818.778	26682
818.919	26701
819.06	26682
819.2	26902
819.341	26910
819.481	26925
819.622	27146
819.762	27230
819.903	27195
820.043	27024
820.184	27051
820.324	27100
820.465	27214
820.605	27089
820.746	27009
820.886	26891
821.026	27020
821.167	26944
821.307	27096
821.447	26880
821.588	26834
821.728	26720
821.868	26511
822.008	26427
822.149	26393
822.289	26404
822.429	26237
822.569	26225
822.709	26100
822.849	25944
822.99	25875
823.13	25887
823.27	25883
823.41	25708
823.55	25616
823.69	25719
823.83	25791
823.97	25677
824.11	25453
824.25	25483
824.389	25430
824.529	25434
824.669	25479
824.809	25449
824.949	25624
825.089	25548
825.228	25567
825.368	25247
825.508	25320
825.648	25407
825.787	25392
825.927	25430
826.067	25316
826.206	25343
826.346	25365
826.485	25327
826.625	25396
826.765	25422
826.904	25327
827.044	25160
827.183	25072
827.323	25076
827.462	25065
827.601	25107
827.741	25168
827.88	25084
828.02	24897
828.159	24989
828.298	25038
828.437	25004
828.577	25042
828.716	25069
828.855	24951
828.994	24844
829.134	24783
829.273	24734
829.412	24738
829.551	24677
829.69	24688
829.829	24677
829.968	24791
830.107	24722
830.246	24677
830.385	24574
830.524	24639
830.663	24509
830.802	24372
830.941	24410
831.08	24372
831.219	24422
831.357	24376
831.496	24509
831.635	24384
831.774	24251
831.913	24148
832.051	24121
832.19	24038
832.329	24121
832.467	23980
832.606	23996
832.744	23920
832.883	23923
833.022	23988
833.16	24030
833.299	23931
833.437	24018
833.576	23954
833.714	23942
833.852	24091
833.991	24018
834.129	24136
834.267	24034
834.406	23996
834.544	24079
834.682	23931
834.821	24026
834.959	24140
835.097	23996
835.235	24053
835.373	23988
835.511	24015
835.65	23737
835.788	23931
835.926	23771
836.064	23653
836.202	23729
836.34	23874
836.478	23897
836.615	23901
836.753	23828
836.891	23950
837.029	23939
837.167	23824
837.305	23703
837.443	23710
837.58	23687
837.718	23786
837.856	23726
837.993	23562
838.131	23760
838.269	23585
838.406	23554
838.544	23600
838.681	23242
838.819	23307
838.956	23121
839.094	23178
839.231	23178
839.369	23353
839.506	23516
839.643	23303
839.781	23159
839.918	23090
840.055	23174
840.193	23105
840.33	22930
840.467	22991
840.604	23079
840.742	23303
840.879	22961
841.016	23006
841.153	22889
841.29	23113
841.427	22968
841.564	22976
841.701	23060
841.838	22987
841.975	22911
842.112	22919
842.249	22831
842.385	22774
842.522	22904
842.659	22672
842.796	22774
842.933	22877
843.069	22694
843.206	22675
843.343	22774
843.479	22641
843.616	22771
843.752	22508
843.889	22542
844.025	22679
844.162	22470
844.298	22637
844.435	22584
844.571	22462
844.708	22565
844.844	22615
844.98	22713
845.117	22649
845.253	22462
845.389	22329
845.525	22459
845.661	22424
845.798	22268
845.934	22272
846.07	22166
846.206	22230
846.342	22398
846.478	22253
846.614	22040
846.75	21907
846.886	22036
847.022	22032
847.158	21937
847.294	22044
847.429	21934
847.565	21778
847.701	22143
847.837	21739
847.972	21682
848.108	21743
848.244	21739
848.379	21644
848.515	21504
848.65	21485
848.786	21428
848.921	21507
849.057	21557
849.192	21523
849.328	21561
849.463	21526
849.598	21466
849.734	21447
849.869	21447
850.004	21329
850.14	21241
850.275	21291
850.41	21287
850.545	21233
850.68	21294
850.815	21207
850.95	21268
851.085	21473
851.22	21367
851.355	21332
851.49	21264
851.625	21355
851.76	21268
851.895	21283
852.03	21226
852.165	21146
852.299	21252
852.434	21428
852.569	21351
852.703	21169
852.838	21313
852.973	21428
853.107	21458
853.242	21199
853.376	21096
853.511	20998
853.645	21157
853.78	21302
853.914	21028
854.048	21047
854.183	21039
854.317	21039
854.451	21283
854.585	21138
854.72	21112
854.854	21214
854.988	20914
855.122	21131
855.256	20967
855.39	21043
855.524	21230
855.658	21241
855.792	20990
855.926	21100
856.06	21070
856.194	21176
856.327	21104
856.461	20986
856.595	21096
856.729	21135
856.862	21176
856.996	20948
857.13	21192
857.263	21230
857.397	21275
857.53	21089
857.664	21165
857.797	21005
857.931	21256
858.064	21154
858.197	21211
858.331	21173
858.464	21104
858.597	21077
858.731	20956
858.864	20921
858.997	21047
859.13	21146
859.263	21154
859.396	21268
859.529	21020
859.662	20979
859.795	21096
859.928	21180
860.061	21222
860.194	21359
860.327	21222
860.46	21169
860.592	21184
860.725	21325
860.858	21256
860.99	21013
861.123	20952
861.256	21028
861.388	20994
861.521	21660
861.653	20967
861.786	20891
861.918	20902
862.05	21123
862.183	21154
862.315	21081
862.447	21291
862.58	21032
862.712	20948
862.844	20899
862.976	20914
863.108	20773
863.24	21226
863.372	20705
863.504	20788
863.636	20811
863.768	20872
863.9	20792
864.032	20621
864.164	20724
864.296	20891
864.428	20823
864.559	20902
864.691	20720
864.823	20792
864.954	20762
865.086	20716
865.217	20686
865.349	20678
865.48	20621
865.612	20575
865.743	20918
865.875	20708
866.006	20590
866.137	20579
866.269	20754
866.4	20644
866.531	20583
866.662	20670
866.793	20590
866.924	20667
867.055	20644
867.186	20556
867.317	20697
867.448	20461
867.579	20556
867.71	20552
867.841	20476
867.972	20602
868.103	20617
868.233	20514
868.364	20556
868.495	20708
868.625	20804
868.756	20986
868.886	20811
869.017	20826
869.147	20929
869.278	20899
869.408	20937
869.539	20853
869.669	20944
869.799	20785
869.929	21020
870.06	21100
870.19	21108
870.32	21043
870.45	21112
870.58	21222
870.71	21264
870.84	21393
870.97	21287
871.1	21192
871.23	21435
871.36	21511
871.489	21363
871.619	21485
871.749	21382
871.879	21431
872.008	21568
872.138	21519
872.267	21287
872.397	21241
872.526	21408
872.656	21264
872.785	21256
872.915	21488
873.044	21488
873.173	21485
873.303	21447
873.432	21507
873.561	21454
873.69	21473
873.819	21530
873.948	21564
874.077	21557
874.206	21420
874.335	21492
874.464	21485
874.593	21709
874.722	21564
874.851	21785
874.979	21709
875.108	21709
875.237	21637
875.365	21606
875.494	21496
875.623	21831
875.751	21717
875.88	21690
876.008	21812
876.136	21793
876.265	22025
876.393	22135
876.521	22166
876.65	22135
876.778	22021
876.906	21994
877.034	21945
877.162	22105
877.29	21983
877.418	22055
877.546	22082
877.674	22078
877.802	22048
877.93	22112
878.058	21956
878.185	21983
878.313	22105
878.441	22044
878.568	21861
878.696	21838
878.824	22017
878.951	22082
879.079	22101
879.206	22329
879.333	22265
879.461	22086
879.588	22070
879.715	22196
879.842	22219
879.97	22101
880.097	21895
880.224	21972
880.351	21846
880.478	21850
880.605	21778
880.732	21857
880.859	22048
880.986	21876
881.112	21789
881.239	21759
881.366	21618
881.493	21473
881.619	21500
881.746	21450
881.872	21325
881.999	21458
882.125	21393
882.252	21481
882.378	21428
882.505	21542
882.631	21260
882.757	21332
882.883	21214
883.01	21173
883.136	21226
883.262	21005
883.388	20834
883.514	21123
883.64	21180
883.766	21020
883.892	20933
884.018	20956
884.143	21066
884.269	21233
884.395	20925
884.52	20849
884.646	20819
884.772	20739
884.897	20659
885.023	20815
885.148	20819
885.274	20864
885.399	20842
885.524	20876
885.65	20724
885.775	20731
885.9	20842
886.025	20895
886.15	20895
886.275	20754
886.4	20644
886.525	20724
886.65	20750
886.775	20670
886.9	20857
887.025	21028
887.149	20739
887.274	20636
887.399	20583
887.523	20606
887.648	20564
887.773	20461
887.897	20568
888.021	20594
888.146	20480
888.27	20663
888.395	20659
888.519	20590
888.643	20564
888.767	20537
888.891	20552
889.015	20396
889.139	20480
889.263	20328
889.387	20454
889.511	20556
889.635	20469
889.759	20446
889.883	20309
890.006	20400
890.13	20564
890.254	20259
890.377	20355
890.501	20111
890.624	20065
890.748	20119
890.871	19982
890.995	19879
891.118	19959
891.241	19921
891.364	19864
891.488	20100
891.611	19871
891.734	19989
891.857	19967
891.98	19989
892.103	19974
892.226	20012
892.349	19852
892.471	19685
892.594	19909
892.717	19925
892.839	19841
892.962	19799
893.085	19890
893.207	19814
893.33	19681
893.452	19772
893.575	19890
893.697	19814
893.819	20039
893.941	20062
894.064	20031
894.186	19818
894.308	19746
894.43	19780
894.552	19944
894.674	19849
894.796	19662
894.918	19765
895.04	19856
895.161	19909
895.283	19780
895.405	19753
895.526	19898
895.648	19841
895.769	19772
895.891	19811
896.012	19898
896.134	19860
896.255	19803
896.376	19826
896.498	19856
896.619	19875
896.74	19894
896.861	19928
896.982	20145
897.103	20385
897.224	20191
897.345	20149
897.466	20084
897.587	20096
897.708	20069
897.828	20240
897.949	20088
898.07	19864
898.19	19845
898.311	20180
898.431	19955
898.552	20046
898.672	20016
898.792	20016
898.913	19974
899.033	19951
899.153	19814
899.273	19833
899.393	19822
899.513	19776
899.633	19811
899.753	19833
899.873	19811
899.993	19723
900.113	19689
900.232	19807
900.352	19712
900.472	19556
900.591	19453
900.711	19616
900.83	19449
900.95	19685
901.069	19609
901.189	19483
901.308	19183
901.427	19107
901.546	19183
901.665	19221
901.784	19129
901.904	19019
902.023	18985
902.141	18688
902.26	18639
902.379	18677
902.498	18642
902.617	18642
902.735	18677
902.854	18570
902.973	18544
903.091	18292
903.21	18262
903.328	18376
903.446	18197
903.565	18152
903.683	18076
903.801	18057
903.919	18049
904.038	18076
904.156	17961
904.274	18034
904.392	17923
904.51	17942
904.627	17847
904.745	17958
904.863	17878
904.981	17722
905.098	17619
905.216	17570
905.334	17623
905.451	17581
905.569	17509
905.686	17604
905.803	17615
905.921	17433
906.038	17478
906.155	17395
906.272	17311
906.389	17334
906.506	17136
906.623	17117
906.74	17045
906.857	16896
906.974	17060
907.091	17109
907.208	17261
907.324	17048
907.441	17067
907.557	16843
907.674	16877
907.79	16797
907.907	16889
908.023	16816
908.139	16866
908.256	16736
908.372	16649
908.488	16626
908.604	16584
908.72	16546
908.836	16565
908.952	16489
909.068	16588
909.184	16584
909.3	16447
909.415	16531
909.531	16470
909.647	16272
909.762	16318
909.878	16120
909.993	16154
910.108	16215
910.224	16196
910.339	16200
910.454	16116
910.57	16078
910.685	16021
910.8	16226
910.915	16177
911.03	16128
911.145	15846
911.259	15800
911.374	15789
911.489	15876
911.604	15610
911.718	15549
911.833	15519
911.947	15454
912.062	15428
912.176	15504
912.291	15557
912.405	15591
912.519	15732
912.633	15720
912.748	15580
912.862	15580
912.976	15367
913.09	15260
913.204	15408
913.318	15401
913.431	15393
913.545	15424
913.659	15439
913.772	15256
913.886	15184
914	15237
914.113	15310
914.226	15321
914.34	15287
914.453	15047
914.566	15233
914.68	15001
914.793	15085
914.906	14823
915.019	14838
915.132	14712
915.245	14800
915.358	14815
915.47	14861
915.583	14788
915.696	14819
915.809	14921
915.921	14956
916.034	14754
916.146	14693
916.259	14659
916.371	14811
916.483	14743
916.595	14556
916.708	14758
916.82	14636
916.932	14560
917.044	14571
917.156	14503
917.268	14511
917.38	14484
917.491	14419
917.603	14454
917.715	14530
917.826	14579
917.938	14362
918.049	14347
918.161	14446
918.272	14507
918.384	14583
918.495	14434
918.606	14267
918.717	14237
918.828	14237
918.939	14286
919.05	14126
919.161	14168
919.272	14050
919.383	14130
919.494	14214
919.604	14457
919.715	14233
919.826	14123
919.936	14164
920.047	14267
920.157	14199
920.267	14332
920.378	14172
920.488	14172
920.598	14351
920.708	14537
920.818	14404
920.928	14263
921.038	14503
921.148	14423
921.258	14134
921.368	14020
921.477	13936
921.587	14008
921.697	13811
921.806	13871
921.916	13822
922.025	13597
922.134	13544
922.244	13464
922.353	13605
922.462	13339
922.571	13320
922.68	13232
922.789	13225
922.898	13247
923.007	13099
923.116	13301
923.224	13213
923.333	13152
923.442	13015
923.55	13008
923.659	13072
923.767	13095
923.876	13046
923.984	13076
924.092	12935
924.201	12985
924.309	12852
924.417	12905
924.525	12814
924.633	12939
924.741	13693
924.849	12700
924.956	12715
925.064	12589
925.172	12627
925.279	12692
925.387	12730
925.494	12696
925.602	12768
925.709	12623
925.816	12593
925.924	12532
926.031	12616
926.138	12593
926.245	12677
926.352	12509
926.459	12681
926.566	12601
926.673	12513
926.779	12357
926.886	12357
926.993	12239
927.099	12243
927.206	12133
927.312	12144
927.419	12281
927.525	12167
927.631	12155
927.737	12110
927.843	12045
927.95	11882
928.056	11954
928.162	11992
928.267	12110
928.373	12692
928.479	11999
928.585	11874
928.69	12015
928.796	11916
928.901	11882
929.007	11802
929.112	11920
929.218	11813
929.323	11718
929.428	11722
929.533	11866
929.638	11733
929.743	11748
929.848	11710
929.953	11741
930.058	11611
930.163	11486
930.267	11402
930.372	11524
930.477	11452
930.581	11642
930.685	11512
930.79	11345
930.894	11311
930.998	11364
931.103	11452
931.207	11143
931.311	10991
931.415	10904
931.519	10771
931.623	10748
