Data from test_V78500241_1485.txt Node
Date: Fri Mar 25 15:20:11 CST 2022
User: usil
Spectrometer: V785-0024
Trigger mode: 0
Integration Time (sec): 4.000000E-1
Scans to average: 1
Nonlinearity correction enabled: false
Boxcar width: 0
Storing dark spectrum: false
XAxis mode: Wavelengths
Number of Pixels in Spectrum: 1024
>>>>>Begin Spectral Data<<<<<
801.071	28147
801.214	28013
801.356	27732
801.499	27762
801.641	27724
801.783	27603
801.926	27557
802.068	27694
802.211	27572
802.353	27614
802.496	27344
802.638	27359
802.78	27294
802.923	27077
803.065	27047
803.208	27195
803.35	27344
803.492	27389
803.635	27469
803.777	27336
803.919	27500
804.061	27652
804.204	27485
804.346	27477
804.488	27313
804.63	27599
804.773	27572
804.915	27568
805.057	27610
805.199	27504
805.341	27690
805.483	27576
805.626	27648
805.768	27511
805.91	27667
806.052	27595
806.194	27641
806.336	27831
806.478	27580
806.62	27603
806.762	27808
806.904	27911
807.046	28051
807.188	28097
807.33	27998
807.472	27998
807.614	28025
807.756	27983
807.898	27869
808.04	27918
808.182	27835
808.324	27838
808.465	27956
808.607	28196
808.749	28238
808.891	28375
809.033	28318
809.174	28421
809.316	28173
809.458	28128
809.6	28215
809.741	28348
809.883	28401
810.025	28565
810.166	28519
810.308	28615
810.45	28516
810.591	28596
810.733	28238
810.875	28352
811.016	28188
811.158	28185
811.299	28291
811.441	28382
811.582	28592
811.724	28329
811.865	28234
812.007	28291
812.148	28436
812.29	28375
812.431	28531
812.573	28577
812.714	28710
812.855	28797
812.997	28968
813.138	28980
813.279	28869
813.421	28759
813.562	28744
813.703	28618
813.845	28561
813.986	28261
814.127	27972
814.268	28067
814.41	28032
814.551	28025
814.692	28109
814.833	28032
814.974	27899
815.115	27930
815.256	27842
815.397	27899
815.539	27892
815.68	27865
815.821	27656
815.962	27724
816.103	27793
816.244	27656
816.385	27549
816.526	27572
816.666	27401
816.807	27306
816.948	27298
817.089	27291
817.23	27222
817.371	27260
817.512	27093
817.653	27275
817.793	27154
817.934	27142
818.075	27329
818.216	27374
818.356	27241
818.497	27161
818.638	26971
818.778	27009
818.919	27051
819.06	27131
819.2	27123
819.341	27222
819.481	27237
819.622	27545
819.762	27515
819.903	27466
820.043	27287
820.184	27374
820.324	27469
820.465	27439
820.605	27359
820.746	27344
820.886	27302
821.026	27195
821.167	27211
821.307	27397
821.447	27237
821.588	27188
821.728	27233
821.868	26944
822.008	26716
822.149	26804
822.289	26811
822.429	26571
822.569	26412
822.709	26431
822.849	26210
822.99	26248
823.13	26191
823.27	26149
823.41	26210
823.55	25974
823.69	26046
823.83	26092
823.97	26100
824.11	25887
824.25	25860
824.389	25871
824.529	26008
824.669	25970
824.809	26065
824.949	26050
825.089	25974
825.228	25818
825.368	25647
825.508	25677
825.648	25723
825.787	25662
825.927	25799
826.067	25731
826.206	25674
826.346	25795
826.485	25799
826.625	25738
826.765	25753
826.904	25765
827.044	25601
827.183	25537
827.323	25403
827.462	25415
827.601	25320
827.741	25453
827.88	25445
828.02	25400
828.159	25426
828.298	25400
828.437	25457
828.577	25438
828.716	25464
828.855	25384
828.994	25129
829.134	25099
829.273	25065
829.412	25164
829.551	25061
829.69	25099
829.829	25160
829.968	25244
830.107	25148
830.246	25278
830.385	25057
830.524	24954
830.663	25065
830.802	24791
830.941	24760
831.08	24639
831.219	24779
831.357	24825
831.496	25012
831.635	24707
831.774	24665
831.913	24692
832.051	24528
832.19	24544
832.329	24517
832.467	24410
832.606	24319
832.744	24433
832.883	24483
833.022	24490
833.16	24407
833.299	24593
833.437	24391
833.576	24528
833.714	24315
833.852	24509
833.991	24608
834.129	24654
834.267	24589
834.406	24494
834.544	24460
834.682	24475
834.821	24464
834.959	24711
835.097	24433
835.235	24509
835.373	24445
835.511	24433
835.65	24441
835.788	24407
835.926	24235
836.064	24030
836.202	24155
836.34	24346
836.478	24384
836.615	24182
836.753	24361
836.891	24426
837.029	24315
837.167	24209
837.305	24224
837.443	24270
837.58	24057
837.718	24197
837.856	24087
837.993	24045
838.131	24087
838.269	24022
838.406	24144
838.544	23927
838.681	23783
838.819	23741
838.956	23707
839.094	23691
839.231	23646
839.369	23714
839.506	24030
839.643	23824
839.781	23455
839.918	23448
840.055	23554
840.193	23516
840.33	23581
840.467	23535
840.604	23486
840.742	23775
840.879	23261
841.016	23425
841.153	23501
841.29	23581
841.427	23452
841.564	23490
841.701	23596
841.838	23467
841.975	23326
842.112	23356
842.249	23280
842.385	23231
842.522	23383
842.659	23406
842.796	23090
842.933	23242
843.069	23181
843.206	23250
843.343	23269
843.479	23261
843.616	23162
843.752	22972
843.889	23048
844.025	23162
844.162	23128
844.298	23117
844.435	23090
844.571	22839
844.708	23060
844.844	23246
844.98	23208
845.117	23204
845.253	23033
845.389	22877
845.525	22858
845.661	22752
845.798	22740
845.934	22733
846.07	22824
846.206	22805
846.342	22858
846.478	22694
846.614	22455
846.75	22459
846.886	22573
847.022	22504
847.158	22519
847.294	22516
847.429	22504
847.565	22428
847.701	22831
847.837	22185
847.972	22192
848.108	22280
848.244	22280
848.379	22215
848.515	22109
848.65	22074
848.786	22032
848.921	22059
849.057	22128
849.192	22181
849.328	22112
849.463	22105
849.598	22093
849.734	21895
849.869	21857
850.004	21827
850.14	21892
850.275	21991
850.41	21720
850.545	21743
850.68	21857
850.815	21941
850.95	21781
851.085	22036
851.22	21838
851.355	21972
851.49	22025
851.625	21774
851.76	21835
851.895	21781
852.03	21781
852.165	21850
852.299	21850
852.434	22048
852.569	21888
852.703	21846
852.838	21926
852.973	21953
853.107	21941
853.242	21831
853.376	21675
853.511	21667
853.645	21564
853.78	21705
853.914	21675
854.048	21587
854.183	21743
854.317	21736
854.451	21808
854.585	21595
854.72	21682
854.854	21720
854.988	21629
855.122	21720
855.256	21561
855.39	21549
855.524	21793
855.658	21679
855.792	21618
855.926	21599
856.06	21728
856.194	21747
856.327	21641
856.461	21591
856.595	21538
856.729	21641
856.862	21717
856.996	21614
857.13	21694
857.263	21732
857.397	21774
857.53	21641
857.664	21686
857.797	21713
857.931	21781
858.064	21660
858.197	21751
858.331	21644
858.464	21557
858.597	21469
858.731	21614
858.864	21610
858.997	21641
859.13	21701
859.263	21641
859.396	21812
859.529	21629
859.662	21682
859.795	21709
859.928	21591
860.061	21732
860.194	21915
860.327	21762
860.46	21663
860.592	21781
860.725	21797
860.858	21755
860.99	21606
861.123	21553
861.256	21694
861.388	21564
861.521	22207
861.653	21580
861.786	21534
861.918	21549
862.05	21511
862.183	21511
862.315	21580
862.447	21663
862.58	21591
862.712	21393
862.844	21386
862.976	21511
863.108	21401
863.24	21781
863.372	21374
863.504	21332
863.636	21310
863.768	21348
863.9	21355
864.032	21363
864.164	21332
864.296	21348
864.428	21435
864.559	21469
864.691	21519
864.823	21340
864.954	21294
865.086	21321
865.217	21127
865.349	21211
865.48	21260
865.612	21302
865.743	21275
865.875	21272
866.006	21188
866.137	21268
866.269	21173
866.4	21268
866.531	21245
866.662	21192
866.793	21207
866.924	21195
867.055	21249
867.186	21150
867.317	21138
867.448	21089
867.579	21184
867.71	21036
867.841	20982
867.972	21268
868.103	21199
868.233	21180
868.364	21218
868.495	21321
868.625	21416
868.756	21393
868.886	21329
869.017	21359
869.147	21488
869.278	21485
869.408	21473
869.539	21431
869.669	21538
869.799	21428
869.929	21496
870.06	21614
870.19	21736
870.32	21576
870.45	21831
870.58	21739
870.71	21956
870.84	21930
870.97	21800
871.1	21720
871.23	21869
871.36	22006
871.489	21888
871.619	21907
871.749	21922
871.879	22036
872.008	22143
872.138	22002
872.267	22086
872.397	21918
872.526	21819
872.656	21854
872.785	21873
872.915	22017
873.044	22147
873.173	21968
873.303	22086
873.432	22059
873.561	22173
873.69	21975
873.819	22131
873.948	22086
874.077	22006
874.206	22036
874.335	22074
874.464	22109
874.593	22303
874.722	22131
874.851	22413
874.979	22230
875.108	22242
875.237	22219
875.365	22211
875.494	22177
875.623	22226
875.751	22162
875.88	22367
876.008	22318
876.136	22341
876.265	22634
876.393	22740
876.521	22786
876.65	22672
876.778	22596
876.906	22550
877.034	22512
877.162	22687
877.29	22459
877.418	22675
877.546	22580
877.674	22694
877.802	22596
877.93	22618
878.058	22561
878.185	22470
878.313	22459
878.441	22588
878.568	22382
878.696	22512
878.824	22634
878.951	22615
879.079	22740
879.206	22892
879.333	22729
879.461	22744
879.588	22790
879.715	22752
879.842	22930
879.97	22645
880.097	22390
880.224	22344
880.351	22447
880.478	22352
880.605	22421
880.732	22535
880.859	22588
880.986	22436
881.112	22489
881.239	22314
881.366	22124
881.493	22105
881.619	22067
881.746	21979
881.872	21907
881.999	21930
882.125	21854
882.252	22021
882.378	21911
882.505	21918
882.631	21835
882.757	21557
882.883	21694
883.01	21755
883.136	21545
883.262	21633
883.388	21496
883.514	21633
883.64	21644
883.766	21675
883.892	21511
884.018	21599
884.143	21568
884.269	21682
884.395	21374
884.52	21313
884.646	21435
884.772	21412
884.897	21207
885.023	21336
885.148	21351
885.274	21477
885.399	21325
885.524	21401
885.65	21355
885.775	21249
885.9	21393
886.025	21351
886.15	21378
886.275	21348
886.4	21329
886.525	21408
886.65	21157
886.775	21150
886.9	21435
887.025	21526
887.149	21211
887.274	21062
887.399	21173
887.523	21051
887.648	21085
887.773	21024
887.897	21207
888.021	21127
888.146	21028
888.27	21104
888.395	21157
888.519	21116
888.643	21230
888.767	21089
888.891	20944
889.015	20834
889.139	20948
889.263	20758
889.387	21024
889.511	21028
889.635	21058
889.759	20792
889.883	20853
890.006	20826
890.13	20925
890.254	20868
890.377	20838
890.501	20541
890.624	20636
890.748	20636
890.871	20427
890.995	20286
891.118	20511
891.241	20415
891.364	20522
891.488	20590
891.611	20465
891.734	20465
891.857	20473
891.98	20393
892.103	20526
892.226	20575
892.349	20309
892.471	20328
892.594	20434
892.717	20362
892.839	20324
892.962	20473
893.085	20400
893.207	20374
893.33	20202
893.452	20347
893.575	20396
893.697	20240
893.819	20503
893.941	20465
894.064	20377
894.186	20408
894.308	20301
894.43	20366
894.552	20408
894.674	20347
894.796	20328
894.918	20210
895.04	20294
895.161	20434
895.283	20256
895.405	20298
895.526	20263
895.648	20404
895.769	20366
895.891	20385
896.012	20267
896.134	20446
896.255	20408
896.376	20301
896.498	20317
896.619	20366
896.74	20336
896.861	20450
896.982	20705
897.103	20792
897.224	20575
897.345	20632
897.466	20465
897.587	20636
897.708	20724
897.828	20606
897.949	20549
898.07	20366
898.19	20423
898.311	20731
898.431	20492
898.552	20530
898.672	20533
898.792	20651
898.913	20514
899.033	20454
899.153	20438
899.273	20267
899.393	20317
899.513	20404
899.633	20347
899.753	20271
899.873	20240
899.993	20248
900.113	20191
900.232	20332
900.352	20252
900.472	20111
900.591	19936
900.711	20134
900.83	20043
900.95	20122
901.069	20130
901.189	19978
901.308	19753
901.427	19738
901.546	19761
901.665	19639
901.784	19666
901.904	19400
902.023	19381
902.141	19209
902.26	19156
902.379	19274
902.498	19069
902.617	19145
902.735	19168
902.854	19107
902.973	19084
903.091	18947
903.21	18905
903.328	18859
903.446	18840
903.565	18635
903.683	18669
903.801	18593
903.919	18646
904.038	18658
904.156	18414
904.274	18460
904.392	18407
904.51	18395
904.627	18334
904.745	18486
904.863	18464
904.981	18121
905.098	18041
905.216	18095
905.334	18102
905.451	18159
905.569	18079
905.686	18110
905.803	18083
905.921	17866
906.038	17863
906.155	17923
906.272	17745
906.389	17813
906.506	17585
906.623	17535
906.74	17619
906.857	17547
906.974	17570
907.091	17707
907.208	17634
907.324	17699
907.441	17421
907.557	17448
907.674	17448
907.79	17261
907.907	17349
908.023	17341
908.139	17318
908.256	17181
908.372	17128
908.488	17147
908.604	17151
908.72	17056
908.836	16908
908.952	16980
909.068	17086
909.184	17189
909.3	17090
909.415	17083
909.531	17033
909.647	16793
909.762	16729
909.878	16843
909.993	16774
910.108	16675
910.224	16790
910.339	16767
910.454	16481
910.57	16618
910.685	16508
910.8	16801
910.915	16748
911.03	16508
911.145	16402
911.259	16348
911.374	16314
911.489	16287
911.604	16192
911.718	16078
911.833	16071
911.947	16002
912.062	15880
912.176	15945
912.291	16063
912.405	15964
912.519	16185
912.633	16219
912.748	16010
912.862	15991
912.976	15945
913.09	15766
913.204	15816
913.318	15854
913.431	16032
913.545	15983
913.659	16040
913.772	15941
913.886	15637
914	15679
914.113	15747
914.226	15701
914.34	15831
914.453	15549
914.566	15641
914.68	15587
914.793	15622
914.906	15264
915.019	15252
915.132	15180
915.245	15298
915.358	15317
915.47	15214
915.583	15321
915.696	15287
915.809	15424
915.921	15485
916.034	15237
916.146	15256
916.259	15097
916.371	15298
916.483	15211
916.595	15074
916.708	15131
916.82	15108
916.932	15150
917.044	15097
917.156	15066
917.268	14895
917.38	14929
917.491	14876
917.603	14906
917.715	15051
917.826	14982
917.938	14887
918.049	14746
918.161	14804
918.272	15013
918.384	15070
918.495	14861
918.606	14640
918.717	14610
918.828	14823
918.939	14788
919.05	14560
919.161	14689
919.272	14598
919.383	14594
919.494	14689
919.604	14891
919.715	14579
919.826	14587
919.936	14670
920.047	14670
920.157	14693
920.267	14906
920.378	14655
920.488	14503
920.598	14830
920.708	14994
920.818	14708
920.928	14796
921.038	14864
921.148	14823
921.258	14594
921.368	14541
921.477	14366
921.587	14324
921.697	14229
921.806	14393
921.916	14168
922.025	13993
922.134	13917
922.244	14027
922.353	14031
922.462	13917
922.571	13849
922.68	13689
922.789	13643
922.898	13529
923.007	13609
923.116	13651
923.224	13636
923.333	13590
923.442	13499
923.55	13518
923.659	13460
923.767	13521
923.876	13438
923.984	13518
924.092	13381
924.201	13396
924.309	13422
924.417	13365
924.525	13324
924.633	13247
924.741	14084
924.849	13107
924.956	13304
925.064	13084
925.172	13103
925.279	13046
925.387	13053
925.494	13129
925.602	13228
925.709	13122
925.816	13008
925.924	13053
926.031	13008
926.138	12973
926.245	13031
926.352	12932
926.459	13034
926.566	13061
926.673	12859
926.779	12734
926.886	12772
926.993	12578
927.099	12593
927.206	12555
927.312	12528
927.419	12654
927.525	12601
927.631	12726
927.737	12566
927.843	12441
927.95	12399
928.056	12422
928.162	12513
928.267	12540
928.373	13046
928.479	12426
928.585	12300
928.69	12437
928.796	12479
928.901	12300
929.007	12136
929.112	12304
929.218	12300
929.323	12186
929.428	12068
929.533	12224
929.638	12102
929.743	12053
929.848	12163
929.953	12129
930.058	12049
930.163	11866
930.267	11832
930.372	12007
930.477	11756
930.581	11984
930.685	11916
930.79	11691
930.894	11729
930.998	11718
931.103	11809
931.207	11482
931.311	11376
931.415	11330
931.519	11143
931.623	11094
