Data from test_V78500241_172.txt Node
Date: Fri Mar 25 15:11:03 CST 2022
User: usil
Spectrometer: V785-0024
Trigger mode: 0
Integration Time (sec): 4.000000E-1
Scans to average: 1
Nonlinearity correction enabled: false
Boxcar width: 0
Storing dark spectrum: false
XAxis mode: Wavelengths
Number of Pixels in Spectrum: 1024
>>>>>Begin Spectral Data<<<<<
801.071	27937
801.214	27899
801.356	27682
801.499	27644
801.641	27709
801.783	27637
801.926	27641
802.068	27408
802.211	27477
802.353	27260
802.496	27165
802.638	27264
802.78	27131
802.923	27135
803.065	27066
803.208	27074
803.35	27047
803.492	27112
803.635	27214
803.777	27211
803.919	27310
804.061	27591
804.204	27184
804.346	27188
804.488	27176
804.63	27047
804.773	27047
804.915	27355
805.057	27180
805.199	27180
805.341	27157
805.483	27272
805.626	27344
805.768	27249
805.91	27226
806.052	27279
806.194	27272
806.336	27538
806.478	27233
806.62	27214
806.762	27374
806.904	27450
807.046	27736
807.188	27682
807.33	27732
807.472	27679
807.614	27564
807.756	27606
807.898	27542
808.04	27542
808.182	27515
808.324	27469
808.465	27576
808.607	27709
808.749	27846
808.891	27873
809.033	27930
809.174	27934
809.316	27926
809.458	27895
809.6	27755
809.741	27808
809.883	27892
810.025	28093
810.166	28044
810.308	27998
810.45	27953
810.591	27968
810.733	27842
810.875	27930
811.016	27667
811.158	27838
811.299	27774
811.441	27953
811.582	27892
811.724	27846
811.865	27793
812.007	27690
812.148	27846
812.29	27816
812.431	27930
812.573	28002
812.714	28105
812.855	28265
812.997	28440
813.138	28337
813.279	28379
813.421	28337
813.562	28265
813.703	28116
813.845	28010
813.986	27778
814.127	27515
814.268	27443
814.41	27386
814.551	27439
814.692	27412
814.833	27199
814.974	27252
815.115	27378
815.256	27207
815.397	27226
815.539	27096
815.68	27165
815.821	27146
815.962	27241
816.103	27165
816.244	27028
816.385	26967
816.526	26925
816.666	26632
816.807	26522
816.948	26568
817.089	26720
817.23	26609
817.371	26602
817.512	26526
817.653	26686
817.793	26663
817.934	26492
818.075	26651
818.216	26511
818.356	26434
818.497	26374
818.638	26324
818.778	26347
818.919	26221
819.06	26362
819.2	26377
819.341	26484
819.481	26564
819.622	26530
819.762	26785
819.903	26746
820.043	26587
820.184	26667
820.324	26640
820.465	26682
820.605	26590
820.746	26708
820.886	26457
821.026	26571
821.167	26511
821.307	26549
821.447	26507
821.588	26358
821.728	26343
821.868	26077
822.008	25906
822.149	25849
822.289	25909
822.429	25715
822.569	25464
822.709	25529
822.849	25464
822.99	25597
823.13	25388
823.27	25225
823.41	25187
823.55	25141
823.69	25050
823.83	25270
823.97	25228
824.11	25107
824.25	25076
824.389	25038
824.529	25122
824.669	25004
824.809	25099
824.949	25137
825.089	25190
825.228	24954
825.368	24913
825.508	24954
825.648	24909
825.787	24920
825.927	24745
826.067	24741
826.206	24829
826.346	24909
826.485	24776
826.625	24810
826.765	24875
826.904	24951
827.044	24563
827.183	24570
827.323	24498
827.462	24483
827.601	24521
827.741	24566
827.88	24540
828.02	24350
828.159	24494
828.298	24494
828.437	24574
828.577	24505
828.716	24566
828.855	24433
828.994	24239
829.134	24213
829.273	24357
829.412	24045
829.551	24098
829.69	24102
829.829	24213
829.968	24209
830.107	24171
830.246	24144
830.385	24102
830.524	24057
830.663	24022
830.802	23889
830.941	23764
831.08	23707
831.219	23840
831.357	23851
831.496	23965
831.635	23653
831.774	23699
831.913	23558
832.051	23531
832.19	23600
832.329	23573
832.467	23436
832.606	23379
832.744	23368
832.883	23387
833.022	23383
833.16	23299
833.299	23455
833.437	23410
833.576	23539
833.714	23258
833.852	23589
833.991	23649
834.129	23581
834.267	23383
834.406	23455
834.544	23402
834.682	23429
834.821	23406
834.959	23562
835.097	23269
835.235	23531
835.373	23387
835.511	23429
835.65	23303
835.788	23258
835.926	23098
836.064	22987
836.202	23269
836.34	23311
836.478	23315
836.615	23227
836.753	23322
836.891	23322
837.029	23250
837.167	23246
837.305	23136
837.443	23227
837.58	23147
837.718	23208
837.856	23185
837.993	23079
838.131	23037
838.269	22968
838.406	22862
838.544	22885
838.681	22736
838.819	22725
838.956	22440
839.094	22561
839.231	22679
839.369	22790
839.506	22850
839.643	22702
839.781	22516
839.918	22382
840.055	22455
840.193	22451
840.33	22542
840.467	22440
840.604	22569
840.742	22683
840.879	22325
841.016	22379
841.153	22440
841.29	22478
841.427	22451
841.564	22447
841.701	22394
841.838	22474
841.975	22329
842.112	22382
842.249	22348
842.385	22166
842.522	22325
842.659	22337
842.796	22173
842.933	22204
843.069	22169
843.206	22204
843.343	22246
843.479	22150
843.616	22063
843.752	21953
843.889	21960
844.025	22017
844.162	21842
844.298	22017
844.435	21941
844.571	21804
844.708	22013
844.844	22051
844.98	21994
845.117	22010
845.253	21861
845.389	21808
845.525	21743
845.661	21819
845.798	21766
845.934	21675
846.07	21561
846.206	21595
846.342	21747
846.478	21766
846.614	21477
846.75	21405
846.886	21397
847.022	21477
847.158	21397
847.294	21344
847.429	21424
847.565	21230
847.701	21679
847.837	21112
847.972	21123
848.108	21116
848.244	21199
848.379	20906
848.515	20963
848.65	20960
848.786	20941
848.921	20986
849.057	21013
849.192	21017
849.328	20960
849.463	20982
849.598	20868
849.734	20804
849.869	20811
850.004	20716
850.14	20606
850.275	20773
850.41	20693
850.545	20579
850.68	20579
850.815	20864
850.95	20727
851.085	20872
851.22	20788
851.355	20701
851.49	20556
851.625	20625
851.76	20670
851.895	20617
852.03	20488
852.165	20701
852.299	20716
852.434	20727
852.569	20720
852.703	20625
852.838	20739
852.973	20883
853.107	20754
853.242	20522
853.376	20511
853.511	20370
853.645	20571
853.78	20632
853.914	20507
854.048	20518
854.183	20362
854.317	20522
854.451	20640
854.585	20465
854.72	20313
854.854	20530
854.988	20336
855.122	20476
855.256	20347
855.39	20556
855.524	20556
855.658	20514
855.792	20526
855.926	20530
856.06	20522
856.194	20503
856.327	20560
856.461	20495
856.595	20400
856.729	20408
856.862	20617
856.996	20461
857.13	20545
857.263	20571
857.397	20499
857.53	20442
857.664	20579
857.797	20476
857.931	20461
858.064	20564
858.197	20530
858.331	20469
858.464	20446
858.597	20412
858.731	20434
858.864	20431
858.997	20336
859.13	20355
859.263	20514
859.396	20511
859.529	20362
859.662	20324
859.795	20473
859.928	20396
860.061	20465
860.194	20678
860.327	20396
860.46	20518
860.592	20434
860.725	20571
860.858	20556
860.99	20415
861.123	20244
861.256	20248
861.388	20495
861.521	21127
861.653	20374
861.786	20214
861.918	20358
862.05	20419
862.183	20389
862.315	20381
862.447	20606
862.58	20324
862.712	20180
862.844	20153
862.976	20210
863.108	20054
863.24	20549
863.372	20145
863.504	20126
863.636	20107
863.768	20122
863.9	20138
864.032	20100
864.164	20100
864.296	20145
864.428	20183
864.559	20248
864.691	20115
864.823	20088
864.954	20046
865.086	20119
865.217	20027
865.349	20020
865.48	20134
865.612	20180
865.743	20005
865.875	20020
866.006	19917
866.137	20062
866.269	20065
866.4	20081
866.531	19989
866.662	20005
866.793	19993
866.924	19955
867.055	20005
867.186	19967
867.317	19940
867.448	19826
867.579	19963
867.71	19963
867.841	19890
867.972	19921
868.103	20001
868.233	20039
868.364	19902
868.495	20126
868.625	20096
868.756	20278
868.886	20161
869.017	20225
869.147	20259
869.278	20351
869.408	20202
869.539	20176
869.669	20221
869.799	20298
869.929	20393
870.06	20374
870.19	20507
870.32	20537
870.45	20522
870.58	20632
870.71	20701
870.84	20705
870.97	20583
871.1	20609
871.23	20823
871.36	20796
871.489	20670
871.619	20807
871.749	20769
871.879	20815
872.008	20967
872.138	20838
872.267	20735
872.397	20667
872.526	20659
872.656	20495
872.785	20800
872.915	20868
873.044	20823
873.173	20746
873.303	20876
873.432	20838
873.561	20952
873.69	20921
873.819	20750
873.948	20952
874.077	20743
874.206	20739
874.335	20887
874.464	20998
874.593	20925
874.722	21036
874.851	21047
874.979	21116
875.108	21116
875.237	21085
875.365	20960
875.494	21070
875.623	21180
875.751	21142
875.88	21051
876.008	21329
876.136	21264
876.265	21420
876.393	21648
876.521	21561
876.65	21538
876.778	21523
876.906	21367
877.034	21523
877.162	21454
877.29	21294
877.418	21401
877.546	21412
877.674	21401
877.802	21564
877.93	21348
878.058	21336
878.185	21416
878.313	21428
878.441	21378
878.568	21279
878.696	21428
878.824	21458
878.951	21481
879.079	21542
879.206	21656
879.333	21538
879.461	21564
879.588	21690
879.715	21606
879.842	21690
879.97	21511
880.097	21249
880.224	21214
880.351	21207
880.478	21165
880.605	21260
880.732	21287
880.859	21591
880.986	21302
881.112	21169
881.239	21066
881.366	21062
881.493	20967
881.619	20815
881.746	20765
881.872	20895
881.999	20781
882.125	20826
882.252	20876
882.378	20914
882.505	20952
882.631	20720
882.757	20476
882.883	20667
883.01	20708
883.136	20537
883.262	20503
883.388	20366
883.514	20583
883.64	20678
883.766	20549
883.892	20393
884.018	20431
884.143	20606
884.269	20587
884.395	20332
884.52	20244
884.646	20252
884.772	20180
884.897	20103
885.023	20275
885.148	20400
885.274	20362
885.399	20355
885.524	20328
885.65	20161
885.775	20252
885.9	20157
886.025	20240
886.15	20320
886.275	20065
886.4	20065
886.525	20317
886.65	20107
886.775	20031
886.9	20298
887.025	20290
887.149	20210
887.274	19940
887.399	19963
887.523	20039
887.648	20020
887.773	19909
887.897	20103
888.021	19902
888.146	20043
888.27	20031
888.395	20122
888.519	20126
888.643	19967
888.767	20088
888.891	19807
889.015	19772
889.139	19860
889.263	19719
889.387	19753
889.511	19944
889.635	19894
889.759	19742
889.883	19826
890.006	19746
890.13	19788
890.254	19719
890.377	19757
890.501	19529
890.624	19495
890.748	19506
890.871	19331
890.995	19324
891.118	19217
891.241	19434
891.364	19411
891.488	19434
891.611	19422
891.734	19377
891.857	19293
891.98	19422
892.103	19449
892.226	19369
892.349	19324
892.471	19091
892.594	19171
892.717	19270
892.839	19266
892.962	19244
893.085	19297
893.207	19320
893.33	19183
893.452	19175
893.575	19362
893.697	19278
893.819	19457
893.941	19430
894.064	19365
894.186	19240
894.308	19156
894.43	19388
894.552	19419
894.674	19350
894.796	19228
894.918	19312
895.04	19206
895.161	19335
895.283	19316
895.405	19270
895.526	19240
895.648	19110
895.769	19324
895.891	19320
896.012	19388
896.134	19346
896.255	19377
896.376	19285
896.498	19381
896.619	19411
896.74	19266
896.861	19457
896.982	19738
897.103	19818
897.224	19552
897.345	19601
897.466	19502
897.587	19613
897.708	19613
897.828	19708
897.949	19556
898.07	19476
898.19	19586
898.311	19605
898.431	19571
898.552	19510
898.672	19635
898.792	19453
898.913	19616
899.033	19514
899.153	19278
899.273	19301
899.393	19308
899.513	19331
899.633	19365
899.753	19259
899.873	19179
899.993	19403
900.113	19179
900.232	19304
900.352	19255
900.472	19126
900.591	19019
900.711	19156
900.83	19084
900.95	19228
901.069	19164
901.189	19012
901.308	18730
901.427	18730
901.546	18707
901.665	18764
901.784	18677
901.904	18566
902.023	18452
902.141	18334
902.26	18334
902.379	18308
902.498	18178
902.617	18254
902.735	18224
902.854	18140
902.973	18171
903.091	17954
903.21	17847
903.328	17893
903.446	17847
903.565	17714
903.683	17653
903.801	17615
903.919	17668
904.038	17581
904.156	17474
904.274	17551
904.392	17406
904.51	17421
904.627	17478
904.745	17444
904.863	17512
904.981	17246
905.098	17124
905.216	17151
905.334	17220
905.451	17223
905.569	17197
905.686	17235
905.803	17155
905.921	16896
906.038	17033
906.155	16972
906.272	16835
906.389	16786
906.506	16630
906.623	16660
906.74	16687
906.857	16573
906.974	16512
907.091	16805
907.208	16892
907.324	16729
907.441	16679
907.557	16402
907.674	16322
907.79	16246
907.907	16382
908.023	16333
908.139	16333
908.256	16303
908.372	16314
908.488	16154
908.604	16154
908.72	16109
908.836	16051
908.952	16101
909.068	16109
909.184	16242
909.3	16002
909.415	16082
909.531	16116
909.647	15823
909.762	15827
909.878	15747
909.993	15739
910.108	15720
910.224	15660
910.339	15622
910.454	15652
910.57	15591
910.685	15526
910.8	15785
910.915	15766
911.03	15504
911.145	15431
911.259	15378
911.374	15466
911.489	15355
911.604	15112
911.718	15104
911.833	15207
911.947	15020
912.062	14952
912.176	15085
912.291	15055
912.405	15062
912.519	15359
912.633	15249
912.748	15241
912.862	15135
912.976	14944
913.09	14845
913.204	14842
913.318	14952
913.431	15043
913.545	14918
913.659	15032
913.772	14857
913.886	14712
914	14651
914.113	14868
914.226	14880
914.34	14777
914.453	14701
914.566	14838
914.68	14632
914.793	14587
914.906	14393
915.019	14377
915.132	14377
915.245	14400
915.358	14396
915.47	14351
915.583	14412
915.696	14366
915.809	14355
915.921	14602
916.034	14343
916.146	14328
916.259	14313
916.371	14389
916.483	14358
916.595	14301
916.708	14240
916.82	14119
916.932	14199
917.044	14115
917.156	14202
917.268	14115
917.38	14065
917.491	13917
917.603	14001
917.715	14225
917.826	14054
917.938	13978
918.049	13936
918.161	13909
918.272	14111
918.384	14172
918.495	14005
918.606	13940
918.717	13753
918.828	13807
918.939	13837
919.05	13791
919.161	13712
919.272	13658
919.383	13693
919.494	13871
919.604	13940
919.715	13856
919.826	13788
919.936	13765
920.047	13894
920.157	13879
920.267	14008
920.378	13814
920.488	13753
920.598	14084
920.708	14119
920.818	13845
920.928	13898
921.038	14008
921.148	14046
921.258	13757
921.368	13533
921.477	13480
921.587	13548
921.697	13419
921.806	13537
921.916	13403
922.025	13194
922.134	13198
922.244	13061
922.353	13141
922.462	13008
922.571	12943
922.68	12837
922.789	12787
922.898	12833
923.007	12722
923.116	12833
923.224	12821
923.333	12779
923.442	12677
923.55	12604
923.659	12760
923.767	12673
923.876	12597
923.984	12722
924.092	12498
924.201	12574
924.309	12673
924.417	12536
924.525	12445
924.633	12509
924.741	13335
924.849	12350
924.956	12433
925.064	12277
925.172	12205
925.279	12342
925.387	12323
925.494	12334
925.602	12433
925.709	12254
925.816	12266
925.924	12304
926.031	12270
926.138	12254
926.245	12243
926.352	12159
926.459	12213
926.566	12228
926.673	12186
926.779	12125
926.886	12110
926.993	11836
927.099	11863
927.206	11794
927.312	11840
927.419	11901
927.525	11889
927.631	11942
927.737	11786
927.843	11764
927.95	11668
928.056	11684
928.162	11680
928.267	11843
928.373	12239
928.479	11817
928.585	11543
928.69	11615
928.796	11619
928.901	11539
929.007	11341
929.112	11573
929.218	11535
929.323	11516
929.428	11444
929.533	11551
929.638	11280
929.743	11353
929.848	11429
929.953	11315
930.058	11345
930.163	11181
930.267	11151
930.372	11231
930.477	11109
930.581	11406
930.685	11212
930.79	11045
930.894	11086
930.998	11022
931.103	11143
931.207	10687
931.311	10771
931.415	10615
931.519	10424
931.623	10413
