Data from test_V78500241_564.txt Node
Date: Fri Mar 25 15:13:47 CST 2022
User: usil
Spectrometer: V785-0024
Trigger mode: 0
Integration Time (sec): 4.000000E-1
Scans to average: 1
Nonlinearity correction enabled: false
Boxcar width: 0
Storing dark spectrum: false
XAxis mode: Wavelengths
Number of Pixels in Spectrum: 1024
>>>>>Begin Spectral Data<<<<<
801.071	26861
801.214	26708
801.356	26453
801.499	26522
801.641	26301
801.783	26309
801.926	26446
802.068	26385
802.211	26164
802.353	26088
802.496	26069
802.638	25940
802.78	25970
802.923	26016
803.065	26039
803.208	25837
803.35	25947
803.492	26031
803.635	26039
803.777	26005
803.919	26035
804.061	26278
804.204	26084
804.346	25963
804.488	25959
804.63	26084
804.773	25966
804.915	26069
805.057	26191
805.199	26050
805.341	26191
805.483	26199
805.626	26161
805.768	26092
805.91	26119
806.052	26263
806.194	26176
806.336	26305
806.478	26176
806.62	26191
806.762	26290
806.904	26400
807.046	26670
807.188	26708
807.33	26476
807.472	26526
807.614	26564
807.756	26465
807.898	26568
808.04	26339
808.182	26366
808.324	26415
808.465	26518
808.607	26579
808.749	26693
808.891	26834
809.033	26933
809.174	26819
809.316	26861
809.458	26785
809.6	26785
809.741	26830
809.883	26918
810.025	27085
810.166	27009
810.308	27017
810.45	26960
810.591	26967
810.733	26811
810.875	26872
811.016	26659
811.158	26621
811.299	26902
811.441	27043
811.582	26857
811.724	26769
811.865	26678
812.007	26636
812.148	26670
812.29	26758
812.431	26956
812.573	26975
812.714	27157
812.855	27370
812.997	27439
813.138	27492
813.279	27458
813.421	27332
813.562	27279
813.703	27123
813.845	26990
813.986	26625
814.127	26655
814.268	26427
814.41	26343
814.551	26366
814.692	26526
814.833	26423
814.974	26328
815.115	26366
815.256	26240
815.397	26347
815.539	26320
815.68	26164
815.821	26206
815.962	26256
816.103	26111
816.244	25936
816.385	25894
816.526	25982
816.666	25845
816.807	25712
816.948	25689
817.089	25947
817.23	25723
817.371	25655
817.512	25643
817.653	25605
817.793	25518
817.934	25597
818.075	25658
818.216	25639
818.356	25586
818.497	25544
818.638	25407
818.778	25502
818.919	25327
819.06	25529
819.2	25556
819.341	25635
819.481	25624
819.622	25715
819.762	25887
819.903	25852
820.043	25909
820.184	25852
820.324	25811
820.465	25959
820.605	25795
820.746	25700
820.886	25556
821.026	25582
821.167	25632
821.307	25750
821.447	25708
821.588	25586
821.728	25499
821.868	25293
822.008	25206
822.149	25080
822.289	25160
822.429	24821
822.569	24833
822.709	24856
822.849	24665
822.99	24692
823.13	24532
823.27	24639
823.41	24334
823.55	24296
823.69	24528
823.83	24509
823.97	24369
824.11	24308
824.25	24273
824.389	24220
824.529	24350
824.669	24353
824.809	24323
824.949	24521
825.089	24292
825.228	24346
825.368	24106
825.508	24273
825.648	24228
825.787	24296
825.927	24136
826.067	24076
826.206	24106
826.346	24262
826.485	24174
826.625	24091
826.765	24243
826.904	24186
827.044	23897
827.183	23916
827.323	23847
827.462	23893
827.601	23764
827.741	23691
827.88	23904
828.02	23756
828.159	23855
828.298	23836
828.437	23889
828.577	23923
828.716	24018
828.855	23802
828.994	23668
829.134	23623
829.273	23600
829.412	23600
829.551	23493
829.69	23577
829.829	23547
829.968	23680
830.107	23608
830.246	23657
830.385	23528
830.524	23512
830.663	23406
830.802	23265
830.941	23200
831.08	23220
831.219	23269
831.357	23280
831.496	23391
831.635	23181
831.774	23121
831.913	23090
832.051	22892
832.19	22991
832.329	22968
832.467	22980
832.606	22850
832.744	22801
832.883	22885
833.022	22725
833.16	22858
833.299	22957
833.437	22972
833.576	22885
833.714	22953
833.852	23006
833.991	22934
834.129	23056
834.267	23083
834.406	22984
834.544	23064
834.682	22972
834.821	22934
834.959	23052
835.097	22866
835.235	23014
835.373	22885
835.511	22946
835.65	22683
835.788	22782
835.926	22702
836.064	22611
836.202	22565
836.34	22782
836.478	22946
836.615	22858
836.753	22828
836.891	22934
837.029	22908
837.167	22702
837.305	22675
837.443	22615
837.58	22577
837.718	22607
837.856	22672
837.993	22485
838.131	22626
838.269	22424
838.406	22584
838.544	22493
838.681	22352
838.819	22306
838.956	22093
839.094	21979
839.231	22070
839.369	22284
839.506	22500
839.643	22303
839.781	22044
839.918	22101
840.055	22219
840.193	22055
840.33	22051
840.467	22036
840.604	22059
840.742	22299
840.879	21873
841.016	22032
841.153	21930
841.29	22128
841.427	22101
841.564	22063
841.701	21994
841.838	22063
841.975	21869
842.112	21991
842.249	21850
842.385	21698
842.522	22021
842.659	21895
842.796	21743
842.933	21888
843.069	21713
843.206	21884
843.343	21895
843.479	21770
843.616	21819
843.752	21549
843.889	21637
844.025	21675
844.162	21557
844.298	21606
844.435	21637
844.571	21667
844.708	21663
844.844	21861
844.98	21675
845.117	21728
845.253	21534
845.389	21454
845.525	21511
845.661	21473
845.798	21367
845.934	21348
846.07	21264
846.206	21272
846.342	21439
846.478	21287
846.614	21108
846.75	20990
846.886	21028
847.022	21043
847.158	21116
847.294	20990
847.429	20967
847.565	21039
847.701	21287
847.837	20781
847.972	20781
848.108	20861
848.244	20773
848.379	20682
848.515	20667
848.65	20754
848.786	20636
848.921	20682
849.057	20762
849.192	20830
849.328	20708
849.463	20670
849.598	20697
849.734	20575
849.869	20434
850.004	20385
850.14	20431
850.275	20385
850.41	20275
850.545	20423
850.68	20351
850.815	20461
850.95	20476
851.085	20579
851.22	20511
851.355	20431
851.49	20351
851.625	20278
851.76	20370
851.895	20244
852.03	20355
852.165	20370
852.299	20461
852.434	20465
852.569	20370
852.703	20434
852.838	20492
852.973	20602
853.107	20560
853.242	20374
853.376	20332
853.511	20111
853.645	20278
853.78	20320
853.914	20256
854.048	20244
854.183	20199
854.317	20290
854.451	20454
854.585	20366
854.72	20252
854.854	20180
854.988	20259
855.122	20248
855.256	20088
855.39	20324
855.524	20366
855.658	20305
855.792	20240
855.926	20229
856.06	20248
856.194	20431
856.327	20244
856.461	20180
856.595	20202
856.729	20183
856.862	20415
856.996	20358
857.13	20446
857.263	20355
857.397	20358
857.53	20275
857.664	20366
857.797	20271
857.931	20431
858.064	20237
858.197	20301
858.331	20320
858.464	20199
858.597	20100
858.731	20157
858.864	20252
858.997	20187
859.13	20164
859.263	20240
859.396	20317
859.529	20233
859.662	20157
859.795	20324
859.928	20240
860.061	20381
860.194	20427
860.327	20313
860.46	20214
860.592	20389
860.725	20294
860.858	20396
860.99	20298
861.123	20138
861.256	20221
861.388	20157
861.521	21051
861.653	20134
861.786	20043
861.918	20081
862.05	20142
862.183	20206
862.315	20244
862.447	20149
862.58	20073
862.712	19955
862.844	19940
862.976	20005
863.108	20081
863.24	20328
863.372	19982
863.504	19940
863.636	19986
863.768	20031
863.9	20005
864.032	19963
864.164	19902
864.296	20073
864.428	20073
864.559	20039
864.691	19974
864.823	19986
864.954	20043
865.086	19860
865.217	19959
865.349	19795
865.48	19875
865.612	19993
865.743	20005
865.875	19909
866.006	19826
866.137	19936
866.269	19917
866.4	19894
866.531	19750
866.662	19693
866.793	19788
866.924	19753
867.055	19845
867.186	19799
867.317	19864
867.448	19791
867.579	19788
867.71	19750
867.841	19731
867.972	19807
868.103	19712
868.233	19841
868.364	19898
868.495	19890
868.625	20065
868.756	20058
868.886	19936
869.017	20084
869.147	20149
869.278	20252
869.408	20096
869.539	20172
869.669	20130
869.799	20176
869.929	20187
870.06	20233
870.19	20412
870.32	20278
870.45	20377
870.58	20457
870.71	20636
870.84	20674
870.97	20473
871.1	20514
871.23	20682
871.36	20678
871.489	20522
871.619	20568
871.749	20571
871.879	20629
872.008	20819
872.138	20648
872.267	20556
872.397	20549
872.526	20511
872.656	20587
872.785	20541
872.915	20609
873.044	20667
873.173	20617
873.303	20724
873.432	20712
873.561	20727
873.69	20861
873.819	20731
873.948	20735
874.077	20727
874.206	20613
874.335	20731
874.464	20659
874.593	20937
874.722	20914
874.851	20929
874.979	21009
875.108	20986
875.237	20857
875.365	20758
875.494	20941
875.623	21051
875.751	20788
875.88	20910
876.008	21093
876.136	21150
876.265	21374
876.393	21374
876.521	21454
876.65	21382
876.778	21294
876.906	21195
877.034	21329
877.162	21188
877.29	21275
877.418	21199
877.546	21344
877.674	21321
877.802	21226
877.93	21184
878.058	21252
878.185	21146
878.313	21264
878.441	21268
878.568	21173
878.696	21214
878.824	21230
878.951	21241
879.079	21382
879.206	21610
879.333	21477
879.461	21351
879.588	21450
879.715	21363
879.842	21526
879.97	21264
880.097	21085
880.224	21093
880.351	21123
880.478	21070
880.605	21070
880.732	21100
880.859	21351
880.986	21100
881.112	21157
881.239	21104
881.366	20876
881.493	20731
881.619	20758
881.746	20686
881.872	20720
881.999	20708
882.125	20712
882.252	20750
882.378	20644
882.505	20765
882.631	20533
882.757	20511
882.883	20560
883.01	20423
883.136	20332
883.262	20183
883.388	20237
883.514	20438
883.64	20571
883.766	20336
883.892	20278
884.018	20210
884.143	20476
884.269	20450
884.395	20180
884.52	20008
884.646	20081
884.772	19959
884.897	19974
885.023	20039
885.148	20214
885.274	20134
885.399	20130
885.524	20084
885.65	19967
885.775	20115
885.9	20107
886.025	20183
886.15	20103
886.275	20035
886.4	20062
886.525	19982
886.65	20012
886.775	20024
886.9	20065
887.025	20290
887.149	20134
887.274	19879
887.399	19757
887.523	19753
887.648	19841
887.773	19784
887.897	19852
888.021	19913
888.146	19712
888.27	20062
888.395	19833
888.519	19856
888.643	19879
888.767	19940
888.891	19769
889.015	19750
889.139	19693
889.263	19525
889.387	19696
889.511	19837
889.635	19807
889.759	19525
889.883	19700
890.006	19723
890.13	19750
890.254	19502
890.377	19540
890.501	19441
890.624	19392
890.748	19472
890.871	19339
890.995	19148
891.118	19213
891.241	19202
891.364	19213
891.488	19396
891.611	19244
891.734	19175
891.857	19225
891.98	19198
892.103	19297
892.226	19164
892.349	19107
892.471	19034
892.594	19160
892.717	19240
892.839	19190
892.962	19137
893.085	19251
893.207	19179
893.33	19012
893.452	19088
893.575	19198
893.697	19179
893.819	19297
893.941	19400
894.064	19343
894.186	19114
894.308	19065
894.43	19247
894.552	19289
894.674	19221
894.796	19027
894.918	19042
895.04	19027
895.161	19217
895.283	19209
895.405	19183
895.526	19091
895.648	19160
895.769	19156
895.891	19308
896.012	19324
896.134	19206
896.255	19308
896.376	19099
896.498	19217
896.619	19221
896.74	19225
896.861	19183
896.982	19422
897.103	19643
897.224	19419
897.345	19403
897.466	19373
897.587	19304
897.708	19506
897.828	19430
897.949	19324
898.07	19190
898.19	19266
898.311	19575
898.431	19308
898.552	19411
898.672	19419
898.792	19533
898.913	19487
899.033	19331
899.153	19247
899.273	19145
899.393	19175
899.513	19259
899.633	19091
899.753	19164
899.873	19103
899.993	19202
900.113	19259
900.232	19148
900.352	19133
900.472	19042
900.591	18966
900.711	19065
900.83	18878
900.95	18996
901.069	19008
901.189	18871
901.308	18566
901.427	18498
901.546	18601
901.665	18688
901.784	18570
901.904	18479
902.023	18433
902.141	18133
902.26	18224
902.379	18144
902.498	18049
902.617	18011
902.735	18117
902.854	17988
902.973	18041
903.091	17726
903.21	17783
903.328	17775
903.446	17638
903.565	17623
903.683	17562
903.801	17478
903.919	17558
904.038	17471
904.156	17318
904.274	17398
904.392	17356
904.51	17261
904.627	17387
904.745	17368
904.863	17353
904.981	17204
905.098	16995
905.216	16965
905.334	17006
905.451	17098
905.569	17064
905.686	17109
905.803	17048
905.921	16740
906.038	16854
906.155	16911
906.272	16717
906.389	16698
906.506	16645
906.623	16550
906.74	16561
906.857	16504
906.974	16485
907.091	16603
907.208	16721
907.324	16706
907.441	16535
907.557	16417
907.674	16272
907.79	16337
907.907	16348
908.023	16303
908.139	16188
908.256	16253
908.372	16131
908.488	16128
908.604	16105
908.72	16059
908.836	16013
908.952	15926
909.068	15994
909.184	16139
909.3	15975
909.415	16051
909.531	16032
909.647	15736
909.762	15747
909.878	15739
909.993	15755
910.108	15804
910.224	15739
910.339	15751
910.454	15667
910.57	15614
910.685	15549
910.8	15797
910.915	15667
911.03	15553
911.145	15412
911.259	15374
911.374	15294
911.489	15321
911.604	15245
911.718	15112
911.833	15085
911.947	15146
912.062	14868
912.176	15161
912.291	15116
912.405	15089
912.519	15317
912.633	15275
912.748	15089
912.862	15074
912.976	14895
913.09	14708
913.204	14887
913.318	14963
913.431	14994
913.545	15024
913.659	14921
913.772	14823
913.886	14811
914	14708
914.113	14792
914.226	14914
914.34	14842
914.453	14629
914.566	14750
914.68	14674
914.793	14564
914.906	14461
915.019	14412
915.132	14332
915.245	14366
915.358	14442
915.47	14377
915.583	14408
915.696	14412
915.809	14526
915.921	14469
916.034	14218
916.146	14206
916.259	14267
916.371	14381
916.483	14278
916.595	14176
916.708	14218
916.82	14119
916.932	14187
917.044	14210
917.156	14161
917.268	14111
917.38	14058
917.491	14062
917.603	14012
917.715	14073
917.826	14134
917.938	14035
918.049	13875
918.161	13936
918.272	14058
918.384	14081
918.495	14027
918.606	13864
918.717	13776
918.828	13807
918.939	13917
919.05	13731
919.161	13852
919.272	13677
919.383	13715
919.494	13845
919.604	14043
919.715	13818
919.826	13719
919.936	13818
920.047	13917
920.157	13784
920.267	13925
920.378	13799
920.488	13696
920.598	13947
920.708	14096
920.818	13989
920.928	13963
921.038	14126
921.148	14039
921.258	13757
921.368	13696
921.477	13540
921.587	13597
921.697	13449
921.806	13582
921.916	13396
922.025	13232
922.134	13278
922.244	13152
922.353	13270
922.462	13069
922.571	13050
922.68	12890
922.789	12928
922.898	12829
923.007	12814
923.116	12890
923.224	12833
923.333	12787
923.442	12738
923.55	12696
923.659	12677
923.767	12673
923.876	12658
923.984	12764
924.092	12563
924.201	12654
924.309	12665
924.417	12551
924.525	12593
924.633	12555
924.741	13282
924.849	12311
924.956	12525
925.064	12395
925.172	12232
925.279	12273
925.387	12273
925.494	12319
925.602	12391
925.709	12346
925.816	12292
925.924	12289
926.031	12330
926.138	12304
926.245	12251
926.352	12140
926.459	12384
926.566	12327
926.673	12216
926.779	12102
926.886	12022
926.993	11836
927.099	11870
927.206	11855
927.312	11851
927.419	11901
927.525	11851
927.631	11897
927.737	11760
927.843	11771
927.95	11699
928.056	11676
928.162	11843
928.267	11813
928.373	12388
928.479	11802
928.585	11592
928.69	11684
928.796	11790
928.901	11710
929.007	11486
929.112	11611
929.218	11570
929.323	11573
929.428	11581
929.533	11604
929.638	11349
929.743	11436
929.848	11490
929.953	11459
930.058	11326
930.163	11147
930.267	11181
930.372	11349
930.477	11079
930.581	11459
930.685	11273
930.79	11075
930.894	11143
930.998	11090
931.103	11242
931.207	10949
931.311	10744
931.415	10721
931.519	10500
931.623	10500
