Data from test_V78500241_3249.txt Node
Date: Fri Mar 25 15:32:29 CST 2022
User: usil
Spectrometer: V785-0024
Trigger mode: 0
Integration Time (sec): 4.000000E-1
Scans to average: 1
Nonlinearity correction enabled: false
Boxcar width: 0
Storing dark spectrum: false
XAxis mode: Wavelengths
Number of Pixels in Spectrum: 1024
>>>>>Begin Spectral Data<<<<<
801.071	27207
801.214	27150
801.356	26937
801.499	26804
801.641	26739
801.783	26754
801.926	26667
802.068	26781
802.211	26735
802.353	26545
802.496	26511
802.638	26549
802.78	26541
802.923	26278
803.065	26332
803.208	26370
803.35	26393
803.492	26606
803.635	26568
803.777	26522
803.919	26667
804.061	26921
804.204	26720
804.346	26457
804.488	26575
804.63	26499
804.773	26568
804.915	26651
805.057	26777
805.199	26533
805.341	26701
805.483	26807
805.626	26689
805.768	26606
805.91	26651
806.052	26769
806.194	26697
806.336	26887
806.478	26625
806.62	26731
806.762	26819
806.904	27036
807.046	27146
807.188	27252
807.33	27017
807.472	27260
807.614	27116
807.756	27157
807.898	26929
808.04	26956
808.182	26921
808.324	26933
808.465	27135
808.607	27142
808.749	27260
808.891	27325
809.033	27435
809.174	27245
809.316	27291
809.458	27321
809.6	27287
809.741	27329
809.883	27367
810.025	27591
810.166	27557
810.308	27462
810.45	27526
810.591	27549
810.733	27359
810.875	27260
811.016	27051
811.158	27310
811.299	27329
811.441	27420
811.582	27538
811.724	27294
811.865	27321
812.007	27173
812.148	27260
812.29	27313
812.431	27359
812.573	27629
812.714	27675
812.855	27618
812.997	27911
813.138	28002
813.279	27994
813.421	27812
813.562	27648
813.703	27656
813.845	27618
813.986	27180
814.127	27055
814.268	26944
814.41	26914
814.551	26788
814.692	27020
814.833	26861
814.974	26963
815.115	26887
815.256	26762
815.397	26781
815.539	26724
815.68	26693
815.821	26484
815.962	26811
816.103	26754
816.244	26450
816.385	26480
816.526	26488
816.666	26275
816.807	26183
816.948	26290
817.089	26358
817.23	26187
817.371	26282
817.512	26176
817.653	26199
817.793	26138
817.934	26199
818.075	26145
818.216	26294
818.356	26183
818.497	25974
818.638	25944
818.778	25966
818.919	25989
819.06	26024
819.2	26084
819.341	26202
819.481	26122
819.622	26396
819.762	26358
819.903	26457
820.043	26358
820.184	26157
820.324	26324
820.465	26317
820.605	26309
820.746	26225
820.886	26206
821.026	26328
821.167	26259
821.307	26290
821.447	26195
821.588	26187
821.728	26058
821.868	25841
822.008	25639
822.149	25597
822.289	25620
822.429	25453
822.569	25335
822.709	25278
822.849	25217
822.99	25289
823.13	25160
823.27	25042
823.41	24947
823.55	24844
823.69	25129
823.83	25004
823.97	24852
824.11	24856
824.25	24715
824.389	24970
824.529	24901
824.669	24764
824.809	24821
824.949	24882
825.089	24909
825.228	24757
825.368	24665
825.508	24703
825.648	24753
825.787	24760
825.927	24776
826.067	24696
826.206	24574
826.346	24677
826.485	24730
826.625	24802
826.765	24844
826.904	24589
827.044	24410
827.183	24445
827.323	24228
827.462	24429
827.601	24350
827.741	24365
827.88	24456
828.02	24266
828.159	24285
828.298	24353
828.437	24483
828.577	24372
828.716	24494
828.855	24304
828.994	24171
829.134	24224
829.273	24254
829.412	23996
829.551	24163
829.69	24117
829.829	24148
829.968	24148
830.107	24266
830.246	24045
830.385	24098
830.524	23908
830.663	23927
830.802	23786
830.941	23737
831.08	23691
831.219	23840
831.357	23733
831.496	23863
831.635	23695
831.774	23581
831.913	23585
832.051	23463
832.19	23440
832.329	23505
832.467	23444
832.606	23406
832.744	23330
832.883	23429
833.022	23383
833.16	23379
833.299	23410
833.437	23311
833.576	23474
833.714	23364
833.852	23638
833.991	23577
834.129	23531
834.267	23531
834.406	23581
834.544	23463
834.682	23433
834.821	23444
834.959	23733
835.097	23417
835.235	23627
835.373	23509
835.511	23478
835.65	23273
835.788	23292
835.926	23128
836.064	23200
836.202	23223
836.34	23387
836.478	23269
836.615	23155
836.753	23356
836.891	23474
837.029	23280
837.167	23246
837.305	23307
837.443	23143
837.58	23048
837.718	23349
837.856	23277
837.993	23170
838.131	23105
838.269	22976
838.406	23105
838.544	22927
838.681	22877
838.819	22706
838.956	22615
839.094	22694
839.231	22706
839.369	22816
839.506	23071
839.643	22911
839.781	22721
839.918	22580
840.055	22698
840.193	22573
840.33	22550
840.467	22599
840.604	22561
840.742	22850
840.879	22481
841.016	22535
841.153	22440
841.29	22599
841.427	22470
841.564	22565
841.701	22584
841.838	22421
841.975	22421
842.112	22542
842.249	22382
842.385	22409
842.522	22535
842.659	22497
842.796	22322
842.933	22371
843.069	22382
843.206	22246
843.343	22371
843.479	22306
843.616	22234
843.752	22116
843.889	22253
844.025	22249
844.162	22162
844.298	22230
844.435	22086
844.571	22120
844.708	22211
844.844	22238
844.98	22181
845.117	22234
845.253	22059
845.389	21926
845.525	21892
845.661	22048
845.798	21835
845.934	21972
846.07	21911
846.206	21759
846.342	21945
846.478	21747
846.614	21603
846.75	21458
846.886	21603
847.022	21705
847.158	21568
847.294	21717
847.429	21599
847.565	21515
847.701	21827
847.837	21313
847.972	21233
848.108	21515
848.244	21313
848.379	21245
848.515	21218
848.65	21146
848.786	21211
848.921	21218
849.057	21359
849.192	21317
849.328	21268
849.463	21112
849.598	21138
849.734	20937
849.869	21039
850.004	20891
850.14	20956
850.275	20906
850.41	20792
850.545	20952
850.68	20883
850.815	21005
850.95	20933
851.085	21089
851.22	20986
851.355	20952
851.49	20819
851.625	20895
851.76	20899
851.895	20864
852.03	20872
852.165	20861
852.299	20952
852.434	21047
852.569	20971
852.703	20979
852.838	21024
852.973	21039
853.107	21028
853.242	20929
853.376	20880
853.511	20743
853.645	20625
853.78	20994
853.914	20804
854.048	20632
854.183	20686
854.317	20735
854.451	20982
854.585	20857
854.72	20743
854.854	20872
854.988	20811
855.122	20765
855.256	20769
855.39	20765
855.524	20823
855.658	20743
855.792	20819
855.926	20750
856.06	20731
856.194	20853
856.327	20644
856.461	20678
856.595	20651
856.729	20845
856.862	20842
856.996	20705
857.13	20849
857.263	20758
857.397	20819
857.53	20792
857.664	20686
857.797	20819
857.931	20849
858.064	20842
858.197	20876
858.331	20739
858.464	20746
858.597	20617
858.731	20758
858.864	20773
858.997	20754
859.13	20765
859.263	20670
859.396	20910
859.529	20750
859.662	20743
859.795	20743
859.928	20842
860.061	20998
860.194	20933
860.327	20826
860.46	20708
860.592	20861
860.725	20891
860.858	20857
860.99	20838
861.123	20735
861.256	20651
861.388	20727
861.521	21256
861.653	20689
861.786	20693
861.918	20640
862.05	20629
862.183	20689
862.315	20651
862.447	20781
862.58	20750
862.712	20476
862.844	20454
862.976	20621
863.108	20632
863.24	21108
863.372	20526
863.504	20351
863.636	20488
863.768	20552
863.9	20480
864.032	20442
864.164	20408
864.296	20404
864.428	20564
864.559	20476
864.691	20450
864.823	20606
864.954	20465
865.086	20522
865.217	20457
865.349	20408
865.48	20396
865.612	20408
865.743	20522
865.875	20484
866.006	20400
866.137	20408
866.269	20244
866.4	20358
866.531	20298
866.662	20343
866.793	20389
866.924	20305
867.055	20317
867.186	20374
867.317	20244
867.448	20263
867.579	20210
867.71	20153
867.841	20317
867.972	20317
868.103	20446
868.233	20362
868.364	20377
868.495	20446
868.625	20651
868.756	20716
868.886	20518
869.017	20590
869.147	20724
869.278	20811
869.408	20590
869.539	20575
869.669	20689
869.799	20549
869.929	20693
870.06	20724
870.19	20952
870.32	20819
870.45	20830
870.58	20925
870.71	21028
870.84	21131
870.97	20967
871.1	20963
871.23	21119
871.36	21279
871.489	21074
871.619	21131
871.749	21142
871.879	21279
872.008	21287
872.138	21161
872.267	21093
872.397	21096
872.526	20921
872.656	20982
872.785	20956
872.915	21222
873.044	21325
873.173	21207
873.303	21199
873.432	21226
873.561	21435
873.69	21203
873.819	21112
873.948	21249
874.077	21127
874.206	21093
874.335	21306
874.464	21287
874.593	21481
874.722	21374
874.851	21519
874.979	21515
875.108	21466
875.237	21435
875.365	21344
875.494	21458
875.623	21538
875.751	21408
875.88	21507
876.008	21625
876.136	21652
876.265	21800
876.393	21953
876.521	21880
876.65	21956
876.778	21895
876.906	21819
877.034	21739
877.162	21835
877.29	21770
877.418	21781
877.546	21827
877.674	21835
877.802	21895
877.93	21800
878.058	21831
878.185	21732
878.313	21732
878.441	21755
878.568	21622
878.696	21720
878.824	21823
878.951	21850
879.079	21975
879.206	22116
879.333	22101
879.461	21785
879.588	21960
879.715	21827
879.842	21968
879.97	21949
880.097	21644
880.224	21637
880.351	21690
880.478	21717
880.605	21496
880.732	21603
880.859	21835
880.986	21583
881.112	21660
881.239	21507
881.366	21382
881.493	21313
881.619	21211
881.746	21176
881.872	21173
881.999	21218
882.125	21146
882.252	21237
882.378	21116
882.505	21249
882.631	21100
882.757	20952
882.883	21001
883.01	20868
883.136	20887
883.262	20842
883.388	20788
883.514	20857
883.64	20960
883.766	20910
883.892	20655
884.018	20678
884.143	20785
884.269	20834
884.395	20526
884.52	20598
884.646	20549
884.772	20522
884.897	20518
885.023	20590
885.148	20735
885.274	20743
885.399	20640
885.524	20537
885.65	20629
885.775	20560
885.9	20522
886.025	20575
886.15	20758
886.275	20438
886.4	20461
886.525	20454
886.65	20492
886.775	20454
886.9	20636
887.025	20682
887.149	20526
887.274	20358
887.399	20362
887.523	20225
887.648	20256
887.773	20252
887.897	20381
888.021	20366
888.146	20343
888.27	20366
888.395	20484
888.519	20389
888.643	20332
888.767	20427
888.891	20339
889.015	20210
889.139	20271
889.263	20142
889.387	20259
889.511	20339
889.635	20218
889.759	20134
889.883	20092
890.006	20180
890.13	20347
890.254	20115
890.377	19967
890.501	19890
890.624	19837
890.748	19936
890.871	19784
890.995	19677
891.118	19731
891.241	19750
891.364	19776
891.488	19906
891.611	19734
891.734	19712
891.857	19723
891.98	19772
892.103	19906
892.226	19852
892.349	19693
892.471	19487
892.594	19582
892.717	19685
892.839	19464
892.962	19624
893.085	19643
893.207	19643
893.33	19559
893.452	19514
893.575	19632
893.697	19540
893.819	19731
893.941	19772
894.064	19799
894.186	19708
894.308	19559
894.43	19807
894.552	19750
894.674	19780
894.796	19586
894.918	19609
895.04	19632
895.161	19681
895.283	19639
895.405	19556
895.526	19533
895.648	19658
895.769	19609
895.891	19605
896.012	19674
896.134	19734
896.255	19575
896.376	19662
896.498	19689
896.619	19738
896.74	19670
896.861	19689
896.982	19959
897.103	20088
897.224	19879
897.345	19795
897.466	19712
897.587	19849
897.708	20107
897.828	19913
897.949	19814
898.07	19727
898.19	19727
898.311	20039
898.431	19864
898.552	19890
898.672	19890
898.792	19944
898.913	19967
899.033	19723
899.153	19624
899.273	19575
899.393	19643
899.513	19571
899.633	19700
899.753	19594
899.873	19552
899.993	19674
900.113	19506
900.232	19457
900.352	19548
900.472	19449
900.591	19392
900.711	19441
900.83	19403
900.95	19525
901.069	19358
901.189	19316
901.308	19012
901.427	19042
901.546	19031
901.665	19042
901.784	18920
901.904	18886
902.023	18715
902.141	18559
902.26	18563
902.379	18570
902.498	18502
902.617	18437
902.735	18494
902.854	18532
902.973	18528
903.091	18121
903.21	18194
903.328	18155
903.446	18174
903.565	17965
903.683	17977
903.801	18022
903.919	18026
904.038	17958
904.156	17745
904.274	17904
904.392	17790
904.51	17710
904.627	17695
904.745	17756
904.863	17726
904.981	17672
905.098	17474
905.216	17440
905.334	17410
905.451	17463
905.569	17337
905.686	17459
905.803	17448
905.921	17166
906.038	17372
906.155	17223
906.272	17102
906.389	17109
906.506	16953
906.623	16991
906.74	17029
906.857	16866
906.974	16881
907.091	17033
907.208	17048
907.324	16915
907.441	16812
907.557	16763
907.674	16828
907.79	16615
907.907	16656
908.023	16656
908.139	16710
908.256	16771
908.372	16649
908.488	16500
908.604	16512
908.72	16382
908.836	16360
908.952	16386
909.068	16436
909.184	16508
909.3	16333
909.415	16424
909.531	16386
909.647	16101
909.762	16131
909.878	16067
909.993	16128
910.108	16215
910.224	16112
910.339	16082
910.454	15953
910.57	15861
910.685	15884
910.8	16192
910.915	16112
911.03	15964
911.145	15743
911.259	15720
911.374	15781
911.489	15656
911.604	15553
911.718	15466
911.833	15682
911.947	15348
912.062	15416
912.176	15515
912.291	15584
912.405	15511
912.519	15671
912.633	15770
912.748	15561
912.862	15481
912.976	15336
913.09	15157
913.204	15283
913.318	15332
913.431	15355
913.545	15424
913.659	15397
913.772	15306
913.886	15116
914	15199
914.113	15230
914.226	15298
914.34	15195
914.453	14956
914.566	15104
914.68	15024
914.793	14990
914.906	14773
915.019	14731
915.132	14663
915.245	14667
915.358	14697
915.47	14792
915.583	14697
915.696	14796
915.809	14872
915.921	14769
916.034	14773
916.146	14674
916.259	14594
916.371	14724
916.483	14651
916.595	14708
916.708	14541
916.82	14522
916.932	14598
917.044	14537
917.156	14476
917.268	14385
917.38	14457
917.491	14370
917.603	14419
917.715	14423
917.826	14484
917.938	14309
918.049	14259
918.161	14427
918.272	14507
918.384	14469
918.495	14415
918.606	14195
918.717	14157
918.828	14214
918.939	14256
919.05	14088
919.161	14191
919.272	13936
919.383	13986
919.494	14218
919.604	14385
919.715	14142
919.826	13978
919.936	14077
920.047	14199
920.157	14130
920.267	14282
920.378	14115
920.488	14119
920.598	14225
920.708	14415
920.818	14248
920.928	14218
921.038	14324
921.148	14389
921.258	14130
921.368	14039
921.477	13921
921.587	13871
921.697	13826
921.806	13902
921.916	13765
922.025	13624
922.134	13483
922.244	13514
922.353	13647
922.462	13369
922.571	13339
922.68	13194
922.789	13202
922.898	13190
923.007	13171
923.116	13236
923.224	13263
923.333	13187
923.442	13015
923.55	13034
923.659	12970
923.767	13061
923.876	12989
923.984	12962
924.092	12905
924.201	12928
924.309	12886
924.417	12844
924.525	12749
924.633	12954
924.741	13738
924.849	12688
924.956	12840
925.064	12703
925.172	12536
925.279	12616
925.387	12601
925.494	12658
925.602	12734
925.709	12616
925.816	12498
925.924	12517
926.031	12627
926.138	12559
926.245	12601
926.352	12506
926.459	12642
926.566	12654
926.673	12559
926.779	12395
926.886	12311
926.993	12296
927.099	12266
927.206	12182
927.312	12102
927.419	12251
927.525	12213
927.631	12213
927.737	12121
927.843	12068
927.95	11843
928.056	12022
928.162	12068
928.267	12049
928.373	12711
928.479	12178
928.585	11927
928.69	11904
928.796	12019
928.901	11893
929.007	11767
929.112	11942
929.218	11832
929.323	11733
929.428	11745
929.533	11912
929.638	11748
929.743	11794
929.848	11699
929.953	11703
930.058	11589
930.163	11509
930.267	11467
930.372	11562
930.477	11410
930.581	11695
930.685	11417
930.79	11383
930.894	11410
930.998	11356
931.103	11455
931.207	11071
931.311	11022
931.415	11018
931.519	10748
931.623	10725
