Data from test_V78500241_3620.txt Node
Date: Fri Mar 25 15:35:03 CST 2022
User: usil
Spectrometer: V785-0024
Trigger mode: 0
Integration Time (sec): 4.000000E-1
Scans to average: 1
Nonlinearity correction enabled: false
Boxcar width: 0
Storing dark spectrum: false
XAxis mode: Wavelengths
Number of Pixels in Spectrum: 1024
>>>>>Begin Spectral Data<<<<<
801.071	27329
801.214	27279
801.356	26963
801.499	27024
801.641	26861
801.783	26944
801.926	26952
802.068	26967
802.211	26823
802.353	26750
802.496	26629
802.638	26545
802.78	26552
802.923	26438
803.065	26259
803.208	26400
803.35	26613
803.492	26655
803.635	26651
803.777	26674
803.919	26682
804.061	26952
804.204	26823
804.346	26674
804.488	26537
804.63	26655
804.773	26541
804.915	26758
805.057	26838
805.199	26621
805.341	26568
805.483	26712
805.626	26731
805.768	26743
805.91	26716
806.052	26762
806.194	26731
806.336	26967
806.478	26708
806.62	26868
806.762	26727
806.904	27032
807.046	27214
807.188	27249
807.33	27378
807.472	27264
807.614	27032
807.756	27249
807.898	27070
808.04	26910
808.182	26967
808.324	27047
808.465	27100
808.607	27252
808.749	27344
808.891	27310
809.033	27500
809.174	27454
809.316	27287
809.458	27317
809.6	27192
809.741	27416
809.883	27534
810.025	27515
810.166	27720
810.308	27766
810.45	27633
810.591	27648
810.733	27462
810.875	27416
811.016	27317
811.158	27283
811.299	27523
811.441	27507
811.582	27568
811.724	27298
811.865	27355
812.007	27325
812.148	27245
812.29	27447
812.431	27568
812.573	27736
812.714	27713
812.855	27842
812.997	27960
813.138	28196
813.279	27964
813.421	27945
813.562	27884
813.703	27610
813.845	27542
813.986	27519
814.127	26971
814.268	27013
814.41	26998
814.551	26960
814.692	26990
814.833	26872
814.974	26994
815.115	26940
815.256	26948
815.397	26861
815.539	26982
815.68	26864
815.821	26773
815.962	26944
816.103	26762
816.244	26613
816.385	26609
816.526	26606
816.666	26286
816.807	26461
816.948	26412
817.089	26415
817.23	26370
817.371	26351
817.512	26191
817.653	26233
817.793	26256
817.934	26233
818.075	26282
818.216	26305
818.356	26221
818.497	26161
818.638	26115
818.778	26027
818.919	26092
819.06	26081
819.2	26206
819.341	26320
819.481	26301
819.622	26412
819.762	26659
819.903	26625
820.043	26438
820.184	26450
820.324	26419
820.465	26446
820.605	26339
820.746	26400
820.886	26332
821.026	26488
821.167	26400
821.307	26431
821.447	26374
821.588	26237
821.728	26058
821.868	25959
822.008	25772
822.149	25734
822.289	25662
822.429	25594
822.569	25430
822.709	25434
822.849	25362
822.99	25312
823.13	25301
823.27	25236
823.41	25179
823.55	24989
823.69	25164
823.83	25080
823.97	25164
824.11	24897
824.25	24905
824.389	24920
824.529	24935
824.669	25012
824.809	25027
824.949	24970
825.089	25027
825.228	24779
825.368	24844
825.508	24722
825.648	24829
825.787	24806
825.927	24886
826.067	24814
826.206	24741
826.346	24760
826.485	24806
826.625	24806
826.765	24829
826.904	24856
827.044	24471
827.183	24513
827.323	24445
827.462	24528
827.601	24441
827.741	24384
827.88	24452
828.02	24452
828.159	24494
828.298	24555
828.437	24467
828.577	24448
828.716	24566
828.855	24490
828.994	24296
829.134	24194
829.273	24167
829.412	24133
829.551	24083
829.69	24186
829.829	24201
829.968	24315
830.107	24380
830.246	24342
830.385	24228
830.524	24133
830.663	24095
830.802	23988
830.941	23874
831.08	23832
831.219	23920
831.357	23912
831.496	23977
831.635	23802
831.774	23809
831.913	23718
832.051	23657
832.19	23402
832.329	23707
832.467	23638
832.606	23376
832.744	23486
832.883	23467
833.022	23543
833.16	23562
833.299	23505
833.437	23531
833.576	23547
833.714	23547
833.852	23642
833.991	23589
834.129	23657
834.267	23684
834.406	23627
834.544	23703
834.682	23520
834.821	23554
834.959	23684
835.097	23596
835.235	23710
835.373	23577
835.511	23455
835.65	23509
835.788	23516
835.926	23277
836.064	23318
836.202	23197
836.34	23444
836.478	23505
836.615	23383
836.753	23528
836.891	23501
837.029	23436
837.167	23501
837.305	23162
837.443	23349
837.58	23372
837.718	23440
837.856	23341
837.993	23265
838.131	23254
838.269	23197
838.406	23303
838.544	23056
838.681	22949
838.819	23048
838.956	22748
839.094	22706
839.231	22744
839.369	23025
839.506	23132
839.643	23029
839.781	22740
839.918	22752
840.055	22759
840.193	22706
840.33	22816
840.467	22729
840.604	22691
840.742	22904
840.879	22672
841.016	22729
841.153	22622
841.29	22725
841.427	22717
841.564	22725
841.701	22725
841.838	22622
841.975	22653
842.112	22611
842.249	22542
842.385	22538
842.522	22771
842.659	22691
842.796	22447
842.933	22432
843.069	22428
843.206	22409
843.343	22481
843.479	22481
843.616	22580
843.752	22261
843.889	22211
844.025	22382
844.162	22211
844.298	22303
844.435	22196
844.571	22268
844.708	22215
844.844	22413
844.98	22367
845.117	22394
845.253	22188
845.389	22207
845.525	22124
845.661	22040
845.798	22013
845.934	22067
846.07	21968
846.206	21968
846.342	22090
846.478	21987
846.614	21759
846.75	21679
846.886	21793
847.022	21804
847.158	21819
847.294	21701
847.429	21812
847.565	21701
847.701	21964
847.837	21389
847.972	21435
848.108	21519
848.244	21561
848.379	21389
848.515	21199
848.65	21272
848.786	21348
848.921	21329
849.057	21329
849.192	21287
849.328	21351
849.463	21222
849.598	21310
849.734	21146
849.869	21100
850.004	21096
850.14	21108
850.275	21070
850.41	20887
850.545	21005
850.68	21058
850.815	21020
850.95	21089
851.085	21127
851.22	21260
851.355	21089
851.49	21108
851.625	20952
851.76	21024
851.895	21024
852.03	20952
852.165	21131
852.299	21112
852.434	21199
852.569	21055
852.703	20990
852.838	21154
852.973	21112
853.107	21157
853.242	21005
853.376	20960
853.511	20750
853.645	20872
853.78	21005
853.914	20921
854.048	20914
854.183	20811
854.317	20872
854.451	21066
854.585	20906
854.72	20925
854.854	20982
854.988	20788
855.122	20853
855.256	20712
855.39	20944
855.524	21005
855.658	20902
855.792	20956
855.926	21028
856.06	21005
856.194	20902
856.327	20948
856.461	20948
856.595	20762
856.729	20883
856.862	20979
856.996	20899
857.13	20971
857.263	21089
857.397	21020
857.53	20956
857.664	21009
857.797	21001
857.931	20998
858.064	20864
858.197	21123
858.331	20861
858.464	20902
858.597	20842
858.731	20948
858.864	20941
858.997	20765
859.13	20960
859.263	20868
859.396	20902
859.529	20796
859.662	20887
859.795	20883
859.928	21017
860.061	21127
860.194	21077
860.327	20994
860.46	20883
860.592	20982
860.725	21055
860.858	21150
860.99	20971
861.123	20830
861.256	20902
861.388	20906
861.521	21732
861.653	20769
861.786	20663
861.918	20754
862.05	20777
862.183	20796
862.315	20857
862.447	20971
862.58	20811
862.712	20629
862.844	20602
862.976	20796
863.108	20636
863.24	21043
863.372	20537
863.504	20594
863.636	20659
863.768	20629
863.9	20655
864.032	20575
864.164	20552
864.296	20667
864.428	20697
864.559	20743
864.691	20705
864.823	20621
864.954	20651
865.086	20579
865.217	20632
865.349	20579
865.48	20434
865.612	20514
865.743	20598
865.875	20564
866.006	20393
866.137	20476
866.269	20526
866.4	20461
866.531	20480
866.662	20537
866.793	20511
866.924	20438
867.055	20450
867.186	20530
867.317	20370
867.448	20400
867.579	20408
867.71	20370
867.841	20229
867.972	20476
868.103	20568
868.233	20427
868.364	20526
868.495	20541
868.625	20598
868.756	20842
868.886	20701
869.017	20674
869.147	20796
869.278	20857
869.408	20693
869.539	20640
869.669	20826
869.799	20807
869.929	20864
870.06	20785
870.19	21074
870.32	20929
870.45	21066
870.58	21062
870.71	21317
870.84	21123
870.97	21173
871.1	20948
871.23	21256
871.36	21367
871.489	21169
871.619	21329
871.749	21408
871.879	21306
872.008	21378
872.138	21192
872.267	21416
872.397	21104
872.526	21192
872.656	21154
872.785	21230
872.915	21435
873.044	21317
873.173	21374
873.303	21416
873.432	21348
873.561	21477
873.69	21306
873.819	21260
873.948	21458
874.077	21428
874.206	21325
874.335	21401
874.464	21447
874.593	21534
874.722	21568
874.851	21637
874.979	21599
875.108	21701
875.237	21504
875.365	21549
875.494	21595
875.623	21663
875.751	21698
875.88	21530
876.008	21671
876.136	21907
876.265	21922
876.393	22097
876.521	22059
876.65	22048
876.778	21854
876.906	21979
877.034	21968
877.162	21941
877.29	21831
877.418	21838
877.546	22078
877.674	21850
877.802	21918
877.93	21827
878.058	21850
878.185	21770
878.313	21812
878.441	21857
878.568	21850
878.696	21789
878.824	22044
878.951	21998
879.079	22097
879.206	22287
879.333	22086
879.461	21876
879.588	21968
879.715	22101
879.842	22226
879.97	21915
880.097	21781
880.224	21800
880.351	21857
880.478	21637
880.605	21633
880.732	21690
880.859	21987
880.986	21720
881.112	21709
881.239	21614
881.366	21401
881.493	21386
881.619	21294
881.746	21268
881.872	21313
881.999	21233
882.125	21218
882.252	21302
882.378	21245
882.505	21504
882.631	21047
882.757	21017
882.883	21173
883.01	21085
883.136	21112
883.262	20956
883.388	20967
883.514	20941
883.64	21104
883.766	20963
883.892	20861
884.018	20781
884.143	20956
884.269	20979
884.395	20773
884.52	20621
884.646	20693
884.772	20617
884.897	20636
885.023	20651
885.148	20925
885.274	20689
885.399	20777
885.524	20724
885.65	20735
885.775	20670
885.9	20625
886.025	20750
886.15	20743
886.275	20697
886.4	20461
886.525	20648
886.65	20545
886.775	20583
886.9	20754
887.025	20914
887.149	20693
887.274	20408
887.399	20442
887.523	20488
887.648	20415
887.773	20313
887.897	20492
888.021	20495
888.146	20457
888.27	20530
888.395	20396
888.519	20438
888.643	20476
888.767	20480
888.891	20332
889.015	20172
889.139	20347
889.263	20176
889.387	20381
889.511	20511
889.635	20412
889.759	20202
889.883	20210
890.006	20370
890.13	20233
890.254	20168
890.377	20187
890.501	20168
890.624	19967
890.748	20043
890.871	19898
890.995	19856
891.118	19677
891.241	19852
891.364	19894
891.488	19944
891.611	19814
891.734	19890
891.857	19883
891.98	19811
892.103	19906
892.226	19833
892.349	19818
892.471	19586
892.594	19822
892.717	19746
892.839	19715
892.962	19795
893.085	19746
893.207	19647
893.33	19544
893.452	19708
893.575	19712
893.697	19662
893.819	19883
893.941	19959
894.064	19852
894.186	19685
894.308	19719
894.43	19913
894.552	19852
894.674	19780
894.796	19727
894.918	19742
895.04	19662
895.161	19784
895.283	19738
895.405	19750
895.526	19632
895.648	19791
895.769	19643
895.891	19799
896.012	19788
896.134	19811
896.255	19746
896.376	19708
896.498	19719
896.619	19830
896.74	19696
896.861	19784
896.982	20039
897.103	20229
897.224	20065
897.345	19822
897.466	19982
897.587	19970
897.708	20046
897.828	19928
897.949	19963
898.07	19852
898.19	19970
898.311	20016
898.431	20001
898.552	19967
898.672	19997
898.792	20096
898.913	20016
899.033	19890
899.153	19704
899.273	19742
899.393	19780
899.513	19814
899.633	19757
899.753	19647
899.873	19590
899.993	19753
900.113	19681
900.232	19674
900.352	19666
900.472	19556
900.591	19502
900.711	19590
900.83	19327
900.95	19521
901.069	19597
901.189	19392
901.308	19042
901.427	19126
901.546	19129
901.665	19107
901.784	19122
901.904	18993
902.023	18802
902.141	18677
902.26	18448
902.379	18623
902.498	18635
902.617	18589
902.735	18669
902.854	18498
902.973	18494
903.091	18311
903.21	18270
903.328	18270
903.446	18243
903.565	18140
903.683	18262
903.801	17935
903.919	18068
904.038	18060
904.156	17885
904.274	17851
904.392	17840
904.51	17790
904.627	17882
904.745	17859
904.863	17912
904.981	17722
905.098	17619
905.216	17520
905.334	17570
905.451	17551
905.569	17452
905.686	17532
905.803	17535
905.921	17303
906.038	17455
906.155	17387
906.272	17231
906.389	17246
906.506	17029
906.623	17151
906.74	17124
906.857	17052
906.974	17006
907.091	17071
907.208	17155
907.324	17121
907.441	16934
907.557	16812
907.674	16793
907.79	16771
907.907	16824
908.023	16866
908.139	16805
908.256	16866
908.372	16668
908.488	16611
908.604	16558
908.72	16466
908.836	16519
908.952	16508
909.068	16489
909.184	16550
909.3	16527
909.415	16481
909.531	16546
909.647	16287
909.762	16246
909.878	16158
909.993	16295
910.108	16162
910.224	16131
910.339	16265
910.454	16230
910.57	15953
910.685	16044
910.8	16226
910.915	16143
911.03	16101
911.145	15869
911.259	15797
911.374	15835
911.489	15755
911.604	15770
911.718	15614
911.833	15701
911.947	15481
912.062	15469
912.176	15580
912.291	15629
912.405	15603
912.519	15827
912.633	15717
912.748	15614
912.862	15641
912.976	15397
913.09	15230
913.204	15447
913.318	15408
913.431	15462
913.545	15534
913.659	15416
913.772	15367
913.886	15222
914	15207
914.113	15325
914.226	15287
914.34	15211
914.453	15192
914.566	15161
914.68	15138
914.793	15039
914.906	14830
915.019	14861
915.132	14762
915.245	14762
915.358	14773
915.47	14842
915.583	14807
915.696	14792
915.809	14921
915.921	14948
916.034	14678
916.146	14610
916.259	14708
916.371	14853
916.483	14750
916.595	14617
916.708	14727
916.82	14682
916.932	14670
917.044	14541
917.156	14579
917.268	14473
917.38	14545
917.491	14434
917.603	14526
917.715	14492
917.826	14579
917.938	14480
918.049	14408
918.161	14408
918.272	14537
918.384	14571
918.495	14446
918.606	14240
918.717	14183
918.828	14309
918.939	14320
919.05	14130
919.161	14252
919.272	13940
919.383	14126
919.494	14355
919.604	14343
919.715	14298
919.826	14191
919.936	14145
920.047	14218
920.157	14233
920.267	14454
920.378	14214
920.488	14153
920.598	14427
920.708	14564
920.818	14362
920.928	14465
921.038	14522
921.148	14446
921.258	14180
921.368	14035
921.477	13944
921.587	13963
921.697	13883
921.806	13928
921.916	13856
922.025	13624
922.134	13567
922.244	13567
922.353	13677
922.462	13544
922.571	13514
922.68	13282
922.789	13213
922.898	13255
923.007	13187
923.116	13403
923.224	13240
923.333	13217
923.442	13095
923.55	13050
923.659	13088
923.767	13190
923.876	13141
923.984	13099
924.092	13027
924.201	13031
924.309	13008
924.417	13012
924.525	12901
924.633	12890
924.741	13753
924.849	12783
924.956	12859
925.064	12738
925.172	12578
925.279	12620
925.387	12776
925.494	12662
925.602	12821
925.709	12696
925.816	12639
925.924	12741
926.031	12783
926.138	12654
926.245	12722
926.352	12540
926.459	12582
926.566	12722
926.673	12456
926.779	12506
926.886	12445
926.993	12308
927.099	12251
927.206	12243
927.312	12182
927.419	12350
927.525	12285
927.631	12330
927.737	12205
927.843	12045
927.95	12076
928.056	12026
928.162	12106
928.267	12091
928.373	12631
928.479	12095
928.585	11958
928.69	11988
928.796	12064
928.901	11916
929.007	11859
929.112	11969
929.218	11935
929.323	11851
929.428	11805
929.533	11927
929.638	11756
929.743	11726
929.848	11802
929.953	11786
930.058	11630
930.163	11474
930.267	11490
930.372	11661
930.477	11425
930.581	11608
930.685	11448
930.79	11379
930.894	11379
930.998	11379
931.103	11551
931.207	11220
931.311	11151
931.415	11022
931.519	10839
931.623	10820
