Data from test_V78500241_3292.txt Node
Date: Fri Mar 25 15:32:47 CST 2022
User: usil
Spectrometer: V785-0024
Trigger mode: 0
Integration Time (sec): 4.000000E-1
Scans to average: 1
Nonlinearity correction enabled: false
Boxcar width: 0
Storing dark spectrum: false
XAxis mode: Wavelengths
Number of Pixels in Spectrum: 1024
>>>>>Begin Spectral Data<<<<<
801.071	27355
801.214	27302
801.356	27081
801.499	27043
801.641	27009
801.783	27020
801.926	27055
802.068	26921
802.211	26781
802.353	26781
802.496	26552
802.638	26602
802.78	26526
802.923	26412
803.065	26495
803.208	26518
803.35	26598
803.492	26720
803.635	26655
803.777	26583
803.919	26743
804.061	27001
804.204	26720
804.346	26644
804.488	26651
804.63	26682
804.773	26590
804.915	26606
805.057	26705
805.199	26648
805.341	26621
805.483	26899
805.626	26838
805.768	26739
805.91	26724
806.052	26819
806.194	26724
806.336	26887
806.478	26773
806.62	26655
806.762	26853
806.904	27039
807.046	27176
807.188	27272
807.33	27226
807.472	27302
807.614	27096
807.756	27081
807.898	27150
808.04	26979
808.182	26872
808.324	27024
808.465	27116
808.607	27161
808.749	27511
808.891	27526
809.033	27545
809.174	27412
809.316	27401
809.458	27435
809.6	27351
809.741	27450
809.883	27553
810.025	27686
810.166	27580
810.308	27705
810.45	27648
810.591	27485
810.733	27386
810.875	27291
811.016	27302
811.158	27386
811.299	27523
811.441	27389
811.582	27648
811.724	27458
811.865	27226
812.007	27367
812.148	27325
812.29	27306
812.431	27675
812.573	27637
812.714	27789
812.855	27907
812.997	27804
813.138	28063
813.279	28032
813.421	27941
813.562	27797
813.703	27675
813.845	27606
813.986	27382
814.127	27192
814.268	27039
814.41	27157
814.551	26762
814.692	26998
814.833	26994
814.974	26948
815.115	27032
815.256	26823
815.397	26864
815.539	26982
815.68	26944
815.821	26880
815.962	26735
816.103	26735
816.244	26712
816.385	26442
816.526	26522
816.666	26404
816.807	26355
816.948	26199
817.089	26385
817.23	26336
817.371	26176
817.512	26214
817.653	26282
817.793	26176
817.934	26191
818.075	26301
818.216	26461
818.356	26282
818.497	26058
818.638	25978
818.778	26054
818.919	25951
819.06	26096
819.2	26195
819.341	26317
819.481	26199
819.622	26450
819.762	26556
819.903	26556
820.043	26541
820.184	26511
820.324	26317
820.465	26503
820.605	26423
820.746	26385
820.886	26210
821.026	26366
821.167	26252
821.307	26374
821.447	26339
821.588	26206
821.728	26157
821.868	25913
822.008	25833
822.149	25845
822.289	25772
822.429	25491
822.569	25495
822.709	25468
822.849	25377
822.99	25365
823.13	25228
823.27	25316
823.41	25099
823.55	24932
823.69	25042
823.83	25042
823.97	24992
824.11	24852
824.25	24882
824.389	24962
824.529	24924
824.669	24939
824.809	24977
824.949	24878
825.089	25095
825.228	24939
825.368	24760
825.508	24757
825.648	24821
825.787	24810
825.927	24730
826.067	24703
826.206	24764
826.346	24878
826.485	24829
826.625	24787
826.765	24905
826.904	24798
827.044	24707
827.183	24536
827.323	24639
827.462	24471
827.601	24536
827.741	24464
827.88	24467
828.02	24418
828.159	24471
828.298	24395
828.437	24627
828.577	24544
828.716	24563
828.855	24388
828.994	24178
829.134	24174
829.273	24304
829.412	24258
829.551	24182
829.69	24194
829.829	24235
829.968	24315
830.107	24224
830.246	24319
830.385	24201
830.524	24087
830.663	24060
830.802	24026
830.941	23874
831.08	23802
831.219	23855
831.357	23798
831.496	24015
831.635	23882
831.774	23805
831.913	23676
832.051	23592
832.19	23611
832.329	23665
832.467	23474
832.606	23471
832.744	23425
832.883	23440
833.022	23433
833.16	23471
833.299	23433
833.437	23421
833.576	23619
833.714	23520
833.852	23596
833.991	23672
834.129	23497
834.267	23573
834.406	23611
834.544	23657
834.682	23604
834.821	23425
834.959	23805
835.097	23566
835.235	23676
835.373	23566
835.511	23573
835.65	23356
835.788	23379
835.926	23398
836.064	23307
836.202	23288
836.34	23425
836.478	23486
836.615	23486
836.753	23391
836.891	23353
837.029	23455
837.167	23383
837.305	23387
837.443	23337
837.58	23364
837.718	23303
837.856	23322
837.993	23216
838.131	23277
838.269	23098
838.406	23296
838.544	23208
838.681	22972
838.819	22968
838.956	22809
839.094	22733
839.231	22812
839.369	22915
839.506	23052
839.643	22968
839.781	22816
839.918	22596
840.055	22706
840.193	22771
840.33	22531
840.467	22588
840.604	22847
840.742	22869
840.879	22698
841.016	22649
841.153	22481
841.29	22786
841.427	22694
841.564	22580
841.701	22637
841.838	22546
841.975	22596
842.112	22550
842.249	22424
842.385	22512
842.522	22653
842.659	22531
842.796	22443
842.933	22405
843.069	22474
843.206	22390
843.343	22428
843.479	22538
843.616	22371
843.752	22234
843.889	22135
844.025	22207
844.162	22162
844.298	22318
844.435	22363
844.571	22112
844.708	22246
844.844	22443
844.98	22310
845.117	22238
845.253	22173
845.389	22139
845.525	22215
845.661	22124
845.798	21922
845.934	22029
846.07	21861
846.206	21945
846.342	22188
846.478	21861
846.614	21766
846.75	21709
846.886	21618
847.022	21755
847.158	21682
847.294	21705
847.429	21690
847.565	21591
847.701	22059
847.837	21351
847.972	21363
848.108	21549
848.244	21545
848.379	21447
848.515	21287
848.65	21211
848.786	21408
848.921	21336
849.057	21374
849.192	21329
849.328	21294
849.463	21408
849.598	21203
849.734	21176
849.869	21081
850.004	21138
850.14	21028
850.275	21123
850.41	21001
850.545	21047
850.68	21066
850.815	21180
850.95	21024
851.085	21241
851.22	21074
851.355	21150
851.49	21051
851.625	20979
851.76	20998
851.895	20963
852.03	20868
852.165	20956
852.299	21070
852.434	21093
852.569	21009
852.703	21100
852.838	21112
852.973	21161
853.107	21013
853.242	21055
853.376	20861
853.511	20823
853.645	20769
853.78	20929
853.914	20804
854.048	20914
854.183	20819
854.317	20883
854.451	21089
854.585	20918
854.72	20868
854.854	20921
854.988	20857
855.122	20910
855.256	20948
855.39	20849
855.524	20921
855.658	20880
855.792	20952
855.926	20899
856.06	21032
856.194	20941
856.327	20876
856.461	20727
856.595	20853
856.729	20857
856.862	21066
856.996	20880
857.13	20929
857.263	20948
857.397	20842
857.53	20895
857.664	20906
857.797	20952
857.931	21077
858.064	20948
858.197	21055
858.331	20921
858.464	20849
858.597	20705
858.731	20777
858.864	20864
858.997	20914
859.13	20944
859.263	20910
859.396	20986
859.529	20925
859.662	20754
859.795	20868
859.928	20902
860.061	20944
860.194	21058
860.327	20975
860.46	20872
860.592	20876
860.725	21169
860.858	20956
860.99	20899
861.123	20834
861.256	20788
861.388	20804
861.521	21401
861.653	20731
861.786	20674
861.918	20716
862.05	20807
862.183	20902
862.315	20800
862.447	20823
862.58	20804
862.712	20648
862.844	20408
862.976	20762
863.108	20598
863.24	20967
863.372	20511
863.504	20613
863.636	20651
863.768	20670
863.9	20575
864.032	20503
864.164	20571
864.296	20480
864.428	20712
864.559	20659
864.691	20663
864.823	20507
864.954	20575
865.086	20537
865.217	20564
865.349	20412
865.48	20499
865.612	20488
865.743	20552
865.875	20533
866.006	20450
866.137	20526
866.269	20514
866.4	20518
866.531	20377
866.662	20324
866.793	20389
866.924	20389
867.055	20438
867.186	20427
867.317	20465
867.448	20313
867.579	20454
867.71	20355
867.841	20396
867.972	20511
868.103	20526
868.233	20396
868.364	20480
868.495	20522
868.625	20636
868.756	20765
868.886	20556
869.017	20606
869.147	20750
869.278	20769
869.408	20663
869.539	20625
869.669	20724
869.799	20781
869.929	20842
870.06	20792
870.19	21062
870.32	21009
870.45	21108
870.58	21176
870.71	21112
870.84	21207
870.97	21036
871.1	21211
871.23	21226
871.36	21154
871.489	21154
871.619	21268
871.749	21222
871.879	21405
872.008	21401
872.138	21184
872.267	21249
872.397	21047
872.526	21043
872.656	21188
872.785	21077
872.915	21283
873.044	21443
873.173	21329
873.303	21458
873.432	21348
873.561	21397
873.69	21374
873.819	21176
873.948	21435
874.077	21317
874.206	21272
874.335	21233
874.464	21374
874.593	21515
874.722	21492
874.851	21591
874.979	21572
875.108	21526
875.237	21511
875.365	21485
875.494	21443
875.623	21549
875.751	21622
875.88	21580
876.008	21644
876.136	21766
876.265	22017
876.393	22059
876.521	21937
876.65	22112
876.778	21937
876.906	21869
877.034	21884
877.162	21937
877.29	21930
877.418	21937
877.546	21895
877.674	21918
877.802	21884
877.93	21934
878.058	21850
878.185	21728
878.313	21934
878.441	21804
878.568	21667
878.696	21861
878.824	21907
878.951	21949
879.079	22059
879.206	22162
879.333	22135
879.461	22010
879.588	21937
879.715	21979
879.842	22200
879.97	22063
880.097	21686
880.224	21610
880.351	21732
880.478	21724
880.605	21724
880.732	21637
880.859	22055
880.986	21648
881.112	21793
881.239	21557
881.366	21515
881.493	21321
881.619	21332
881.746	21336
881.872	21283
881.999	21157
882.125	21195
882.252	21260
882.378	21268
882.505	21492
882.631	21188
882.757	20967
882.883	21043
883.01	21005
883.136	21001
883.262	20781
883.388	20781
883.514	21017
883.64	21055
883.766	20823
883.892	20777
884.018	20765
884.143	20925
884.269	21169
884.395	20644
884.52	20689
884.646	20724
884.772	20590
884.897	20537
885.023	20617
885.148	20697
885.274	20857
885.399	20724
885.524	20667
885.65	20632
885.775	20689
885.9	20693
886.025	20769
886.15	20708
886.275	20609
886.4	20602
886.525	20587
886.65	20606
886.775	20568
886.9	20785
887.025	20933
887.149	20689
887.274	20374
887.399	20465
887.523	20518
887.648	20355
887.773	20317
887.897	20564
888.021	20438
888.146	20355
888.27	20484
888.395	20469
888.519	20431
888.643	20366
888.767	20412
888.891	20252
889.015	20366
889.139	20294
889.263	20259
889.387	20370
889.511	20575
889.635	20282
889.759	20202
889.883	20153
890.006	20191
890.13	20286
890.254	20119
890.377	20191
890.501	20012
890.624	19917
890.748	19967
890.871	20027
890.995	19795
891.118	19658
891.241	19852
891.364	19837
891.488	19974
891.611	19791
891.734	19742
891.857	19921
891.98	19795
892.103	19902
892.226	19753
892.349	19791
892.471	19567
892.594	19681
892.717	19849
892.839	19750
892.962	19727
893.085	19723
893.207	19719
893.33	19639
893.452	19712
893.575	19693
893.697	19632
893.819	19814
893.941	19902
894.064	19822
894.186	19681
894.308	19685
894.43	19784
894.552	19845
894.674	19746
894.796	19639
894.918	19750
895.04	19704
895.161	19814
895.283	19738
895.405	19704
895.526	19719
895.648	19780
895.769	19769
895.891	19799
896.012	19826
896.134	19753
896.255	19624
896.376	19666
896.498	19685
896.619	19696
896.74	19742
896.861	19818
896.982	20001
897.103	20134
897.224	19913
897.345	19830
897.466	19940
897.587	20046
897.708	20138
897.828	19864
897.949	19970
898.07	19765
898.19	19909
898.311	20077
898.431	19875
898.552	19936
898.672	19967
898.792	19951
898.913	19944
899.033	19822
899.153	19742
899.273	19734
899.393	19723
899.513	19712
899.633	19784
899.753	19765
899.873	19613
899.993	19776
900.113	19689
900.232	19795
900.352	19704
900.472	19601
900.591	19506
900.711	19499
900.83	19441
900.95	19510
901.069	19529
901.189	19358
901.308	19148
901.427	19084
901.546	19164
901.665	19099
901.784	19069
901.904	19008
902.023	18856
902.141	18665
902.26	18635
902.379	18639
902.498	18544
902.617	18536
902.735	18525
902.854	18506
902.973	18506
903.091	18262
903.21	18213
903.328	18258
903.446	18129
903.565	18129
903.683	18136
903.801	17908
903.919	18030
904.038	18019
904.156	17828
904.274	17931
904.392	17786
904.51	17889
904.627	17912
904.745	17885
904.863	17942
904.981	17687
905.098	17482
905.216	17573
905.334	17395
905.451	17501
905.569	17486
905.686	17554
905.803	17512
905.921	17330
906.038	17421
906.155	17326
906.272	17189
906.389	17239
906.506	17094
906.623	17056
906.74	16942
906.857	16953
906.974	16949
907.091	17029
907.208	17223
907.324	17071
907.441	16980
907.557	16885
907.674	16748
907.79	16778
907.907	16729
908.023	16755
908.139	16763
908.256	16698
908.372	16672
908.488	16733
908.604	16500
908.72	16436
908.836	16523
908.952	16455
909.068	16451
909.184	16580
909.3	16512
909.415	16523
909.531	16508
909.647	16246
909.762	16215
909.878	16090
909.993	16242
910.108	16188
910.224	16059
910.339	16128
910.454	15983
910.57	16006
910.685	16048
910.8	16219
910.915	16257
911.03	16097
911.145	15854
911.259	15804
911.374	15854
911.489	15690
911.604	15690
911.718	15580
911.833	15568
911.947	15587
912.062	15481
912.176	15603
912.291	15564
912.405	15534
912.519	15850
912.633	15797
912.748	15637
912.862	15542
912.976	15382
913.09	15211
913.204	15310
913.318	15348
913.431	15473
913.545	15439
913.659	15401
913.772	15264
913.886	15169
914	15108
914.113	15249
914.226	15256
914.34	15275
914.453	15036
914.566	15161
914.68	15062
914.793	15020
914.906	14872
915.019	14842
915.132	14788
915.245	14693
915.358	14853
915.47	14823
915.583	14868
915.696	14773
915.809	14853
915.921	14933
916.034	14727
916.146	14667
916.259	14640
916.371	14834
916.483	14720
916.595	14621
916.708	14610
916.82	14670
916.932	14568
917.044	14625
917.156	14594
917.268	14518
917.38	14454
917.491	14492
917.603	14442
917.715	14511
917.826	14545
917.938	14434
918.049	14404
918.161	14415
918.272	14549
918.384	14488
918.495	14450
918.606	14191
918.717	14233
918.828	14199
918.939	14301
919.05	14100
919.161	14145
919.272	14024
919.383	14016
919.494	14161
919.604	14427
919.715	14180
919.826	14107
919.936	14210
920.047	14244
920.157	14202
920.267	14412
920.378	14164
920.488	14221
920.598	14328
920.708	14518
920.818	14263
920.928	14351
921.038	14442
921.148	14415
921.258	14134
921.368	14202
921.477	13909
921.587	13928
921.697	13864
921.806	13970
921.916	13814
922.025	13647
922.134	13533
922.244	13567
922.353	13685
922.462	13499
922.571	13445
922.68	13270
922.789	13354
922.898	13324
923.007	13247
923.116	13259
923.224	13202
923.333	13221
923.442	13031
923.55	13084
923.659	13114
923.767	13168
923.876	12932
923.984	13137
924.092	12993
924.201	13008
924.309	12996
924.417	13008
924.525	12935
924.633	12878
924.741	13761
924.849	12730
924.956	12840
925.064	12741
925.172	12616
925.279	12757
925.387	12669
925.494	12722
925.602	12821
925.709	12665
925.816	12582
925.924	12646
926.031	12696
926.138	12578
926.245	12726
926.352	12467
926.459	12654
926.566	12681
926.673	12452
926.779	12448
926.886	12407
926.993	12308
927.099	12254
927.206	12243
927.312	12190
927.419	12201
927.525	12197
927.631	12247
927.737	12140
927.843	12038
927.95	12038
928.056	12079
928.162	12068
928.267	12034
928.373	12707
928.479	12167
928.585	11908
928.69	12049
928.796	12053
928.901	11958
929.007	11760
929.112	11912
929.218	11908
929.323	11843
929.428	11851
929.533	11874
929.638	11775
929.743	11760
929.848	11859
929.953	11729
930.058	11680
930.163	11509
930.267	11539
930.372	11741
930.477	11486
930.581	11756
930.685	11665
930.79	11421
930.894	11478
930.998	11368
931.103	11524
931.207	11159
931.311	11162
931.415	11064
931.519	10824
931.623	10820
