Data from test_V78500241_1476.txt Node
Date: Fri Mar 25 15:20:08 CST 2022
User: usil
Spectrometer: V785-0024
Trigger mode: 0
Integration Time (sec): 4.000000E-1
Scans to average: 1
Nonlinearity correction enabled: false
Boxcar width: 0
Storing dark spectrum: false
XAxis mode: Wavelengths
Number of Pixels in Spectrum: 1024
>>>>>Begin Spectral Data<<<<<
801.071	27979
801.214	27854
801.356	27564
801.499	27511
801.641	27462
801.783	27515
801.926	27618
802.068	27416
802.211	27420
802.353	27256
802.496	27077
802.638	27142
802.78	27093
802.923	27085
803.065	26910
803.208	27070
803.35	27104
803.492	27211
803.635	27287
803.777	27135
803.919	27241
804.061	27606
804.204	27283
804.346	27230
804.488	27100
804.63	27165
804.773	27142
804.915	27374
805.057	27332
805.199	27287
805.341	27412
805.483	27587
805.626	27370
805.768	27173
805.91	27538
806.052	27485
806.194	27359
806.336	27644
806.478	27462
806.62	27439
806.762	27622
806.904	27629
807.046	27914
807.188	27793
807.33	27789
807.472	27945
807.614	27835
807.756	27861
807.898	27724
808.04	27644
808.182	27789
808.324	27717
808.465	27774
808.607	27903
808.749	28101
808.891	28204
809.033	28329
809.174	28169
809.316	28055
809.458	28143
809.6	27972
809.741	28272
809.883	28204
810.025	28462
810.166	28375
810.308	28421
810.45	28303
810.591	28253
810.733	28131
810.875	27998
811.016	27979
811.158	28101
811.299	28120
811.441	28196
811.582	28303
811.724	28109
811.865	27941
812.007	28147
812.148	28048
812.29	28154
812.431	28272
812.573	28303
812.714	28546
812.855	28538
812.997	28736
813.138	28869
813.279	28641
813.421	28630
813.562	28542
813.703	28436
813.845	28462
813.986	28090
814.127	27884
814.268	27724
814.41	27720
814.551	27766
814.692	27732
814.833	27629
814.974	27698
815.115	27743
815.256	27671
815.397	27690
815.539	27587
815.68	27603
815.821	27443
815.962	27637
816.103	27580
816.244	27424
816.385	27378
816.526	27466
816.666	27184
816.807	27161
816.948	27001
817.089	27096
817.23	26979
817.371	27093
817.512	27138
817.653	27055
817.793	27081
817.934	27051
818.075	27001
818.216	27051
818.356	26986
818.497	26937
818.638	26861
818.778	26750
818.919	26746
819.06	26914
819.2	27081
819.341	27058
819.481	27070
819.622	27214
819.762	27374
819.903	27340
820.043	27161
820.184	27188
820.324	27131
820.465	27176
820.605	27260
820.746	27119
820.886	26990
821.026	27085
821.167	27401
821.307	27112
821.447	27024
821.588	26910
821.728	26785
821.868	26629
822.008	26507
822.149	26507
822.289	26667
822.429	26176
822.569	26218
822.709	26088
822.849	26020
822.99	26016
823.13	26092
823.27	25982
823.41	25780
823.55	25746
823.69	25772
823.83	25765
823.97	25704
824.11	25537
824.25	25571
824.389	25590
824.529	25780
824.669	25685
824.809	25704
824.949	25651
825.089	25613
825.228	25750
825.368	25613
825.508	25502
825.648	25377
825.787	25514
825.927	25499
826.067	25514
826.206	25514
826.346	25662
826.485	25548
826.625	25479
826.765	25559
826.904	25597
827.044	25274
827.183	25247
827.323	25148
827.462	25464
827.601	25350
827.741	25266
827.88	25232
828.02	25084
828.159	25255
828.298	25152
828.437	25251
828.577	25270
828.716	25221
828.855	25034
828.994	24916
829.134	24757
829.273	24943
829.412	24806
829.551	24882
829.69	24970
829.829	24985
829.968	24924
830.107	24977
830.246	24882
830.385	24897
830.524	24871
830.663	24696
830.802	24711
830.941	24448
831.08	24452
831.219	24700
831.357	24604
831.496	24840
831.635	24536
831.774	24445
831.913	24414
832.051	24323
832.19	24235
832.329	24445
832.467	24277
832.606	24186
832.744	24136
832.883	24273
833.022	24068
833.16	24266
833.299	24174
833.437	24243
833.576	24300
833.714	24292
833.852	24114
833.991	24365
834.129	24300
834.267	24243
834.406	24205
834.544	24251
834.682	24251
834.821	24315
834.959	24369
835.097	24247
835.235	24323
835.373	24117
835.511	24300
835.65	24121
835.788	24106
835.926	23897
836.064	23863
836.202	23828
836.34	24041
836.478	24228
836.615	23996
836.753	24129
836.891	24136
837.029	24243
837.167	23999
837.305	23942
837.443	23958
837.58	23836
837.718	23946
837.856	24087
837.993	23893
838.131	23870
838.269	23859
838.406	23809
838.544	23684
838.681	23608
838.819	23581
838.956	23509
839.094	23474
839.231	23372
839.369	23592
839.506	23771
839.643	23627
839.781	23368
839.918	23364
840.055	23356
840.193	23220
840.33	23269
840.467	23280
840.604	23398
840.742	23752
840.879	23242
841.016	23250
841.153	23143
841.29	23315
841.427	23284
841.564	23337
841.701	23296
841.838	23273
841.975	23185
842.112	23200
842.249	23140
842.385	23041
842.522	23353
842.659	23018
842.796	23029
842.933	23086
843.069	22984
843.206	22999
843.343	23132
843.479	23147
843.616	23109
843.752	22938
843.889	22976
844.025	22995
844.162	22736
844.298	22953
844.435	22824
844.571	22828
844.708	23010
844.844	22965
844.98	22972
845.117	22938
845.253	22824
845.389	22748
845.525	22691
845.661	22748
845.798	22588
845.934	22607
846.07	22603
846.206	22531
846.342	22683
846.478	22485
846.614	22268
846.75	22166
846.886	22238
847.022	22462
847.158	22386
847.294	22166
847.429	22382
847.565	22257
847.701	22489
847.837	22162
847.972	21892
848.108	22150
848.244	22059
848.379	21869
848.515	21819
848.65	21831
848.786	21827
848.921	21819
849.057	21960
849.192	21987
849.328	21922
849.463	21774
849.598	21698
849.734	21880
849.869	21778
850.004	21717
850.14	21663
850.275	21694
850.41	21599
850.545	21603
850.68	21610
850.815	21614
850.95	21652
851.085	21793
851.22	21766
851.355	21660
851.49	21583
851.625	21549
851.76	21633
851.895	21614
852.03	21614
852.165	21679
852.299	21603
852.434	21797
852.569	21648
852.703	21656
852.838	21599
852.973	21800
853.107	21743
853.242	21614
853.376	21519
853.511	21408
853.645	21458
853.78	21660
853.914	21564
854.048	21469
854.183	21450
854.317	21515
854.451	21671
854.585	21329
854.72	21481
854.854	21606
854.988	21500
855.122	21344
855.256	21401
855.39	21469
855.524	21538
855.658	21485
855.792	21473
855.926	21519
856.06	21580
856.194	21603
856.327	21507
856.461	21420
856.595	21447
856.729	21431
856.862	21599
856.996	21500
857.13	21599
857.263	21561
857.397	21477
857.53	21507
857.664	21580
857.797	21572
857.931	21511
858.064	21466
858.197	21447
858.331	21386
858.464	21420
858.597	21291
858.731	21355
858.864	21264
858.997	21408
859.13	21488
859.263	21511
859.396	21507
859.529	21435
859.662	21435
859.795	21325
859.928	21469
860.061	21519
860.194	21534
860.327	21526
860.46	21488
860.592	21545
860.725	21538
860.858	21656
860.99	21534
861.123	21420
861.256	21420
861.388	21363
861.521	21994
861.653	21355
861.786	21161
861.918	21317
862.05	21359
862.183	21306
862.315	21336
862.447	21424
862.58	21268
862.712	21245
862.844	21142
862.976	21203
863.108	21321
863.24	21743
863.372	21188
863.504	21226
863.636	21230
863.768	21230
863.9	21157
864.032	21100
864.164	21173
864.296	21188
864.428	21329
864.559	21161
864.691	21203
864.823	21218
864.954	21146
865.086	21077
865.217	21005
865.349	20982
865.48	21032
865.612	21081
865.743	21142
865.875	21123
866.006	21074
866.137	20967
866.269	21047
866.4	21093
866.531	21051
866.662	21085
866.793	21005
866.924	20982
867.055	20967
867.186	20986
867.317	20990
867.448	20765
867.579	20918
867.71	20929
867.841	20929
867.972	20998
868.103	20956
868.233	21039
868.364	20979
868.495	21081
868.625	21116
868.756	21291
868.886	21131
869.017	21199
869.147	21287
869.278	21306
869.408	21321
869.539	21268
869.669	21230
869.799	21283
869.929	21370
870.06	21272
870.19	21542
870.32	21458
870.45	21545
870.58	21561
870.71	21682
870.84	21739
870.97	21614
871.1	21564
871.23	21808
871.36	21797
871.489	21679
871.619	21698
871.749	21720
871.879	21835
872.008	21949
872.138	21762
872.267	21911
872.397	21709
872.526	21717
872.656	21652
872.785	21705
872.915	21861
873.044	21972
873.173	21835
873.303	21934
873.432	21945
873.561	21907
873.69	21838
873.819	21838
873.948	21907
874.077	21903
874.206	21797
874.335	21945
874.464	21979
874.593	22078
874.722	21926
874.851	22017
874.979	21994
875.108	22032
875.237	22017
875.365	21953
875.494	22036
875.623	22063
875.751	21934
875.88	22135
876.008	22109
876.136	22253
876.265	22493
876.393	22474
876.521	22413
876.65	22478
876.778	22443
876.906	22424
877.034	22360
877.162	22493
877.29	22341
877.418	22470
877.546	22402
877.674	22500
877.802	22459
877.93	22478
878.058	22344
878.185	22162
878.313	22382
878.441	22318
878.568	22226
878.696	22413
878.824	22443
878.951	22485
879.079	22542
879.206	22740
879.333	22569
879.461	22447
879.588	22550
879.715	22497
879.842	22679
879.97	22394
880.097	22280
880.224	22246
880.351	22238
880.478	22238
880.605	22143
880.732	22230
880.859	22386
880.986	22333
881.112	22265
881.239	22188
881.366	21934
881.493	21861
881.619	21831
881.746	21865
881.872	21774
881.999	21751
882.125	21747
882.252	21629
882.378	21804
882.505	21846
882.631	21557
882.757	21542
882.883	21557
883.01	21591
883.136	21473
883.262	21386
883.388	21355
883.514	21538
883.64	21549
883.766	21473
883.892	21329
884.018	21306
884.143	21481
884.269	21469
884.395	21199
884.52	21119
884.646	21173
884.772	21081
884.897	21047
885.023	21173
885.148	21207
885.274	21203
885.399	21256
885.524	21108
885.65	21096
885.775	21150
885.9	21169
886.025	21169
886.15	21279
886.275	21074
886.4	20910
886.525	21146
886.65	21077
886.775	21070
886.9	21355
887.025	21245
887.149	20967
887.274	20960
887.399	20876
887.523	20853
887.648	20925
887.773	20853
887.897	20990
888.021	20887
888.146	20819
888.27	20998
888.395	20948
888.519	20777
888.643	20982
888.767	20895
888.891	20731
889.015	20682
889.139	20670
889.263	20731
889.387	20815
889.511	20910
889.635	20773
889.759	20655
889.883	20686
890.006	20712
890.13	20819
890.254	20655
890.377	20644
890.501	20423
890.624	20438
890.748	20499
890.871	20301
890.995	20317
891.118	20240
891.241	20305
891.364	20313
891.488	20347
891.611	20324
891.734	20324
891.857	20278
891.98	20366
892.103	20267
892.226	20214
892.349	20267
892.471	20172
892.594	20145
892.717	20168
892.839	20107
892.962	20225
893.085	20138
893.207	20024
893.33	20054
893.452	20046
893.575	20145
893.697	20142
893.819	20351
893.941	20248
894.064	20370
894.186	20065
894.308	20138
894.43	20214
894.552	20309
894.674	20240
894.796	20081
894.918	20119
895.04	20126
895.161	20157
895.283	20176
895.405	20046
895.526	20218
895.648	20229
895.769	20153
895.891	20290
896.012	20263
896.134	20305
896.255	20233
896.376	20058
896.498	20183
896.619	20145
896.74	20035
896.861	20336
896.982	20473
897.103	20674
897.224	20336
897.345	20457
897.466	20374
897.587	20412
897.708	20423
897.828	20473
897.949	20522
898.07	20286
898.19	20320
898.311	20480
898.431	20431
898.552	20389
898.672	20347
898.792	20404
898.913	20412
899.033	20271
899.153	20206
899.273	19993
899.393	20225
899.513	20122
899.633	20039
899.753	20062
899.873	20126
899.993	20100
900.113	20050
900.232	20088
900.352	20035
900.472	20031
900.591	19925
900.711	19887
900.83	19906
900.95	19936
901.069	19963
901.189	19731
901.308	19518
901.427	19537
901.546	19419
901.665	19464
901.784	19369
901.904	19396
902.023	19304
902.141	19110
902.26	19038
902.379	19141
902.498	19061
902.617	18932
902.735	19038
902.854	18833
902.973	18996
903.091	18692
903.21	18642
903.328	18684
903.446	18692
903.565	18566
903.683	18521
903.801	18380
903.919	18407
904.038	18467
904.156	18209
904.274	18353
904.392	18292
904.51	18174
904.627	18155
904.745	18155
904.863	18262
904.981	18041
905.098	17893
905.216	17988
905.334	18007
905.451	17927
905.569	17912
905.686	17942
905.803	17920
905.921	17745
906.038	17779
906.155	17585
906.272	17604
906.389	17528
906.506	17532
906.623	17459
906.74	17516
906.857	17254
906.974	17364
907.091	17547
907.208	17497
907.324	17535
907.441	17376
907.557	17322
907.674	17261
907.79	17143
907.907	17041
908.023	17181
908.139	17189
908.256	17166
908.372	17162
908.488	17083
908.604	16957
908.72	16850
908.836	16839
908.952	16736
909.068	16847
909.184	16927
909.3	16873
909.415	16938
909.531	16896
909.647	16615
909.762	16569
909.878	16451
909.993	16637
910.108	16485
910.224	16527
910.339	16584
910.454	16432
910.57	16413
910.685	16409
910.8	16653
910.915	16527
911.03	16367
911.145	16158
911.259	16112
911.374	16158
911.489	16116
911.604	16036
911.718	15949
911.833	15918
911.947	15705
912.062	15675
912.176	15987
912.291	15994
912.405	15987
912.519	16105
912.633	16029
912.748	15991
912.862	15907
912.976	15751
913.09	15660
913.204	15682
913.318	15766
913.431	15835
913.545	15739
913.659	15895
913.772	15720
913.886	15603
914	15557
914.113	15652
914.226	15580
914.34	15587
914.453	15431
914.566	15515
914.68	15340
914.793	15431
914.906	15226
915.019	15093
915.132	15119
915.245	15138
915.358	15001
915.47	15131
915.583	15146
915.696	15214
915.809	15272
915.921	15283
916.034	15077
916.146	15100
916.259	15074
916.371	15051
916.483	15123
916.595	14994
916.708	14994
916.82	14990
916.932	14971
917.044	14975
917.156	14933
917.268	14891
917.38	14823
917.491	14754
917.603	14804
917.715	14868
917.826	14807
917.938	14743
918.049	14617
918.161	14773
918.272	14880
918.384	14967
918.495	14750
918.606	14640
918.717	14552
918.828	14594
918.939	14560
919.05	14522
919.161	14495
919.272	14370
919.383	14377
919.494	14583
919.604	14788
919.715	14636
919.826	14450
919.936	14476
920.047	14640
920.157	14480
920.267	14705
920.378	14610
920.488	14381
920.598	14667
920.708	14785
920.818	14697
920.928	14625
921.038	14754
921.148	14777
921.258	14511
921.368	14377
921.477	14317
921.587	14199
921.697	14103
921.806	14317
921.916	14130
922.025	13963
922.134	13818
922.244	13868
922.353	13871
922.462	13788
922.571	13620
922.68	13609
922.789	13643
922.898	13559
923.007	13460
923.116	13578
923.224	13537
923.333	13464
923.442	13434
923.55	13350
923.659	13384
923.767	13304
923.876	13293
923.984	13476
924.092	13308
924.201	13354
924.309	13270
924.417	13217
924.525	13202
924.633	13213
924.741	14065
924.849	12928
924.956	13209
925.064	12935
925.172	12886
925.279	12951
925.387	13019
925.494	12909
925.602	12993
925.709	13084
925.816	12848
925.924	12867
926.031	13015
926.138	12890
926.245	12928
926.352	12848
926.459	12939
926.566	13008
926.673	12787
926.779	12726
926.886	12669
926.993	12597
927.099	12589
927.206	12532
927.312	12585
927.419	12540
927.525	12521
927.631	12544
927.737	12429
927.843	12437
927.95	12266
928.056	12346
928.162	12334
928.267	12361
928.373	12871
928.479	12452
928.585	12163
928.69	12289
928.796	12311
928.901	12239
929.007	12057
929.112	12247
929.218	12144
929.323	12102
929.428	12007
929.533	12098
929.638	11988
929.743	12041
929.848	12110
929.953	12038
930.058	11954
930.163	11691
930.267	11729
930.372	11996
930.477	11684
930.581	12011
930.685	11847
930.79	11665
930.894	11604
930.998	11722
931.103	11684
931.207	11497
931.311	11341
931.415	11265
931.519	10984
931.623	11113
