Data from test_V78500241_3577.txt Node
Date: Fri Mar 25 15:34:45 CST 2022
User: usil
Spectrometer: V785-0024
Trigger mode: 0
Integration Time (sec): 4.000000E-1
Scans to average: 1
Nonlinearity correction enabled: false
Boxcar width: 0
Storing dark spectrum: false
XAxis mode: Wavelengths
Number of Pixels in Spectrum: 1024
>>>>>Begin Spectral Data<<<<<
801.071	27272
801.214	27310
801.356	27104
801.499	27013
801.641	26963
801.783	26937
801.926	27051
802.068	26952
802.211	26773
802.353	26792
802.496	26629
802.638	26678
802.78	26648
802.923	26457
803.065	26351
803.208	26446
803.35	26393
803.492	26632
803.635	26701
803.777	26659
803.919	26765
804.061	27036
804.204	26826
804.346	26720
804.488	26579
804.63	26587
804.773	26678
804.915	26590
805.057	26845
805.199	26716
805.341	26769
805.483	26823
805.626	26731
805.768	26796
805.91	26769
806.052	26880
806.194	26830
806.336	27009
806.478	26845
806.62	26701
806.762	26933
806.904	27116
807.046	27256
807.188	27207
807.33	27195
807.472	27256
807.614	27199
807.756	27154
807.898	27119
808.04	27047
808.182	27032
808.324	27020
808.465	27077
808.607	27294
808.749	27351
808.891	27427
809.033	27736
809.174	27431
809.316	27317
809.458	27488
809.6	27363
809.741	27469
809.883	27542
810.025	27641
810.166	27717
810.308	27713
810.45	27641
810.591	27625
810.733	27420
810.875	27355
811.016	27268
811.158	27344
811.299	27549
811.441	27564
811.582	27599
811.724	27416
811.865	27340
812.007	27401
812.148	27355
812.29	27519
812.431	27663
812.573	27671
812.714	27713
812.855	27884
812.997	28101
813.138	28196
813.279	28067
813.421	27934
813.562	27812
813.703	27671
813.845	27526
813.986	27389
814.127	27161
814.268	27249
814.41	27089
814.551	27131
814.692	27055
814.833	26967
814.974	27116
815.115	27116
815.256	26807
815.397	26963
815.539	26971
815.68	26857
815.821	26689
815.962	26796
816.103	26746
816.244	26583
816.385	26492
816.526	26507
816.666	26332
816.807	26358
816.948	26404
817.089	26320
817.23	26362
817.371	26351
817.512	26305
817.653	26404
817.793	26282
817.934	26324
818.075	26408
818.216	26442
818.356	26305
818.497	26332
818.638	26058
818.778	25989
818.919	26001
819.06	26126
819.2	26233
819.341	26370
819.481	26263
819.622	26427
819.762	26648
819.903	26606
820.043	26564
820.184	26419
820.324	26480
820.465	26537
820.605	26393
820.746	26408
820.886	26343
821.026	26385
821.167	26377
821.307	26507
821.447	26355
821.588	26221
821.728	26039
821.868	25959
822.008	25898
822.149	25898
822.289	25799
822.429	25540
822.569	25479
822.709	25453
822.849	25312
822.99	25282
823.13	25244
823.27	25251
823.41	25148
823.55	25103
823.69	25091
823.83	25126
823.97	25198
824.11	24844
824.25	25046
824.389	24943
824.529	25057
824.669	24916
824.809	25061
824.949	25152
825.089	25023
825.228	25072
825.368	24844
825.508	24783
825.648	24833
825.787	24821
825.927	24894
826.067	24825
826.206	24779
826.346	24837
826.485	24901
826.625	24954
826.765	24890
826.904	24848
827.044	24642
827.183	24486
827.323	24623
827.462	24551
827.601	24734
827.741	24540
827.88	24639
828.02	24403
828.159	24486
828.298	24544
828.437	24521
828.577	24509
828.716	24681
828.855	24521
828.994	24243
829.134	24247
829.273	24338
829.412	24213
829.551	24220
829.69	24292
829.829	24273
829.968	24353
830.107	24357
830.246	24083
830.385	24213
830.524	24346
830.663	24106
830.802	24057
830.941	24015
831.08	23901
831.219	23977
831.357	23950
831.496	24110
831.635	23889
831.774	23737
831.913	23775
832.051	23684
832.19	23726
832.329	23710
832.467	23490
832.606	23429
832.744	23657
832.883	23524
833.022	23619
833.16	23608
833.299	23581
833.437	23646
833.576	23786
833.714	23615
833.852	23722
833.991	23741
834.129	23767
834.267	23752
834.406	23634
834.544	23760
834.682	23649
834.821	23676
834.959	23790
835.097	23573
835.235	23684
835.373	23672
835.511	23615
835.65	23463
835.788	23452
835.926	23280
836.064	23185
836.202	23353
836.34	23474
836.478	23604
836.615	23554
836.753	23589
836.891	23543
837.029	23573
837.167	23436
837.305	23444
837.443	23421
837.58	23288
837.718	23318
837.856	23433
837.993	23254
838.131	23398
838.269	23299
838.406	23155
838.544	23147
838.681	22999
838.819	23037
838.956	22782
839.094	22797
839.231	22919
839.369	23105
839.506	23155
839.643	23037
839.781	22816
839.918	22786
840.055	22824
840.193	22820
840.33	22797
840.467	22767
840.604	22881
840.742	23037
840.879	22569
841.016	22637
841.153	22641
841.29	22816
841.427	22649
841.564	22866
841.701	22733
841.838	22626
841.975	22664
842.112	22694
842.249	22725
842.385	22394
842.522	22847
842.659	22672
842.796	22603
842.933	22531
843.069	22325
843.206	22535
843.343	22584
843.479	22538
843.616	22481
843.752	22230
843.889	22261
844.025	22413
844.162	22242
844.298	22261
844.435	22284
844.571	22299
844.708	22352
844.844	22443
844.98	22405
845.117	22375
845.253	22272
845.389	22082
845.525	22169
845.661	22109
845.798	22029
845.934	22177
846.07	22006
846.206	22059
846.342	22219
846.478	22017
846.614	21876
846.75	21804
846.886	21698
847.022	21850
847.158	21739
847.294	21778
847.429	21762
847.565	21717
847.701	22013
847.837	21496
847.972	21462
848.108	21637
848.244	21671
848.379	21325
848.515	21351
848.65	21268
848.786	21370
848.921	21378
849.057	21462
849.192	21507
849.328	21477
849.463	21412
849.598	21256
849.734	21386
849.869	21165
850.004	21146
850.14	21017
850.275	21154
850.41	21104
850.545	21104
850.68	21036
850.815	21096
850.95	21165
851.085	21408
851.22	21173
851.355	21123
851.49	21070
851.625	21173
851.76	21077
851.895	21043
852.03	21135
852.165	21036
852.299	21199
852.434	21222
852.569	21233
852.703	21020
852.838	21104
852.973	21252
853.107	21272
853.242	21028
853.376	20971
853.511	20872
853.645	20925
853.78	21157
853.914	20872
854.048	21013
854.183	20986
854.317	20918
854.451	21142
854.585	20925
854.72	20823
854.854	21020
854.988	20982
855.122	21039
855.256	20883
855.39	20864
855.524	20967
855.658	20998
855.792	20864
855.926	20853
856.06	21062
856.194	21024
856.327	20929
856.461	20842
856.595	20845
856.729	20914
856.862	20975
856.996	20982
857.13	21039
857.263	21047
857.397	21116
857.53	20918
857.664	20990
857.797	21093
857.931	21150
858.064	20975
858.197	21108
858.331	20906
858.464	20861
858.597	20762
858.731	20807
858.864	20910
858.997	20887
859.13	21013
859.263	20872
859.396	21024
859.529	20864
859.662	20948
859.795	20891
859.928	20887
860.061	21058
860.194	21195
860.327	20994
860.46	20895
860.592	21100
860.725	21005
860.858	20941
860.99	20956
861.123	20937
861.256	20952
861.388	20899
861.521	21774
861.653	20716
861.786	20781
861.918	20750
862.05	20838
862.183	20876
862.315	20914
862.447	21039
862.58	20948
862.712	20674
862.844	20590
862.976	20712
863.108	20632
863.24	21112
863.372	20590
863.504	20587
863.636	20678
863.768	20758
863.9	20674
864.032	20655
864.164	20514
864.296	20788
864.428	20765
864.559	20678
864.691	20819
864.823	20773
864.954	20503
865.086	20655
865.217	20663
865.349	20469
865.48	20571
865.612	20636
865.743	20571
865.875	20598
866.006	20549
866.137	20556
866.269	20533
866.4	20503
866.531	20499
866.662	20503
866.793	20594
866.924	20480
867.055	20552
867.186	20530
867.317	20514
867.448	20484
867.579	20530
867.71	20514
867.841	20541
867.972	20575
868.103	20560
868.233	20594
868.364	20423
868.495	20617
868.625	20773
868.756	20804
868.886	20651
869.017	20826
869.147	20815
869.278	20883
869.408	20731
869.539	20891
869.669	20746
869.799	20785
869.929	20872
870.06	20773
870.19	20982
870.32	20990
870.45	21123
870.58	21214
870.71	21249
870.84	21108
870.97	21051
871.1	21138
871.23	21245
871.36	21367
871.489	21199
871.619	21283
871.749	21268
871.879	21241
872.008	21477
872.138	21325
872.267	21325
872.397	21199
872.526	21116
872.656	21058
872.785	21218
872.915	21431
873.044	21462
873.173	21393
873.303	21291
873.432	21378
873.561	21545
873.69	21389
873.819	21519
873.948	21408
874.077	21374
874.206	21245
874.335	21374
874.464	21496
874.593	21576
874.722	21504
874.851	21663
874.979	21675
875.108	21698
875.237	21587
875.365	21485
875.494	21523
875.623	21797
875.751	21614
875.88	21629
876.008	21694
876.136	21816
876.265	21907
876.393	22078
876.521	22097
876.65	22101
876.778	21964
876.906	21941
877.034	22044
877.162	22002
877.29	21934
877.418	21983
877.546	21949
877.674	21922
877.802	22010
877.93	21983
878.058	21816
878.185	21739
878.313	21964
878.441	21922
878.568	21778
878.696	21823
878.824	21911
878.951	21991
879.079	22105
879.206	22242
879.333	22185
879.461	21987
879.588	22181
879.715	22223
879.842	22295
879.97	22070
880.097	21804
880.224	21751
880.351	21857
880.478	21888
880.605	21633
880.732	21854
880.859	21937
880.986	21762
881.112	21865
881.239	21663
881.366	21557
881.493	21428
881.619	21363
881.746	21370
881.872	21340
881.999	21367
882.125	21237
882.252	21325
882.378	21291
882.505	21416
882.631	21123
882.757	21138
882.883	21169
883.01	21085
883.136	21066
883.262	20944
883.388	20887
883.514	21001
883.64	21032
883.766	21062
883.892	20845
884.018	20845
884.143	21017
884.269	20925
884.395	20811
884.52	20667
884.646	20838
884.772	20712
884.897	20648
885.023	20689
885.148	20796
885.274	20861
885.399	20796
885.524	20655
885.65	20701
885.775	20716
885.9	20712
886.025	20823
886.15	20788
886.275	20701
886.4	20568
886.525	20636
886.65	20602
886.775	20629
886.9	20807
887.025	20918
887.149	20571
887.274	20545
887.399	20484
887.523	20385
887.648	20400
887.773	20476
887.897	20450
888.021	20499
888.146	20313
888.27	20541
888.395	20560
888.519	20461
888.643	20362
888.767	20514
888.891	20358
889.015	20252
889.139	20355
889.263	20244
889.387	20393
889.511	20396
889.635	20476
889.759	20343
889.883	20290
890.006	20153
890.13	20469
890.254	20206
890.377	20233
890.501	20062
890.624	20050
890.748	20107
890.871	19989
890.995	19742
891.118	19712
891.241	19928
891.364	19803
891.488	20008
891.611	19913
891.734	19852
891.857	19959
891.98	19795
892.103	19898
892.226	19913
892.349	19902
892.471	19677
892.594	19845
892.717	19791
892.839	19871
892.962	19788
893.085	19757
893.207	19788
893.33	19639
893.452	19620
893.575	19811
893.697	19738
893.819	19986
893.941	19951
894.064	19906
894.186	19704
894.308	19742
894.43	19856
894.552	20088
894.674	19845
894.796	19746
894.918	19742
895.04	19662
895.161	19826
895.283	19852
895.405	19677
895.526	19803
895.648	19849
895.769	19822
895.891	19845
896.012	19887
896.134	19719
896.255	19803
896.376	19761
896.498	19784
896.619	19871
896.74	19685
896.861	19723
896.982	20016
897.103	20218
897.224	19928
897.345	19974
897.466	19940
897.587	20077
897.708	20122
897.828	20088
897.949	19974
898.07	19696
898.19	19894
898.311	20046
898.431	19917
898.552	19955
898.672	20001
898.792	20016
898.913	20065
899.033	19890
899.153	19811
899.273	19719
899.393	19727
899.513	19765
899.633	19715
899.753	19738
899.873	19689
899.993	19689
900.113	19647
900.232	19822
900.352	19616
900.472	19597
900.591	19556
900.711	19609
900.83	19453
900.95	19651
901.069	19586
901.189	19411
901.308	19225
901.427	19038
901.546	19183
901.665	19198
901.784	19046
901.904	18958
902.023	18932
902.141	18669
902.26	18620
902.379	18738
902.498	18631
902.617	18623
902.735	18555
902.854	18513
902.973	18582
903.091	18319
903.21	18304
903.328	18311
903.446	18213
903.565	18140
903.683	18136
903.801	18015
903.919	18083
904.038	17988
904.156	17855
904.274	17946
904.392	17794
904.51	17821
904.627	17863
904.745	17977
904.863	17980
904.981	17737
905.098	17539
905.216	17562
905.334	17687
905.451	17528
905.569	17604
905.686	17604
905.803	17585
905.921	17463
906.038	17551
906.155	17417
906.272	17193
906.389	17292
906.506	17048
906.623	17159
906.74	17041
906.857	16980
906.974	16957
907.091	17143
907.208	17261
907.324	17098
907.441	16995
907.557	16854
907.674	16835
907.79	16679
907.907	16778
908.023	16717
908.139	16831
908.256	16763
908.372	16782
908.488	16740
908.604	16584
908.72	16580
908.836	16577
908.952	16527
909.068	16558
909.184	16660
909.3	16527
909.415	16519
909.531	16546
909.647	16322
909.762	16215
909.878	16291
909.993	16242
910.108	16173
910.224	16150
910.339	16257
910.454	16090
910.57	16109
910.685	15994
910.8	16314
910.915	16215
911.03	16048
911.145	15873
911.259	15762
911.374	15884
911.489	15793
911.604	15690
911.718	15561
911.833	15587
911.947	15504
912.062	15393
912.176	15667
912.291	15694
912.405	15526
912.519	15804
912.633	15816
912.748	15679
912.862	15530
912.976	15507
913.09	15321
913.204	15363
913.318	15428
913.431	15500
913.545	15507
913.659	15485
913.772	15408
913.886	15294
914	15245
914.113	15233
914.226	15336
914.34	15306
914.453	15123
914.566	15310
914.68	15161
914.793	15051
914.906	14845
915.019	14800
915.132	14758
915.245	14758
915.358	14853
915.47	14804
915.583	14872
915.696	14895
915.809	14906
915.921	14910
916.034	14720
916.146	14796
916.259	14773
916.371	14804
916.483	14800
916.595	14602
916.708	14621
916.82	14617
916.932	14743
917.044	14610
917.156	14617
917.268	14522
917.38	14556
917.491	14434
917.603	14511
917.715	14640
917.826	14629
917.938	14393
918.049	14370
918.161	14434
918.272	14579
918.384	14625
918.495	14415
918.606	14320
918.717	14077
918.828	14347
918.939	14286
919.05	14191
919.161	14221
919.272	14027
919.383	14031
919.494	14259
919.604	14518
919.715	14164
919.826	14233
919.936	14240
920.047	14267
920.157	14244
920.267	14370
920.378	14218
920.488	14225
920.598	14381
920.708	14488
920.818	14385
920.928	14328
921.038	14533
921.148	14484
921.258	14149
921.368	14103
921.477	14024
921.587	13902
921.697	13803
921.806	13974
921.916	13947
922.025	13651
922.134	13582
922.244	13590
922.353	13700
922.462	13537
922.571	13422
922.68	13266
922.789	13274
922.898	13304
923.007	13156
923.116	13335
923.224	13327
923.333	13278
923.442	13133
923.55	13012
923.659	13160
923.767	13194
923.876	13091
923.984	13031
924.092	13034
924.201	13046
924.309	12973
924.417	12966
924.525	12928
924.633	12943
924.741	13879
924.849	12749
924.956	12833
925.064	12730
925.172	12582
925.279	12745
925.387	12707
925.494	12749
925.602	12867
925.709	12692
925.816	12536
925.924	12707
926.031	12814
926.138	12639
926.245	12700
926.352	12464
926.459	12669
926.566	12684
926.673	12559
926.779	12456
926.886	12528
926.993	12285
927.099	12334
927.206	12232
927.312	12216
927.419	12262
927.525	12262
927.631	12224
927.737	12175
927.843	12095
927.95	12030
928.056	12129
928.162	12117
928.267	12148
928.373	12631
928.479	12152
928.585	11984
928.69	11984
928.796	12155
928.901	12026
929.007	11855
929.112	12011
929.218	11889
929.323	11832
929.428	11745
929.533	11847
929.638	11821
929.743	11855
929.848	11889
929.953	11748
930.058	11642
930.163	11425
930.267	11543
930.372	11657
930.477	11372
930.581	11695
930.685	11566
930.79	11417
930.894	11440
930.998	11334
931.103	11501
931.207	11204
931.311	11079
931.415	11136
931.519	10847
931.623	10816
