Data from test_V78500241_2472.txt Node
Date: Fri Mar 25 15:27:04 CST 2022
User: usil
Spectrometer: V785-0024
Trigger mode: 0
Integration Time (sec): 4.000000E-1
Scans to average: 1
Nonlinearity correction enabled: false
Boxcar width: 0
Storing dark spectrum: false
XAxis mode: Wavelengths
Number of Pixels in Spectrum: 1024
>>>>>Begin Spectral Data<<<<<
801.071	27199
801.214	27017
801.356	26925
801.499	26838
801.641	26678
801.783	26609
801.926	26678
802.068	26701
802.211	26453
802.353	26609
802.496	26381
802.638	26339
802.78	26278
802.923	26267
803.065	26176
803.208	26339
803.35	26328
803.492	26366
803.635	26473
803.777	26301
803.919	26396
804.061	26777
804.204	26522
804.346	26495
804.488	26423
804.63	26393
804.773	26389
804.915	26526
805.057	26492
805.199	26385
805.341	26446
805.483	26457
805.626	26488
805.768	26434
805.91	26526
806.052	26533
806.194	26617
806.336	26735
806.478	26655
806.62	26613
806.762	26663
806.904	26800
807.046	27150
807.188	26895
807.33	27028
807.472	26979
807.614	26960
807.756	26823
807.898	26838
808.04	26834
808.182	26796
808.324	26982
808.465	26842
808.607	27028
808.749	27294
808.891	27222
809.033	27249
809.174	27230
809.316	27138
809.458	27085
809.6	27085
809.741	27214
809.883	27230
810.025	27439
810.166	27359
810.308	27393
810.45	27473
810.591	27302
810.733	27104
810.875	27020
811.016	26998
811.158	27272
811.299	27370
811.441	27340
811.582	27420
811.724	27218
811.865	27199
812.007	27047
812.148	27036
812.29	27074
812.431	27241
812.573	27454
812.714	27564
812.855	27496
812.997	27717
813.138	27918
813.279	27762
813.421	27595
813.562	27492
813.703	27351
813.845	27260
813.986	26990
814.127	26872
814.268	26853
814.41	26739
814.551	26861
814.692	26811
814.833	26796
814.974	26708
815.115	26819
815.256	26640
815.397	26659
815.539	26590
815.68	26568
815.821	26480
815.962	26667
816.103	26457
816.244	26507
816.385	26343
816.526	26374
816.666	26100
816.807	26020
816.948	26092
817.089	26134
817.23	26084
817.371	26050
817.512	26069
817.653	26088
817.793	26024
817.934	26008
818.075	26054
818.216	26058
818.356	25856
818.497	25997
818.638	25727
818.778	25734
818.919	25845
819.06	26005
819.2	25951
819.341	26065
819.481	25978
819.622	26191
819.762	26427
819.903	26229
820.043	26103
820.184	26107
820.324	26138
820.465	26183
820.605	26172
820.746	26031
820.886	25898
821.026	26138
821.167	26157
821.307	26084
821.447	25944
821.588	25864
821.728	25765
821.868	25548
822.008	25441
822.149	25476
822.289	25468
822.429	25133
822.569	25118
822.709	25038
822.849	25107
822.99	24958
823.13	25000
823.27	24958
823.41	24951
823.55	24783
823.69	24711
823.83	24916
823.97	24696
824.11	24620
824.25	24661
824.389	24616
824.529	24734
824.669	24620
824.809	24719
824.949	24711
825.089	24616
825.228	24749
825.368	24426
825.508	24471
825.648	24475
825.787	24559
825.927	24528
826.067	24486
826.206	24479
826.346	24700
826.485	24540
826.625	24414
826.765	24669
826.904	24475
827.044	24330
827.183	24338
827.323	24148
827.462	24311
827.601	24254
827.741	24224
827.88	24277
828.02	24117
828.159	24152
828.298	24266
828.437	24213
828.577	24060
828.716	24285
828.855	24186
828.994	23980
829.134	23965
829.273	24003
829.412	23901
829.551	23916
829.69	23935
829.829	24060
829.968	24125
830.107	24018
830.246	23863
830.385	23874
830.524	23843
830.663	23707
830.802	23722
830.941	23577
831.08	23547
831.219	23436
831.357	23440
831.496	23741
831.635	23543
831.774	23356
831.913	23360
832.051	23353
832.19	23311
832.329	23414
832.467	23280
832.606	23102
832.744	23292
832.883	23098
833.022	23132
833.16	23220
833.299	23296
833.437	23220
833.576	23223
833.714	23235
833.852	23360
833.991	23208
834.129	23318
834.267	23353
834.406	23246
834.544	23204
834.682	23292
834.821	23280
834.959	23501
835.097	23322
835.235	23269
835.373	23315
835.511	23303
835.65	23124
835.788	23147
835.926	23006
836.064	22930
836.202	22820
836.34	23056
836.478	23140
836.615	23113
836.753	23064
836.891	23284
837.029	23083
837.167	22987
837.305	22908
837.443	22991
837.58	22946
837.718	23105
837.856	23079
837.993	22927
838.131	22889
838.269	22869
838.406	22953
838.544	22805
838.681	22630
838.819	22694
838.956	22440
839.094	22527
839.231	22455
839.369	22599
839.506	22862
839.643	22668
839.781	22504
839.918	22485
840.055	22394
840.193	22390
840.33	22325
840.467	22481
840.604	22584
840.742	22717
840.879	22322
841.016	22310
841.153	22375
841.29	22527
841.427	22268
841.564	22375
841.701	22466
841.838	22398
841.975	22272
842.112	22402
842.249	22325
842.385	22116
842.522	22538
842.659	22268
842.796	22162
842.933	22181
843.069	22059
843.206	22112
843.343	22261
843.479	22105
843.616	22265
843.752	21937
843.889	21911
844.025	21998
844.162	21918
844.298	21987
844.435	21861
844.571	21972
844.708	21968
844.844	22105
844.98	22040
845.117	21975
845.253	21907
845.389	21629
845.525	21789
845.661	21873
845.798	21690
845.934	21743
846.07	21633
846.206	21648
846.342	21778
846.478	21549
846.614	21473
846.75	21355
846.886	21378
847.022	21519
847.158	21412
847.294	21367
847.429	21393
847.565	21393
847.701	21595
847.837	21123
847.972	21165
848.108	21150
848.244	21135
848.379	21154
848.515	20967
848.65	20944
848.786	20994
848.921	20941
849.057	21096
849.192	21138
849.328	21100
849.463	21028
849.598	20971
849.734	20914
849.869	20864
850.004	20769
850.14	20887
850.275	20815
850.41	20579
850.545	20750
850.68	20659
850.815	20777
850.95	20727
851.085	20975
851.22	20861
851.355	20758
851.49	20830
851.625	20849
851.76	20773
851.895	20792
852.03	20659
852.165	20823
852.299	20868
852.434	20849
852.569	20765
852.703	20933
852.838	20823
852.973	20868
853.107	20800
853.242	20606
853.376	20556
853.511	20545
853.645	20549
853.78	20708
853.914	20530
854.048	20739
854.183	20488
854.317	20560
854.451	20807
854.585	20488
854.72	20541
854.854	20632
854.988	20564
855.122	20625
855.256	20480
855.39	20629
855.524	20644
855.658	20625
855.792	20686
855.926	20564
856.06	20609
856.194	20674
856.327	20533
856.461	20556
856.595	20518
856.729	20514
856.862	20800
856.996	20617
857.13	20644
857.263	20693
857.397	20621
857.53	20670
857.664	20568
857.797	20598
857.931	20594
858.064	20632
858.197	20693
858.331	20648
858.464	20469
858.597	20457
858.731	20484
858.864	20473
858.997	20606
859.13	20552
859.263	20533
859.396	20792
859.529	20476
859.662	20518
859.795	20503
859.928	20476
860.061	20644
860.194	20746
860.327	20651
860.46	20522
860.592	20659
860.725	20845
860.858	20735
860.99	20609
861.123	20484
861.256	20484
861.388	20545
861.521	21100
861.653	20522
861.786	20446
861.918	20381
862.05	20476
862.183	20564
862.315	20621
862.447	20587
862.58	20499
862.712	20233
862.844	20267
862.976	20454
863.108	20450
863.24	20743
863.372	20237
863.504	20294
863.636	20317
863.768	20404
863.9	20366
864.032	20278
864.164	20282
864.296	20278
864.428	20469
864.559	20434
864.691	20290
864.823	20374
864.954	20290
865.086	20332
865.217	20267
865.349	20126
865.48	20069
865.612	20210
865.743	20446
865.875	20145
866.006	20126
866.137	20206
866.269	20134
866.4	20172
866.531	20221
866.662	20164
866.793	20240
866.924	20103
867.055	20248
867.186	20161
867.317	20073
867.448	20096
867.579	20134
867.71	20096
867.841	20100
867.972	20027
868.103	20145
868.233	20126
868.364	20039
868.495	20252
868.625	20385
868.756	20579
868.886	20317
869.017	20419
869.147	20434
869.278	20579
869.408	20339
869.539	20396
869.669	20419
869.799	20434
869.929	20457
870.06	20442
870.19	20743
870.32	20579
870.45	20727
870.58	20883
870.71	20876
870.84	20910
870.97	20910
871.1	20724
871.23	20902
871.36	20925
871.489	21005
871.619	20914
871.749	20918
871.879	20975
872.008	21055
872.138	21047
872.267	21013
872.397	20895
872.526	20899
872.656	20864
872.785	20902
872.915	20956
873.044	21013
873.173	21081
873.303	21096
873.432	21127
873.561	21119
873.69	21047
873.819	21013
873.948	21226
874.077	21005
874.206	20986
874.335	21013
874.464	21157
874.593	21332
874.722	21275
874.851	21344
874.979	21325
875.108	21275
875.237	21302
875.365	21096
875.494	21256
875.623	21222
875.751	21093
875.88	21283
876.008	21485
876.136	21389
876.265	21682
876.393	21804
876.521	21717
876.65	21728
876.778	21599
876.906	21568
877.034	21580
877.162	21679
877.29	21610
877.418	21660
877.546	21656
877.674	21587
877.802	21660
877.93	21656
878.058	21538
878.185	21564
878.313	21462
878.441	21713
878.568	21401
878.696	21549
878.824	21614
878.951	21637
879.079	21892
879.206	21857
879.333	21785
879.461	21641
879.588	21774
879.715	21743
879.842	21816
879.97	21709
880.097	21549
880.224	21492
880.351	21538
880.478	21519
880.605	21370
880.732	21431
880.859	21667
880.986	21408
881.112	21363
881.239	21264
881.366	21180
881.493	21096
881.619	21047
881.746	21119
881.872	20929
881.999	20948
882.125	20956
882.252	20960
882.378	21024
882.505	21028
882.631	20956
882.757	20788
882.883	20823
883.01	20636
883.136	20727
883.262	20602
883.388	20530
883.514	20674
883.64	20712
883.766	20708
883.892	20522
884.018	20549
884.143	20530
884.269	20845
884.395	20442
884.52	20370
884.646	20385
884.772	20305
884.897	20294
885.023	20309
885.148	20431
885.274	20507
885.399	20438
885.524	20339
885.65	20374
885.775	20313
885.9	20385
886.025	20533
886.15	20454
886.275	20385
886.4	20263
886.525	20454
886.65	20263
886.775	20385
886.9	20492
887.025	20617
887.149	20355
887.274	20176
887.399	20229
887.523	20210
887.648	20191
887.773	20081
887.897	20275
888.021	20103
888.146	20081
888.27	20202
888.395	20263
888.519	20126
888.643	20153
888.767	20119
888.891	20043
889.015	19951
889.139	20077
889.263	19849
889.387	20035
889.511	20164
889.635	20062
889.759	19925
889.883	19921
890.006	19944
890.13	19989
890.254	19871
890.377	19830
890.501	19761
890.624	19712
890.748	19788
890.871	19696
890.995	19495
891.118	19411
891.241	19480
891.364	19449
891.488	19597
891.611	19529
891.734	19521
891.857	19605
891.98	19620
892.103	19548
892.226	19510
892.349	19464
892.471	19304
892.594	19480
892.717	19521
892.839	19468
892.962	19529
893.085	19521
893.207	19369
893.33	19312
893.452	19346
893.575	19586
893.697	19350
893.819	19533
893.941	19662
894.064	19635
894.186	19384
894.308	19392
894.43	19552
894.552	19578
894.674	19616
894.796	19339
894.918	19521
895.04	19396
895.161	19552
895.283	19354
895.405	19464
895.526	19419
895.648	19438
895.769	19544
895.891	19487
896.012	19571
896.134	19582
896.255	19571
896.376	19293
896.498	19582
896.619	19422
896.74	19316
896.861	19487
896.982	19753
897.103	19967
897.224	19674
897.345	19746
897.466	19712
897.587	19784
897.708	19868
897.828	19734
897.949	19514
898.07	19567
898.19	19605
898.311	19746
898.431	19582
898.552	19609
898.672	19727
898.792	19776
898.913	19685
899.033	19616
899.153	19495
899.273	19506
899.393	19381
899.513	19502
899.633	19407
899.753	19419
899.873	19518
899.993	19434
900.113	19381
900.232	19518
900.352	19320
900.472	19350
900.591	19175
900.711	19244
900.83	19221
900.95	19225
901.069	19343
901.189	19110
901.308	18981
901.427	18905
901.546	18848
901.665	18867
901.784	18787
901.904	18707
902.023	18563
902.141	18369
902.26	18384
902.379	18384
902.498	18422
902.617	18186
902.735	18460
902.854	18277
902.973	18330
903.091	18121
903.21	17977
903.328	18213
903.446	17920
903.565	17916
903.683	17771
903.801	17771
903.919	17748
904.038	17760
904.156	17581
904.274	17623
904.392	17551
904.51	17577
904.627	17638
904.745	17570
904.863	17642
904.981	17444
905.098	17261
905.216	17330
905.334	17292
905.451	17261
905.569	17277
905.686	17410
905.803	17140
905.921	17124
906.038	17204
906.155	17048
906.272	16999
906.389	16919
906.506	16873
906.623	16801
906.74	16694
906.857	16790
906.974	16710
907.091	16873
907.208	16900
907.324	16858
907.441	16721
907.557	16516
907.674	16519
907.79	16485
907.907	16519
908.023	16588
908.139	16470
908.256	16558
908.372	16577
908.488	16523
908.604	16379
908.72	16253
908.836	16386
908.952	16196
909.068	16299
909.184	16367
909.3	16173
909.415	16379
909.531	16143
909.647	16010
909.762	15911
909.878	16010
909.993	16063
910.108	15911
910.224	15960
910.339	16010
910.454	15892
910.57	15831
910.685	15793
910.8	15987
910.915	15869
911.03	15736
911.145	15599
911.259	15557
911.374	15507
911.489	15485
911.604	15504
911.718	15355
911.833	15340
911.947	15336
912.062	15329
912.176	15424
912.291	15519
912.405	15462
912.519	15644
912.633	15553
912.748	15443
912.862	15279
912.976	15302
913.09	15028
913.204	15180
913.318	15150
913.431	15294
913.545	15169
913.659	15348
913.772	15184
913.886	14986
914	15009
914.113	15112
914.226	15135
914.34	15093
914.453	14861
914.566	14902
914.68	14876
914.793	14746
914.906	14659
915.019	14682
915.132	14590
915.245	14522
915.358	14575
915.47	14564
915.583	14533
915.696	14590
915.809	14796
915.921	14762
916.034	14507
916.146	14419
916.259	14442
916.371	14549
916.483	14507
916.595	14492
916.708	14450
916.82	14434
916.932	14396
917.044	14366
917.156	14336
917.268	14374
917.38	14336
917.491	14195
917.603	14305
917.715	14294
917.826	14343
917.938	14267
918.049	14126
918.161	14225
918.272	14332
918.384	14431
918.495	14187
918.606	14054
918.717	14050
918.828	14016
918.939	14073
919.05	13894
919.161	13986
919.272	13875
919.383	13860
919.494	14088
919.604	14244
919.715	14027
919.826	13902
919.936	13955
920.047	14012
920.157	13982
920.267	14164
920.378	14073
920.488	13936
920.598	14142
920.708	14210
920.818	14176
920.928	14126
921.038	14332
921.148	14313
921.258	13917
921.368	13799
921.477	13746
921.587	13753
921.697	13658
921.806	13780
921.916	13616
922.025	13468
922.134	13384
922.244	13396
922.353	13521
922.462	13304
922.571	13339
922.68	13057
922.789	13072
922.898	13160
923.007	12993
923.116	13160
923.224	13023
923.333	13053
923.442	12935
923.55	12875
923.659	12909
923.767	13034
923.876	12844
923.984	12909
924.092	12817
924.201	12817
924.309	12848
924.417	12829
924.525	12700
924.633	12688
924.741	13704
924.849	12483
924.956	12673
925.064	12502
925.172	12448
925.279	12445
925.387	12433
925.494	12456
925.602	12646
925.709	12448
925.816	12490
925.924	12441
926.031	12547
926.138	12456
926.245	12494
926.352	12399
926.459	12483
926.566	12574
926.673	12471
926.779	12315
926.886	12243
926.993	12140
927.099	12186
927.206	12019
927.312	12007
927.419	12148
927.525	12060
927.631	12083
927.737	11980
927.843	12007
927.95	11817
928.056	11832
928.162	11893
928.267	11961
928.373	12528
928.479	11950
928.585	11672
928.69	11882
928.796	11920
928.901	11760
929.007	11630
929.112	11821
929.218	11767
929.323	11710
929.428	11638
929.533	11684
929.638	11619
929.743	11577
929.848	11661
929.953	11611
930.058	11592
930.163	11376
930.267	11368
930.372	11509
930.477	11372
930.581	11573
930.685	11440
930.79	11273
930.894	11197
930.998	11246
931.103	11406
931.207	11003
931.311	10892
931.415	10824
931.519	10645
931.623	10577
