Data from test_V78500241_3188.txt Node
Date: Fri Mar 25 15:32:03 CST 2022
User: usil
Spectrometer: V785-0024
Trigger mode: 0
Integration Time (sec): 4.000000E-1
Scans to average: 1
Nonlinearity correction enabled: false
Boxcar width: 0
Storing dark spectrum: false
XAxis mode: Wavelengths
Number of Pixels in Spectrum: 1024
>>>>>Begin Spectral Data<<<<<
801.071	26979
801.214	26899
801.356	26598
801.499	26606
801.641	26438
801.783	26499
801.926	26556
802.068	26419
802.211	26332
802.353	26377
802.496	26320
802.638	26286
802.78	26138
802.923	26058
803.065	25993
803.208	26035
803.35	26134
803.492	26214
803.635	26317
803.777	26142
803.919	26282
804.061	26446
804.204	26419
804.346	26282
804.488	26103
804.63	26176
804.773	26119
804.915	26229
805.057	26320
805.199	26138
805.341	26282
805.483	26465
805.626	26343
805.768	26263
805.91	26298
806.052	26374
806.194	26294
806.336	26507
806.478	26183
806.62	26298
806.762	26434
806.904	26530
807.046	26815
807.188	26769
807.33	26724
807.472	26940
807.614	26686
807.756	26689
807.898	26606
808.04	26480
808.182	26560
808.324	26594
808.465	26625
808.607	26842
808.749	26815
808.891	27127
809.033	27024
809.174	27112
809.316	26990
809.458	26918
809.6	26823
809.741	26857
809.883	27165
810.025	27222
810.166	27214
810.308	27222
810.45	27116
810.591	27135
810.733	27020
810.875	26960
811.016	26807
811.158	26758
811.299	26948
811.441	26975
811.582	27074
811.724	26887
811.865	26765
812.007	26819
812.148	26758
812.29	26910
812.431	27169
812.573	27241
812.714	27260
812.855	27363
812.997	27511
813.138	27625
813.279	27469
813.421	27279
813.562	27393
813.703	27306
813.845	27104
813.986	26762
814.127	26735
814.268	26621
814.41	26853
814.551	26492
814.692	26560
814.833	26480
814.974	26564
815.115	26560
815.256	26446
815.397	26518
815.539	26396
815.68	26434
815.821	26248
815.962	26313
816.103	26161
816.244	26100
816.385	25989
816.526	25940
816.666	25944
816.807	25780
816.948	25799
817.089	25871
817.23	25879
817.371	25666
817.512	25750
817.653	25674
817.793	25658
817.934	25704
818.075	25788
818.216	25807
818.356	25734
818.497	25586
818.638	25563
818.778	25601
818.919	25544
819.06	25559
819.2	25670
819.341	25803
819.481	25704
819.622	25795
819.762	26149
819.903	26054
820.043	25894
820.184	26005
820.324	25898
820.465	25894
820.605	25830
820.746	25814
820.886	25719
821.026	25856
821.167	25906
821.307	25928
821.447	25769
821.588	25708
821.728	25578
821.868	25445
822.008	25263
822.149	25247
822.289	25164
822.429	24924
822.569	24935
822.709	24817
822.849	24795
822.99	24639
823.13	24722
823.27	24677
823.41	24578
823.55	24407
823.69	24578
823.83	24654
823.97	24471
824.11	24342
824.25	24285
824.389	24410
824.529	24479
824.669	24395
824.809	24429
824.949	24418
825.089	24498
825.228	24330
825.368	24186
825.508	24289
825.648	24266
825.787	24289
825.927	24353
826.067	24235
826.206	24190
826.346	24292
826.485	24391
826.625	24201
826.765	24292
826.904	24334
827.044	24041
827.183	24041
827.323	23992
827.462	24068
827.601	23950
827.741	23942
827.88	24049
828.02	23866
828.159	23901
828.298	23882
828.437	23965
828.577	23969
828.716	23977
828.855	23836
828.994	23726
829.134	23611
829.273	23817
829.412	23745
829.551	23657
829.69	23687
829.829	23653
829.968	23794
830.107	23687
830.246	23695
830.385	23653
830.524	23531
830.663	23448
830.802	23318
830.941	23296
831.08	23269
831.219	23364
831.357	23315
831.496	23444
831.635	23284
831.774	23208
831.913	23208
832.051	23128
832.19	23128
832.329	23022
832.467	23075
832.606	22892
832.744	22953
832.883	22991
833.022	22957
833.16	22946
833.299	23029
833.437	22930
833.576	23041
833.714	23006
833.852	23064
833.991	23041
834.129	23113
834.267	23083
834.406	23105
834.544	23109
834.682	22957
834.821	22915
834.959	23166
835.097	22976
835.235	22946
835.373	22949
835.511	22946
835.65	22972
835.788	22946
835.926	22858
836.064	22630
836.202	22717
836.34	22885
836.478	22892
836.615	22824
836.753	22972
836.891	23025
837.029	22900
837.167	22927
837.305	22725
837.443	22778
837.58	22637
837.718	22816
837.856	22687
837.993	22622
838.131	22771
838.269	22656
838.406	22675
838.544	22512
838.681	22356
838.819	22314
838.956	22131
839.094	22207
839.231	22329
839.369	22348
839.506	22603
839.643	22440
839.781	22287
839.918	22162
840.055	22265
840.193	22196
840.33	22116
840.467	22082
840.604	22181
840.742	22394
840.879	22116
841.016	22185
841.153	22109
841.29	22204
841.427	22147
841.564	22166
841.701	22139
841.838	22021
841.975	22070
842.112	22074
842.249	22006
842.385	21968
842.522	22185
842.659	21915
842.796	21926
842.933	22029
843.069	21808
843.206	21861
843.343	21945
843.479	21987
843.616	21968
843.752	21580
843.889	21812
844.025	21873
844.162	21690
844.298	21667
844.435	21823
844.571	21717
844.708	21698
844.844	21835
844.98	21812
845.117	21835
845.253	21599
845.389	21447
845.525	21633
845.661	21469
845.798	21412
845.934	21488
846.07	21424
846.206	21462
846.342	21435
846.478	21416
846.614	21389
846.75	21116
846.886	21112
847.022	21260
847.158	21237
847.294	21066
847.429	21233
847.565	21104
847.701	21408
847.837	20876
847.972	20914
848.108	21058
848.244	20960
848.379	20796
848.515	20750
848.65	20727
848.786	20785
848.921	20758
849.057	20857
849.192	20883
849.328	20807
849.463	20849
849.598	20754
849.734	20632
849.869	20602
850.004	20590
850.14	20629
850.275	20594
850.41	20415
850.545	20457
850.68	20419
850.815	20537
850.95	20480
851.085	20667
851.22	20613
851.355	20511
851.49	20511
851.625	20598
851.76	20446
851.895	20469
852.03	20636
852.165	20522
852.299	20587
852.434	20602
852.569	20526
852.703	20552
852.838	20571
852.973	20621
853.107	20598
853.242	20419
853.376	20381
853.511	20259
853.645	20396
853.78	20412
853.914	20351
854.048	20294
854.183	20267
854.317	20465
854.451	20564
854.585	20381
854.72	20328
854.854	20438
854.988	20149
855.122	20381
855.256	20267
855.39	20301
855.524	20446
855.658	20362
855.792	20347
855.926	20427
856.06	20339
856.194	20423
856.327	20317
856.461	20221
856.595	20370
856.729	20233
856.862	20358
856.996	20336
857.13	20412
857.263	20404
857.397	20461
857.53	20298
857.664	20484
857.797	20454
857.931	20476
858.064	20275
858.197	20469
858.331	20305
858.464	20358
858.597	20221
858.731	20355
858.864	20389
858.997	20362
859.13	20423
859.263	20412
859.396	20465
859.529	20290
859.662	20396
859.795	20377
859.928	20358
860.061	20484
860.194	20442
860.327	20408
860.46	20358
860.592	20400
860.725	20511
860.858	20446
860.99	20381
861.123	20237
861.256	20214
861.388	20393
861.521	20826
861.653	20210
861.786	20199
861.918	20240
862.05	20111
862.183	20278
862.315	20332
862.447	20294
862.58	20252
862.712	20100
862.844	20012
862.976	20180
863.108	20126
863.24	20438
863.372	20191
863.504	20122
863.636	20248
863.768	20069
863.9	20077
864.032	20031
864.164	20016
864.296	20046
864.428	20058
864.559	20145
864.691	20081
864.823	20115
864.954	20065
865.086	20054
865.217	19928
865.349	19841
865.48	19974
865.612	19974
865.743	20149
865.875	19989
866.006	20024
866.137	19967
866.269	19959
866.4	20012
866.531	19826
866.662	19928
866.793	19902
866.924	20016
867.055	19890
867.186	19947
867.317	19963
867.448	19826
867.579	19928
867.71	19837
867.841	19936
867.972	19936
868.103	19925
868.233	19982
868.364	19913
868.495	19860
868.625	20122
868.756	20225
868.886	20187
869.017	20206
869.147	20206
869.278	20263
869.408	20134
869.539	20172
869.669	20256
869.799	20237
869.929	20351
870.06	20374
870.19	20412
870.32	20423
870.45	20488
870.58	20541
870.71	20655
870.84	20587
870.97	20594
871.1	20526
871.23	20796
871.36	20815
871.489	20674
871.619	20670
871.749	20853
871.879	20781
872.008	20986
872.138	20788
872.267	20765
872.397	20583
872.526	20621
872.656	20785
872.785	20602
872.915	20819
873.044	20876
873.173	20781
873.303	20785
873.432	20861
873.561	20895
873.69	20842
873.819	20648
873.948	20895
874.077	20872
874.206	20651
874.335	20769
874.464	20845
874.593	21127
874.722	20948
874.851	21093
874.979	21024
875.108	20982
875.237	21013
875.365	20868
875.494	21077
875.623	21062
875.751	20941
875.88	21051
876.008	21119
876.136	21310
876.265	21504
876.393	21606
876.521	21466
876.65	21485
876.778	21447
876.906	21359
877.034	21481
877.162	21462
877.29	21450
877.418	21340
877.546	21469
877.674	21351
877.802	21378
877.93	21279
878.058	21317
878.185	21298
878.313	21344
878.441	21405
878.568	21291
878.696	21272
878.824	21431
878.951	21530
879.079	21504
879.206	21622
879.333	21568
879.461	21542
879.588	21564
879.715	21580
879.842	21641
879.97	21549
880.097	21313
880.224	21302
880.351	21275
880.478	21230
880.605	21161
880.732	21230
880.859	21511
880.986	21256
881.112	21207
881.239	21005
881.366	21009
881.493	20769
881.619	20697
881.746	20853
881.872	20906
881.999	20731
882.125	20777
882.252	20746
882.378	20796
882.505	20895
882.631	20629
882.757	20454
882.883	20568
883.01	20438
883.136	20454
883.262	20355
883.388	20400
883.514	20499
883.64	20522
883.766	20457
883.892	20309
884.018	20400
884.143	20450
884.269	20602
884.395	20187
884.52	20119
884.646	20119
884.772	20103
884.897	20111
885.023	20130
885.148	20305
885.274	20370
885.399	20271
885.524	20168
885.65	20183
885.775	20153
885.9	20168
886.025	20317
886.15	20244
886.275	20157
886.4	20126
886.525	20195
886.65	20024
886.775	20005
886.9	20263
887.025	20385
887.149	20172
887.274	19921
887.399	19997
887.523	19932
887.648	19879
887.773	19803
887.897	19986
888.021	19974
888.146	20035
888.27	20054
888.395	20016
888.519	20031
888.643	19951
888.767	19970
888.891	19875
889.015	19864
889.139	19799
889.263	19856
889.387	19883
889.511	19947
889.635	19970
889.759	19788
889.883	19719
890.006	19830
890.13	19856
890.254	19704
890.377	19643
890.501	19502
890.624	19449
890.748	19689
890.871	19438
890.995	19377
891.118	19324
891.241	19343
891.364	19320
891.488	19411
891.611	19278
891.734	19350
891.857	19422
891.98	19343
892.103	19381
892.226	19266
892.349	19232
892.471	19179
892.594	19263
892.717	19304
892.839	19209
892.962	19354
893.085	19331
893.207	19304
893.33	19285
893.452	19175
893.575	19289
893.697	19148
893.819	19430
893.941	19460
894.064	19320
894.186	19244
894.308	19270
894.43	19388
894.552	19350
894.674	19244
894.796	19221
894.918	19194
895.04	19236
895.161	19324
895.283	19247
895.405	19247
895.526	19236
895.648	19301
895.769	19320
895.891	19384
896.012	19320
896.134	19266
896.255	19312
896.376	19148
896.498	19255
896.619	19304
896.74	19358
896.861	19365
896.982	19575
897.103	19738
897.224	19594
897.345	19476
897.466	19472
897.587	19445
897.708	19586
897.828	19419
897.949	19483
898.07	19350
898.19	19518
898.311	19575
898.431	19483
898.552	19487
898.672	19590
898.792	19540
898.913	19624
899.033	19369
899.153	19369
899.273	19168
899.393	19225
899.513	19316
899.633	19293
899.753	19415
899.873	19209
899.993	19278
900.113	19354
900.232	19304
900.352	19183
900.472	19190
900.591	19050
900.711	19034
900.83	18996
900.95	19129
901.069	19240
901.189	18935
901.308	18859
901.427	18703
901.546	18661
901.665	18791
901.784	18665
901.904	18589
902.023	18410
902.141	18239
902.26	18201
902.379	18235
902.498	18148
902.617	18117
902.735	18178
902.854	18049
902.973	18049
903.091	17965
903.21	17942
903.328	17821
903.446	17764
903.565	17752
903.683	17585
903.801	17425
903.919	17638
904.038	17630
904.156	17467
904.274	17509
904.392	17326
904.51	17330
904.627	17398
904.745	17486
904.863	17520
904.981	17208
905.098	17159
905.216	17212
905.334	17136
905.451	17003
905.569	17109
905.686	17147
905.803	17083
905.921	16938
906.038	17052
906.155	16957
906.272	16793
906.389	16801
906.506	16710
906.623	16599
906.74	16656
906.857	16504
906.974	16554
907.091	16752
907.208	16812
907.324	16820
907.441	16615
907.557	16512
907.674	16538
907.79	16329
907.907	16440
908.023	16344
908.139	16470
908.256	16291
908.372	16276
908.488	16230
908.604	16147
908.72	16032
908.836	16131
908.952	16071
909.068	16116
909.184	16291
909.3	16150
909.415	16105
909.531	16036
909.647	15831
909.762	15842
909.878	15838
909.993	15842
910.108	15690
910.224	15739
910.339	15759
910.454	15629
910.57	15580
910.685	15610
910.8	15892
910.915	15747
911.03	15679
911.145	15496
911.259	15477
911.374	15466
911.489	15336
911.604	15317
911.718	15154
911.833	15203
911.947	15081
912.062	15001
912.176	15138
912.291	15081
912.405	15222
912.519	15321
912.633	15332
912.748	15237
912.862	15131
912.976	14967
913.09	14800
913.204	14975
913.318	15058
913.431	15112
913.545	15104
913.659	15116
913.772	14979
913.886	14777
914	14891
914.113	14887
914.226	14914
914.34	14910
914.453	14739
914.566	14910
914.68	14762
914.793	14708
914.906	14492
915.019	14499
915.132	14404
915.245	14400
915.358	14465
915.47	14396
915.583	14434
915.696	14495
915.809	14549
915.921	14640
916.034	14419
916.146	14317
916.259	14317
916.371	14423
916.483	14370
916.595	14199
916.708	14324
916.82	14271
916.932	14320
917.044	14191
917.156	14244
917.268	14111
917.38	14157
917.491	14005
917.603	14138
917.715	14199
917.826	14229
917.938	14039
918.049	13997
918.161	14050
918.272	14229
918.384	14202
918.495	14119
918.606	13909
918.717	13860
918.828	13921
918.939	13986
919.05	13864
919.161	13909
919.272	13708
919.383	13750
919.494	13894
919.604	14176
919.715	13932
919.826	13757
919.936	13913
920.047	13913
920.157	13780
920.267	14054
920.378	13822
920.488	13868
920.598	13982
920.708	14183
920.818	14012
920.928	14031
921.038	14210
921.148	14145
921.258	13875
921.368	13715
921.477	13670
921.587	13715
921.697	13480
921.806	13693
921.916	13537
922.025	13308
922.134	13274
922.244	13198
922.353	13285
922.462	13168
922.571	13129
922.68	12973
922.789	12886
922.898	12966
923.007	12852
923.116	12928
923.224	12920
923.333	12821
923.442	12783
923.55	12764
923.659	12871
923.767	12863
923.876	12700
923.984	12726
924.092	12665
924.201	12722
924.309	12654
924.417	12734
924.525	12612
924.633	12639
924.741	13506
924.849	12391
924.956	12479
925.064	12384
925.172	12270
925.279	12334
925.387	12346
925.494	12323
925.602	12498
925.709	12464
925.816	12251
925.924	12323
926.031	12414
926.138	12327
926.245	12372
926.352	12205
926.459	12353
926.566	12346
926.673	12289
926.779	12110
926.886	12175
926.993	12110
927.099	12060
927.206	11961
927.312	11958
927.419	12011
927.525	11969
927.631	12038
927.737	11874
927.843	11802
927.95	11783
928.056	11760
928.162	11794
928.267	11809
928.373	12410
928.479	11847
928.585	11638
928.69	11752
928.796	11882
928.901	11668
929.007	11532
929.112	11646
929.218	11604
929.323	11532
929.428	11581
929.533	11646
929.638	11448
929.743	11482
929.848	11493
929.953	11440
930.058	11417
930.163	11261
930.267	11239
930.372	11455
930.477	11189
930.581	11444
930.685	11220
930.79	11128
930.894	11166
930.998	11060
931.103	11341
931.207	10995
931.311	10801
931.415	10816
931.519	10584
931.623	10565
