Data from test_V78500241_3260.txt Node
Date: Fri Mar 25 15:32:33 CST 2022
User: usil
Spectrometer: V785-0024
Trigger mode: 0
Integration Time (sec): 4.000000E-1
Scans to average: 1
Nonlinearity correction enabled: false
Boxcar width: 0
Storing dark spectrum: false
XAxis mode: Wavelengths
Number of Pixels in Spectrum: 1024
>>>>>Begin Spectral Data<<<<<
801.071	27317
801.214	27192
801.356	26998
801.499	27009
801.641	26937
801.783	26796
801.926	26777
802.068	26864
802.211	26758
802.353	26705
802.496	26689
802.638	26689
802.78	26404
802.923	26362
803.065	26366
803.208	26499
803.35	26461
803.492	26552
803.635	26682
803.777	26480
803.919	26530
804.061	27013
804.204	26701
804.346	26514
804.488	26465
804.63	26530
804.773	26560
804.915	26590
805.057	26743
805.199	26689
805.341	26648
805.483	26731
805.626	26769
805.768	26629
805.91	26800
806.052	26720
806.194	26659
806.336	26750
806.478	26716
806.62	26754
806.762	26804
806.904	26998
807.046	27420
807.188	27192
807.33	27043
807.472	27161
807.614	26967
807.756	27192
807.898	26990
808.04	26994
808.182	26895
808.324	26838
808.465	27043
808.607	27264
808.749	27313
808.891	27507
809.033	27515
809.174	27420
809.316	27279
809.458	27389
809.6	27317
809.741	27294
809.883	27454
810.025	27603
810.166	27545
810.308	27595
810.45	27519
810.591	27485
810.733	27481
810.875	27378
811.016	27176
811.158	27203
811.299	27374
811.441	27477
811.582	27416
811.724	27351
811.865	27237
812.007	27359
812.148	27329
812.29	27378
812.431	27599
812.573	27603
812.714	27751
812.855	27842
812.997	27808
813.138	27994
813.279	27934
813.421	27755
813.562	27732
813.703	27671
813.845	27557
813.986	27222
814.127	27093
814.268	26960
814.41	27009
814.551	26868
814.692	27043
814.833	27024
814.974	26944
815.115	26998
815.256	26830
815.397	26925
815.539	26815
815.68	26849
815.821	26754
815.962	26750
816.103	26636
816.244	26629
816.385	26488
816.526	26621
816.666	26332
816.807	26202
816.948	26412
817.089	26328
817.23	26473
817.371	26229
817.512	26199
817.653	26172
817.793	26233
817.934	26161
818.075	26233
818.216	26183
818.356	26161
818.497	26069
818.638	25989
818.778	26062
818.919	25906
819.06	26039
819.2	26024
819.341	26206
819.481	26214
819.622	26473
819.762	26522
819.903	26499
820.043	26328
820.184	26313
820.324	26313
820.465	26377
820.605	26427
820.746	26377
820.886	26115
821.026	26400
821.167	26370
821.307	26385
821.447	26267
821.588	26244
821.728	26084
821.868	25868
822.008	25837
822.149	25731
822.289	25803
822.429	25434
822.569	25339
822.709	25472
822.849	25194
822.99	25285
823.13	25133
823.27	25156
823.41	25103
823.55	25065
823.69	25137
823.83	24939
823.97	24958
824.11	24852
824.25	24905
824.389	24878
824.529	24958
824.669	24734
824.809	25004
824.949	24954
825.089	24958
825.228	24947
825.368	24745
825.508	24654
825.648	24650
825.787	24844
825.927	24844
826.067	24620
826.206	24875
826.346	24677
826.485	24768
826.625	24825
826.765	24833
826.904	24875
827.044	24486
827.183	24483
827.323	24422
827.462	24502
827.601	24445
827.741	24456
827.88	24544
828.02	24342
828.159	24445
828.298	24483
828.437	24585
828.577	24422
828.716	24483
828.855	24235
828.994	24186
829.134	24155
829.273	24163
829.412	24098
829.551	24136
829.69	24201
829.829	24171
829.968	24346
830.107	24144
830.246	24163
830.385	24159
830.524	24121
830.663	24068
830.802	24022
830.941	23821
831.08	23714
831.219	23824
831.357	23897
831.496	24022
831.635	23783
831.774	23722
831.913	23653
832.051	23623
832.19	23543
832.329	23737
832.467	23551
832.606	23391
832.744	23467
832.883	23330
833.022	23417
833.16	23486
833.299	23493
833.437	23493
833.576	23551
833.714	23543
833.852	23539
833.991	23638
834.129	23589
834.267	23581
834.406	23604
834.544	23535
834.682	23463
834.821	23596
834.959	23581
835.097	23490
835.235	23585
835.373	23471
835.511	23581
835.65	23383
835.788	23330
835.926	23372
836.064	23128
836.202	23193
836.34	23337
836.478	23463
836.615	23391
836.753	23296
836.891	23398
837.029	23429
837.167	23200
837.305	23265
837.443	23269
837.58	23292
837.718	23391
837.856	23200
837.993	23044
838.131	23307
838.269	23064
838.406	23044
838.544	23121
838.681	22854
838.819	22923
838.956	22767
839.094	22683
839.231	22740
839.369	22854
839.506	23124
839.643	23102
839.781	22710
839.918	22637
840.055	22778
840.193	22679
840.33	22622
840.467	22713
840.604	22634
840.742	22911
840.879	22580
841.016	22516
841.153	22645
841.29	22774
841.427	22660
841.564	22702
841.701	22698
841.838	22618
841.975	22500
842.112	22626
842.249	22462
842.385	22413
842.522	22721
842.659	22504
842.796	22268
842.933	22402
843.069	22329
843.206	22306
843.343	22516
843.479	22421
843.616	22394
843.752	22143
843.889	22287
844.025	22348
844.162	22067
844.298	22185
844.435	22249
844.571	22162
844.708	22143
844.844	22291
844.98	22306
845.117	22344
845.253	22185
845.389	21972
845.525	22139
845.661	22154
845.798	21934
845.934	21956
846.07	21880
846.206	21903
846.342	22029
846.478	21873
846.614	21739
846.75	21648
846.886	21682
847.022	21713
847.158	21625
847.294	21660
847.429	21827
847.565	21633
847.701	21823
847.837	21424
847.972	21351
848.108	21439
848.244	21477
848.379	21287
848.515	21218
848.65	21249
848.786	21317
848.921	21192
849.057	21439
849.192	21355
849.328	21264
849.463	21188
849.598	21188
849.734	21116
849.869	21039
850.004	21039
850.14	21024
850.275	20998
850.41	21055
850.545	20952
850.68	20902
850.815	21020
850.95	20944
851.085	21260
851.22	21173
851.355	21032
851.49	20975
851.625	20899
851.76	20944
851.895	20933
852.03	20982
852.165	21005
852.299	21104
852.434	21108
852.569	21085
852.703	21070
852.838	21104
852.973	21062
853.107	21100
853.242	21077
853.376	20857
853.511	20735
853.645	20788
853.78	21005
853.914	20853
854.048	20792
854.183	20838
854.317	20853
854.451	21074
854.585	20842
854.72	20765
854.854	20914
854.988	20773
855.122	20750
855.256	20727
855.39	20705
855.524	20880
855.658	20834
855.792	20891
855.926	20826
856.06	20845
856.194	20914
856.327	20845
856.461	20750
856.595	20864
856.729	20796
856.862	20971
856.996	20925
857.13	20845
857.263	20910
857.397	20906
857.53	20785
857.664	20830
857.797	20887
857.931	20910
858.064	20777
858.197	20998
858.331	20925
858.464	20792
858.597	20705
858.731	20743
858.864	20773
858.997	20762
859.13	20739
859.263	20826
859.396	20910
859.529	20876
859.662	20857
859.795	20743
859.928	20712
860.061	20880
860.194	21020
860.327	20872
860.46	20834
860.592	20960
860.725	21032
860.858	20944
860.99	20815
861.123	20720
861.256	20773
861.388	20861
861.521	21355
861.653	20651
861.786	20556
861.918	20587
862.05	20743
862.183	20727
862.315	20891
862.447	20906
862.58	20773
862.712	20575
862.844	20514
862.976	20587
863.108	20659
863.24	20990
863.372	20431
863.504	20560
863.636	20590
863.768	20499
863.9	20621
864.032	20450
864.164	20575
864.296	20533
864.428	20568
864.559	20511
864.691	20609
864.823	20556
864.954	20571
865.086	20480
865.217	20465
865.349	20305
865.48	20469
865.612	20454
865.743	20575
865.875	20507
866.006	20431
866.137	20412
866.269	20461
866.4	20503
866.531	20393
866.662	20423
866.793	20473
866.924	20415
867.055	20438
867.186	20503
867.317	20400
867.448	20298
867.579	20389
867.71	20396
867.841	20263
867.972	20393
868.103	20393
868.233	20301
868.364	20423
868.495	20602
868.625	20571
868.756	20754
868.886	20545
869.017	20621
869.147	20864
869.278	20716
869.408	20705
869.539	20644
869.669	20552
869.799	20632
869.929	20705
870.06	20674
870.19	20960
870.32	20891
870.45	20998
870.58	20986
870.71	21009
870.84	21154
870.97	20979
871.1	20975
871.23	21237
871.36	21249
871.489	21165
871.619	21230
871.749	21291
871.879	21195
872.008	21294
872.138	21245
872.267	21291
872.397	21161
872.526	21055
872.656	21032
872.785	21131
872.915	21256
873.044	21283
873.173	21321
873.303	21389
873.432	21344
873.561	21359
873.69	21340
873.819	21157
873.948	21424
874.077	21321
874.206	21180
874.335	21294
874.464	21363
874.593	21389
874.722	21420
874.851	21656
874.979	21466
875.108	21545
875.237	21351
875.365	21420
875.494	21580
875.623	21576
875.751	21496
875.88	21564
876.008	21675
876.136	21675
876.265	21930
876.393	21918
876.521	21915
876.65	21850
876.778	21793
876.906	21770
877.034	21808
877.162	21956
877.29	21812
877.418	21797
877.546	21861
877.674	21838
877.802	21960
877.93	21903
878.058	21816
878.185	21648
878.313	21812
878.441	21857
878.568	21671
878.696	21770
878.824	21781
878.951	21964
879.079	21922
879.206	22070
879.333	22002
879.461	21797
879.588	21861
879.715	22017
879.842	22070
879.97	21846
880.097	21679
880.224	21698
880.351	21797
880.478	21739
880.605	21595
880.732	21762
880.859	21949
880.986	21751
881.112	21778
881.239	21580
881.366	21420
881.493	21355
881.619	21348
881.746	21252
881.872	21214
881.999	21264
882.125	21272
882.252	21367
882.378	21275
882.505	21435
882.631	21062
882.757	20998
882.883	21093
883.01	21047
883.136	20971
883.262	20948
883.388	20823
883.514	20986
883.64	20906
883.766	20960
883.892	20746
884.018	20743
884.143	20796
884.269	21081
884.395	20769
884.52	20602
884.646	20632
884.772	20541
884.897	20522
885.023	20731
885.148	20765
885.274	20781
885.399	20712
885.524	20682
885.65	20590
885.775	20549
885.9	20636
886.025	20678
886.15	20712
886.275	20621
886.4	20499
886.525	20560
886.65	20499
886.775	20499
886.9	20743
887.025	20727
887.149	20533
887.274	20419
887.399	20438
887.523	20385
887.648	20419
887.773	20221
887.897	20549
888.021	20454
888.146	20332
888.27	20377
888.395	20438
888.519	20526
888.643	20457
888.767	20385
888.891	20313
889.015	20187
889.139	20248
889.263	20115
889.387	20324
889.511	20355
889.635	20164
889.759	20100
889.883	20195
890.006	20218
890.13	20358
890.254	20111
890.377	20035
890.501	19913
890.624	19795
890.748	20046
890.871	19849
890.995	19761
891.118	19746
891.241	19750
891.364	19818
891.488	19868
891.611	19936
891.734	19791
891.857	19780
891.98	19871
892.103	19917
892.226	19845
892.349	19742
892.471	19548
892.594	19723
892.717	19746
892.839	19765
892.962	19742
893.085	19776
893.207	19693
893.33	19544
893.452	19540
893.575	19655
893.697	19738
893.819	19761
893.941	19967
894.064	19746
894.186	19628
894.308	19525
894.43	19776
894.552	19871
894.674	19738
894.796	19651
894.918	19628
895.04	19601
895.161	19658
895.283	19712
895.405	19567
895.526	19639
895.648	19647
895.769	19632
895.891	19723
896.012	19742
896.134	19715
896.255	19765
896.376	19575
896.498	19620
896.619	19693
896.74	19685
896.861	19624
896.982	20039
897.103	19947
897.224	19989
897.345	19947
897.466	19864
897.587	19940
897.708	19997
897.828	19921
897.949	19780
898.07	19643
898.19	19746
898.311	19947
898.431	19906
898.552	19970
898.672	19955
898.792	20012
898.913	19864
899.033	19875
899.153	19658
899.273	19674
899.393	19860
899.513	19662
899.633	19601
899.753	19723
899.873	19605
899.993	19738
900.113	19540
900.232	19670
900.352	19632
900.472	19529
900.591	19567
900.711	19476
900.83	19411
900.95	19460
901.069	19483
901.189	19293
901.308	19107
901.427	19046
901.546	18939
901.665	18989
901.784	19099
901.904	18973
902.023	18829
902.141	18585
902.26	18528
902.379	18661
902.498	18509
902.617	18555
902.735	18547
902.854	18532
902.973	18498
903.091	18365
903.21	18159
903.328	18273
903.446	18194
903.565	18053
903.683	17996
903.801	17973
903.919	17893
904.038	17973
904.156	17828
904.274	17942
904.392	17939
904.51	17703
904.627	17916
904.745	17855
904.863	17847
904.981	17627
905.098	17566
905.216	17478
905.334	17539
905.451	17512
905.569	17273
905.686	17528
905.803	17577
905.921	17220
906.038	17296
906.155	17178
906.272	17189
906.389	17204
906.506	17113
906.623	17006
906.74	17098
906.857	16892
906.974	16999
907.091	17105
907.208	17079
907.324	17083
907.441	16934
907.557	16752
907.674	16713
907.79	16664
907.907	16721
908.023	16698
908.139	16748
908.256	16744
908.372	16637
908.488	16615
908.604	16459
908.72	16485
908.836	16440
908.952	16466
909.068	16538
909.184	16542
909.3	16344
909.415	16493
909.531	16337
909.647	16257
909.762	16143
909.878	16105
909.993	16268
910.108	16196
910.224	16040
910.339	16173
910.454	16017
910.57	16010
910.685	15949
910.8	16040
910.915	16150
911.03	15968
911.145	15701
911.259	15724
911.374	15808
911.489	15675
911.604	15747
911.718	15431
911.833	15572
911.947	15473
912.062	15420
912.176	15580
912.291	15553
912.405	15587
912.519	15709
912.633	15717
912.748	15545
912.862	15488
912.976	15401
913.09	15272
913.204	15348
913.318	15355
913.431	15450
913.545	15431
913.659	15397
913.772	15310
913.886	15188
914	15169
914.113	15283
914.226	15272
914.34	15294
914.453	15001
914.566	15108
914.68	15043
914.793	15013
914.906	14792
915.019	14781
915.132	14670
915.245	14689
915.358	14811
915.47	14731
915.583	14743
915.696	14864
915.809	14914
915.921	14906
916.034	14762
916.146	14651
916.259	14564
916.371	14800
916.483	14724
916.595	14602
916.708	14640
916.82	14640
916.932	14492
917.044	14587
917.156	14549
917.268	14454
917.38	14419
917.491	14499
917.603	14408
917.715	14412
917.826	14522
917.938	14313
918.049	14229
918.161	14419
918.272	14564
918.384	14450
918.495	14317
918.606	14142
918.717	14123
918.828	14275
918.939	14267
919.05	14073
919.161	14119
919.272	13986
919.383	14081
919.494	14263
919.604	14370
919.715	14252
919.826	14115
919.936	14153
920.047	14153
920.157	14111
920.267	14412
920.378	14225
920.488	14100
920.598	14229
920.708	14495
920.818	14278
920.928	14351
921.038	14469
921.148	14438
921.258	14107
921.368	14001
921.477	13921
921.587	13921
921.697	13746
921.806	13871
921.916	13651
922.025	13666
922.134	13537
922.244	13525
922.353	13567
922.462	13567
922.571	13422
922.68	13213
922.789	13118
922.898	13225
923.007	13084
923.116	13255
923.224	13198
923.333	13171
923.442	13000
923.55	12962
923.659	13046
923.767	13053
923.876	13000
923.984	13107
924.092	12989
924.201	12939
924.309	12943
924.417	12905
924.525	12905
924.633	12901
924.741	13788
924.849	12692
924.956	12886
925.064	12677
925.172	12589
925.279	12593
925.387	12620
925.494	12677
925.602	12741
925.709	12741
925.816	12563
925.924	12574
926.031	12738
926.138	12566
926.245	12620
926.352	12448
926.459	12616
926.566	12658
926.673	12544
926.779	12464
926.886	12418
926.993	12270
927.099	12251
927.206	12235
927.312	12163
927.419	12334
927.525	12163
927.631	12220
927.737	12095
927.843	11961
927.95	11980
928.056	12034
928.162	12057
928.267	12114
928.373	12722
928.479	12121
928.585	11904
928.69	11916
928.796	12034
928.901	11912
929.007	11821
929.112	11798
929.218	11870
929.323	11832
929.428	11893
929.533	11882
929.638	11630
929.743	11638
929.848	11794
929.953	11722
930.058	11642
930.163	11452
930.267	11509
930.372	11653
930.477	11509
930.581	11680
930.685	11520
930.79	11376
930.894	11406
930.998	11326
931.103	11509
931.207	11029
931.311	11094
931.415	11003
931.519	10767
931.623	10729
