Data from test_V78500241_383.txt Node
Date: Fri Mar 25 15:12:31 CST 2022
User: usil
Spectrometer: V785-0024
Trigger mode: 0
Integration Time (sec): 4.000000E-1
Scans to average: 1
Nonlinearity correction enabled: false
Boxcar width: 0
Storing dark spectrum: false
XAxis mode: Wavelengths
Number of Pixels in Spectrum: 1024
>>>>>Begin Spectral Data<<<<<
801.071	26929
801.214	26849
801.356	26678
801.499	26579
801.641	26495
801.783	26480
801.926	26648
802.068	26545
802.211	26404
802.353	26332
802.496	26134
802.638	26256
802.78	26195
802.923	26020
803.065	26035
803.208	26126
803.35	26172
803.492	26271
803.635	26259
803.777	26100
803.919	26305
804.061	26514
804.204	26332
804.346	26225
804.488	26119
804.63	26317
804.773	26050
804.915	26240
805.057	26301
805.199	26244
805.341	26317
805.483	26294
805.626	26176
805.768	26195
805.91	26415
806.052	26484
806.194	26355
806.336	26716
806.478	26305
806.62	26286
806.762	26549
806.904	26651
807.046	26876
807.188	26800
807.33	26887
807.472	26834
807.614	26785
807.756	26788
807.898	26518
808.04	26503
808.182	26537
808.324	26533
808.465	26708
808.607	26857
808.749	27024
808.891	27100
809.033	27161
809.174	27009
809.316	26963
809.458	26963
809.6	26994
809.741	27009
809.883	27024
810.025	27214
810.166	27135
810.308	27317
810.45	27108
810.591	27173
810.733	27039
810.875	26975
811.016	26765
811.158	26940
811.299	27009
811.441	27043
811.582	27036
811.724	26853
811.865	26746
812.007	26956
812.148	26979
812.29	26998
812.431	27104
812.573	27184
812.714	27443
812.855	27424
812.997	27663
813.138	27553
813.279	27523
813.421	27317
813.562	27439
813.703	27241
813.845	27066
813.986	26868
814.127	26705
814.268	26697
814.41	26526
814.551	26564
814.692	26682
814.833	26499
814.974	26484
815.115	26648
815.256	26537
815.397	26423
815.539	26480
815.68	26374
815.821	26393
815.962	26347
816.103	26294
816.244	26252
816.385	26263
816.526	26191
816.666	26031
816.807	25803
816.948	25917
817.089	25947
817.23	25871
817.371	25883
817.512	25936
817.653	25936
817.793	25875
817.934	25822
818.075	25845
818.216	25978
818.356	25769
818.497	25677
818.638	25635
818.778	25655
818.919	25647
819.06	25586
819.2	25814
819.341	25841
819.481	25818
819.622	26065
819.762	26142
819.903	25963
820.043	26062
820.184	25955
820.324	26012
820.465	25947
820.605	25883
820.746	26119
820.886	25906
821.026	25944
821.167	25921
821.307	25993
821.447	25932
821.588	25662
821.728	25750
821.868	25556
822.008	25327
822.149	25282
822.289	25240
822.429	25122
822.569	24897
822.709	25027
822.849	24886
822.99	24791
823.13	24886
823.27	24715
823.41	24745
823.55	24490
823.69	24505
823.83	24669
823.97	24525
824.11	24414
824.25	24433
824.389	24437
824.529	24486
824.669	24445
824.809	24505
824.949	24608
825.089	24517
825.228	24456
825.368	24399
825.508	24407
825.648	24395
825.787	24399
825.927	24445
826.067	24346
826.206	24369
826.346	24441
826.485	24505
826.625	24426
826.765	24353
826.904	24315
827.044	24174
827.183	24098
827.323	24079
827.462	24053
827.601	24102
827.741	24049
827.88	24091
828.02	24022
828.159	24083
828.298	24095
828.437	24129
828.577	24018
828.716	24133
828.855	23973
828.994	23745
829.134	23809
829.273	23817
829.412	23764
829.551	23703
829.69	23722
829.829	23752
829.968	23847
830.107	23828
830.246	23714
830.385	23737
830.524	23726
830.663	23661
830.802	23509
830.941	23402
831.08	23429
831.219	23448
831.357	23334
831.496	23554
831.635	23372
831.774	23315
831.913	23406
832.051	23178
832.19	23208
832.329	23322
832.467	23140
832.606	23048
832.744	22991
832.883	23056
833.022	23052
833.16	23029
833.299	23083
833.437	23117
833.576	23223
833.714	23090
833.852	23117
833.991	23151
834.129	23220
834.267	23140
834.406	23181
834.544	23143
834.682	23075
834.821	23136
834.959	23292
835.097	23064
835.235	23292
835.373	23056
835.511	23044
835.65	23048
835.788	23151
835.926	22782
836.064	22778
836.202	22839
836.34	22949
836.478	23181
836.615	22930
836.753	22858
836.891	23136
837.029	22927
837.167	22923
837.305	22843
837.443	22873
837.58	22805
837.718	22809
837.856	23022
837.993	22828
838.131	22790
838.269	22664
838.406	22824
838.544	22683
838.681	22421
838.819	22481
838.956	22341
839.094	22249
839.231	22356
839.369	22481
839.506	22702
839.643	22569
839.781	22367
839.918	22291
840.055	22272
840.193	22272
840.33	22291
840.467	22265
840.604	22295
840.742	22512
840.879	22173
841.016	22181
841.153	22131
841.29	22322
841.427	22344
841.564	22322
841.701	22325
841.838	22226
841.975	22131
842.112	22173
842.249	21975
842.385	22010
842.522	22234
842.659	22177
842.796	22025
842.933	22078
843.069	21865
843.206	21994
843.343	21922
843.479	22006
843.616	22051
843.752	21816
843.889	21804
844.025	21930
844.162	21747
844.298	21819
844.435	21717
844.571	21705
844.708	21781
844.844	21949
844.98	22021
845.117	21934
845.253	21751
845.389	21720
845.525	21682
845.661	21816
845.798	21488
845.934	21652
846.07	21591
846.206	21698
846.342	21675
846.478	21496
846.614	21378
846.75	21302
846.886	21264
847.022	21359
847.158	21336
847.294	21370
847.429	21291
847.565	21325
847.701	21504
847.837	20994
847.972	21089
848.108	21142
848.244	21085
848.379	20933
848.515	20769
848.65	20944
848.786	20880
848.921	20792
849.057	20998
849.192	20925
849.328	20830
849.463	20891
849.598	20971
849.734	20807
849.869	20785
850.004	20655
850.14	20648
850.275	20807
850.41	20552
850.545	20678
850.68	20587
850.815	20697
850.95	20552
851.085	20746
851.22	20796
851.355	20579
851.49	20613
851.625	20564
851.76	20537
851.895	20526
852.03	20514
852.165	20556
852.299	20568
852.434	20769
852.569	20564
852.703	20602
852.838	20632
852.973	20872
853.107	20758
853.242	20632
853.376	20396
853.511	20396
853.645	20298
853.78	20526
853.914	20473
854.048	20389
854.183	20503
854.317	20469
854.451	20674
854.585	20541
854.72	20396
854.854	20488
854.988	20412
855.122	20446
855.256	20324
855.39	20396
855.524	20583
855.658	20446
855.792	20438
855.926	20370
856.06	20549
856.194	20469
856.327	20461
856.461	20381
856.595	20419
856.729	20434
856.862	20522
856.996	20526
857.13	20385
857.263	20693
857.397	20583
857.53	20488
857.664	20374
857.797	20480
857.931	20716
858.064	20526
858.197	20670
858.331	20484
858.464	20450
858.597	20339
858.731	20427
858.864	20404
858.997	20484
859.13	20503
859.263	20583
859.396	20537
859.529	20499
859.662	20450
859.795	20393
859.928	20461
860.061	20651
860.194	20648
860.327	20552
860.46	20389
860.592	20640
860.725	20568
860.858	20655
860.99	20484
861.123	20404
861.256	20511
861.388	20522
861.521	21096
861.653	20233
861.786	20298
861.918	20343
862.05	20313
862.183	20396
862.315	20374
862.447	20427
862.58	20377
862.712	20187
862.844	20142
862.976	20362
863.108	20210
863.24	20583
863.372	20187
863.504	20195
863.636	20259
863.768	20275
863.9	20275
864.032	20233
864.164	20168
864.296	20153
864.428	20286
864.559	20191
864.691	20168
864.823	20183
864.954	20153
865.086	20103
865.217	20058
865.349	19955
865.48	20145
865.612	20035
865.743	20275
865.875	20103
866.006	20043
866.137	20050
866.269	20081
866.4	20142
866.531	20039
866.662	19986
866.793	20115
866.924	19986
867.055	20081
867.186	19997
867.317	20024
867.448	19940
867.579	20149
867.71	19963
867.841	19944
867.972	19963
868.103	20016
868.233	20107
868.364	20012
868.495	20206
868.625	20237
868.756	20476
868.886	20237
869.017	20202
869.147	20377
869.278	20461
869.408	20317
869.539	20301
869.669	20389
869.799	20450
869.929	20438
870.06	20415
870.19	20583
870.32	20617
870.45	20594
870.58	20625
870.71	20731
870.84	20743
870.97	20583
871.1	20655
871.23	20845
871.36	20933
871.489	20758
871.619	20864
871.749	20845
871.879	20937
872.008	21001
872.138	20891
872.267	20899
872.397	20773
872.526	20804
872.656	20724
872.785	20697
872.915	20918
873.044	20967
873.173	20941
873.303	21020
873.432	20883
873.561	21077
873.69	20899
873.819	20960
873.948	21066
874.077	20914
874.206	20868
874.335	20868
874.464	21043
874.593	21188
874.722	21211
874.851	21287
874.979	21245
875.108	21165
875.237	21055
875.365	21036
875.494	21135
875.623	21173
875.751	21161
875.88	21176
876.008	21260
876.136	21363
876.265	21526
876.393	21622
876.521	21648
876.65	21591
876.778	21580
876.906	21507
877.034	21507
877.162	21420
877.29	21462
877.418	21583
877.546	21477
877.674	21595
877.802	21564
877.93	21549
878.058	21481
878.185	21412
878.313	21458
878.441	21561
878.568	21386
878.696	21405
878.824	21523
878.951	21648
879.079	21698
879.206	21869
879.333	21739
879.461	21587
879.588	21667
879.715	21728
879.842	21785
879.97	21614
880.097	21397
880.224	21428
880.351	21306
880.478	21397
880.605	21256
880.732	21351
880.859	21572
880.986	21431
881.112	21272
881.239	21154
881.366	20994
881.493	21020
881.619	20944
881.746	21028
881.872	20899
881.999	20918
882.125	20979
882.252	21047
882.378	20937
882.505	20990
882.631	20838
882.757	20613
882.883	20724
883.01	20625
883.136	20556
883.262	20469
883.388	20404
883.514	20701
883.64	20590
883.766	20708
883.892	20412
884.018	20396
884.143	20507
884.269	20659
884.395	20294
884.52	20233
884.646	20374
884.772	20054
884.897	20142
885.023	20412
885.148	20450
885.274	20473
885.399	20427
885.524	20423
885.65	20377
885.775	20229
885.9	20218
886.025	20374
886.15	20298
886.275	20210
886.4	20096
886.525	20081
886.65	20172
886.775	20115
886.9	20419
887.025	20526
887.149	20240
887.274	20115
887.399	20062
887.523	20016
887.648	20012
887.773	19967
887.897	20111
888.021	20111
888.146	20062
888.27	20142
888.395	20077
888.519	20180
888.643	20001
888.767	20096
888.891	20130
889.015	19982
889.139	19811
889.263	19791
889.387	19963
889.511	20020
889.635	19986
889.759	19852
889.883	19803
890.006	19860
890.13	19955
890.254	19769
890.377	19734
890.501	19639
890.624	19643
890.748	19681
890.871	19559
890.995	19464
891.118	19434
891.241	19510
891.364	19407
891.488	19540
891.611	19502
891.734	19411
891.857	19331
891.98	19537
892.103	19472
892.226	19457
892.349	19377
892.471	19263
892.594	19396
892.717	19396
892.839	19396
892.962	19419
893.085	19430
893.207	19369
893.33	19346
893.452	19312
893.575	19422
893.697	19369
893.819	19491
893.941	19556
894.064	19613
894.186	19259
894.308	19320
894.43	19480
894.552	19487
894.674	19457
894.796	19259
894.918	19430
895.04	19491
895.161	19384
895.283	19453
895.405	19278
895.526	19308
895.648	19422
895.769	19362
895.891	19426
896.012	19445
896.134	19388
896.255	19255
896.376	19343
896.498	19388
896.619	19453
896.74	19407
896.861	19552
896.982	19753
897.103	19868
897.224	19666
897.345	19590
897.466	19586
897.587	19685
897.708	19795
897.828	19712
897.949	19666
898.07	19460
898.19	19533
898.311	19685
898.431	19586
898.552	19628
898.672	19708
898.792	19753
898.913	19537
899.033	19521
899.153	19396
899.273	19430
899.393	19392
899.513	19445
899.633	19331
899.753	19480
899.873	19316
899.993	19483
900.113	19491
900.232	19331
900.352	19343
900.472	19225
900.591	19183
900.711	19209
900.83	19171
900.95	19369
901.069	19324
901.189	19084
901.308	18894
901.427	18840
901.546	18840
901.665	18920
901.784	18745
901.904	18658
902.023	18551
902.141	18388
902.26	18315
902.379	18448
902.498	18388
902.617	18251
902.735	18285
902.854	18388
902.973	18209
903.091	18045
903.21	17946
903.328	17950
903.446	17969
903.565	17729
903.683	17824
903.801	17672
903.919	17790
904.038	17638
904.156	17649
904.274	17623
904.392	17551
904.51	17497
904.627	17478
904.745	17554
904.863	17577
904.981	17421
905.098	17204
905.216	17330
905.334	17345
905.451	17223
905.569	17254
905.686	17296
905.803	17193
905.921	16980
906.038	17151
906.155	17071
906.272	16946
906.389	16919
906.506	16801
906.623	16790
906.74	16778
906.857	16653
906.974	16607
907.091	16854
907.208	16885
907.324	16862
907.441	16592
907.557	16550
907.674	16558
907.79	16466
907.907	16440
908.023	16512
908.139	16538
908.256	16443
908.372	16432
908.488	16367
908.604	16295
908.72	16139
908.836	16265
908.952	16150
909.068	16223
909.184	16303
909.3	16306
909.415	16196
909.531	16154
909.647	16013
909.762	15979
909.878	15979
909.993	15945
910.108	15854
910.224	15907
910.339	15930
910.454	15937
910.57	15785
910.685	15686
910.8	15892
910.915	15979
911.03	15797
911.145	15739
911.259	15587
911.374	15549
911.489	15408
911.604	15382
911.718	15260
911.833	15313
911.947	15195
912.062	15142
912.176	15275
912.291	15344
912.405	15367
912.519	15458
912.633	15458
912.748	15302
912.862	15252
912.976	15066
913.09	15017
913.204	15127
913.318	15146
913.431	15207
913.545	15192
913.659	15222
913.772	15062
913.886	14956
914	14887
914.113	14994
914.226	15055
914.34	15013
914.453	14792
914.566	14880
914.68	14849
914.793	14823
914.906	14682
915.019	14556
915.132	14518
915.245	14556
915.358	14514
915.47	14587
915.583	14617
915.696	14613
915.809	14655
915.921	14670
916.034	14454
916.146	14473
916.259	14408
916.371	14545
916.483	14590
916.595	14381
916.708	14385
916.82	14415
916.932	14259
917.044	14370
917.156	14286
917.268	14149
917.38	14328
917.491	14199
917.603	14263
917.715	14275
917.826	14305
917.938	14214
918.049	14153
918.161	14149
918.272	14332
918.384	14347
918.495	14252
918.606	14062
918.717	13963
918.828	13947
918.939	14065
919.05	13860
919.161	13982
919.272	13791
919.383	13833
919.494	13970
919.604	14328
919.715	13936
919.826	13917
919.936	14005
920.047	14027
920.157	14027
920.267	14183
920.378	13947
920.488	14043
920.598	14176
920.708	14320
920.818	14153
920.928	14157
921.038	14290
921.148	14202
921.258	13887
921.368	13731
921.477	13799
921.587	13681
921.697	13537
921.806	13734
921.916	13601
922.025	13426
922.134	13441
922.244	13320
922.353	13365
922.462	13247
922.571	13164
922.68	13053
922.789	12993
922.898	13061
923.007	12981
923.116	13103
923.224	13038
923.333	12954
923.442	12928
923.55	12772
923.659	12829
923.767	12973
923.876	12738
923.984	12954
924.092	12817
924.201	12837
924.309	12920
924.417	12806
924.525	12688
924.633	12806
924.741	13453
924.849	12540
924.956	12631
925.064	12486
925.172	12426
925.279	12410
925.387	12517
925.494	12483
925.602	12582
925.709	12483
925.816	12361
925.924	12391
926.031	12513
926.138	12369
926.245	12403
926.352	12346
926.459	12467
926.566	12407
926.673	12353
926.779	12289
926.886	12224
926.993	12182
927.099	12117
927.206	12152
927.312	11980
927.419	12167
927.525	12011
927.631	12064
927.737	11946
927.843	11878
927.95	11855
928.056	11882
928.162	11786
928.267	11969
928.373	12574
928.479	11954
928.585	11722
928.69	11863
928.796	11889
928.901	11786
929.007	11585
929.112	11783
929.218	11748
929.323	11707
929.428	11535
929.533	11657
929.638	11509
929.743	11573
929.848	11642
929.953	11592
930.058	11444
930.163	11349
930.267	11372
930.372	11444
930.477	11258
930.581	11543
930.685	11337
930.79	11132
930.894	11254
930.998	11223
931.103	11349
931.207	10911
931.311	10908
931.415	10820
931.519	10634
931.623	10634
