Data from test_V78500241_930.txt Node
Date: Fri Mar 25 15:16:20 CST 2022
User: usil
Spectrometer: V785-0024
Trigger mode: 0
Integration Time (sec): 4.000000E-1
Scans to average: 1
Nonlinearity correction enabled: false
Boxcar width: 0
Storing dark spectrum: false
XAxis mode: Wavelengths
Number of Pixels in Spectrum: 1024
>>>>>Begin Spectral Data<<<<<
801.071	28017
801.214	28021
801.356	27739
801.499	27534
801.641	27549
801.783	27473
801.926	27576
802.068	27488
802.211	27252
802.353	27306
802.496	27275
802.638	27173
802.78	27203
802.923	27077
803.065	27195
803.208	27112
803.35	27237
803.492	27195
803.635	27218
803.777	27272
803.919	27378
804.061	27599
804.204	27412
804.346	27313
804.488	27272
804.63	27336
804.773	27173
804.915	27332
805.057	27507
805.199	27393
805.341	27416
805.483	27549
805.626	27469
805.768	27469
805.91	27523
806.052	27473
806.194	27454
806.336	27679
806.478	27530
806.62	27511
806.762	27660
806.904	27800
807.046	27850
807.188	27781
807.33	27987
807.472	27937
807.614	27975
807.756	27895
807.898	27842
808.04	27690
808.182	27713
808.324	27743
808.465	27926
808.607	28032
808.749	28154
808.891	28158
809.033	28257
809.174	28242
809.316	28177
809.458	28223
809.6	28238
809.741	28204
809.883	28341
810.025	28474
810.166	28554
810.308	28485
810.45	28417
810.591	28344
810.733	28230
810.875	28162
811.016	28040
811.158	28070
811.299	28192
811.441	28154
811.582	28200
811.724	28143
811.865	28143
812.007	28150
812.148	28021
812.29	28276
812.431	28280
812.573	28615
812.714	28577
812.855	28656
812.997	28847
813.138	28976
813.279	28915
813.421	28713
813.562	28748
813.703	28531
813.845	28382
813.986	28112
814.127	27880
814.268	27808
814.41	27861
814.551	27743
814.692	27846
814.833	27781
814.974	27819
815.115	27854
815.256	27781
815.397	27713
815.539	27819
815.68	27671
815.821	27595
815.962	27698
816.103	27667
816.244	27519
816.385	27389
816.526	27431
816.666	27439
816.807	27264
816.948	27207
817.089	27222
817.23	27043
817.371	27173
817.512	27214
817.653	27214
817.793	27146
817.934	27214
818.075	27176
818.216	27104
818.356	27028
818.497	27062
818.638	27005
818.778	26929
818.919	26876
819.06	27005
819.2	26906
819.341	27272
819.481	27192
819.622	27173
819.762	27515
819.903	27397
820.043	27469
820.184	27348
820.324	27195
820.465	27226
820.605	27363
820.746	27245
820.886	27104
821.026	27264
821.167	27218
821.307	27344
821.447	27146
821.588	27036
821.728	26975
821.868	26735
822.008	26720
822.149	26522
822.289	26606
822.429	26469
822.569	26339
822.709	26366
822.849	26142
822.99	26195
823.13	26221
823.27	26126
823.41	25921
823.55	25811
823.69	25936
823.83	25974
823.97	25860
824.11	25746
824.25	25852
824.389	25833
824.529	25932
824.669	25772
824.809	25959
824.949	25803
825.089	25795
825.228	25955
825.368	25590
825.508	25670
825.648	25753
825.787	25643
825.927	25772
826.067	25666
826.206	25586
826.346	25704
826.485	25761
826.625	25647
826.765	25719
826.904	25670
827.044	25537
827.183	25407
827.323	25430
827.462	25483
827.601	25464
827.741	25377
827.88	25495
828.02	25335
828.159	25381
828.298	25426
828.437	25434
828.577	25362
828.716	25613
828.855	25400
828.994	25133
829.134	25175
829.273	25187
829.412	25103
829.551	24943
829.69	25004
829.829	25194
829.968	25247
830.107	25228
830.246	25148
830.385	25069
830.524	24996
830.663	24878
830.802	24928
830.941	24719
831.08	24658
831.219	24753
831.357	24795
831.496	24973
831.635	24707
831.774	24665
831.913	24597
832.051	24486
832.19	24350
832.329	24559
832.467	24338
832.606	24350
832.744	24285
832.883	24384
833.022	24407
833.16	24243
833.299	24494
833.437	24334
833.576	24612
833.714	24391
833.852	24441
833.991	24429
834.129	24547
834.267	24544
834.406	24486
834.544	24448
834.682	24456
834.821	24498
834.959	24566
835.097	24452
835.235	24467
835.373	24445
835.511	24486
835.65	24258
835.788	24262
835.926	24197
836.064	24087
836.202	24144
836.34	24319
836.478	24334
836.615	24346
836.753	24327
836.891	24437
837.029	24422
837.167	24273
837.305	24159
837.443	24110
837.58	24155
837.718	24251
837.856	24155
837.993	24106
838.131	24087
838.269	23939
838.406	24083
838.544	23832
838.681	23760
838.819	23893
838.956	23520
839.094	23528
839.231	23684
839.369	23718
839.506	23889
839.643	23821
839.781	23608
839.918	23512
840.055	23543
840.193	23623
840.33	23467
840.467	23512
840.604	23570
840.742	23912
840.879	23471
841.016	23421
841.153	23345
841.29	23520
841.427	23425
841.564	23653
841.701	23490
841.838	23395
841.975	23383
842.112	23292
842.249	23360
842.385	23254
842.522	23592
842.659	23307
842.796	23307
842.933	23166
843.069	23151
843.206	23204
843.343	23227
843.479	23216
843.616	23143
843.752	22995
843.889	23102
844.025	23227
844.162	23037
844.298	23261
844.435	23071
844.571	23044
844.708	22987
844.844	23136
844.98	23204
845.117	23189
845.253	22919
845.389	22991
845.525	22930
845.661	22900
845.798	22744
845.934	22790
846.07	22835
846.206	22759
846.342	22930
846.478	22740
846.614	22554
846.75	22493
846.886	22546
847.022	22569
847.158	22535
847.294	22504
847.429	22493
847.565	22489
847.701	22748
847.837	22261
847.972	22204
848.108	22318
848.244	22226
848.379	22207
848.515	22196
848.65	22150
848.786	22112
848.921	22200
849.057	22162
849.192	22242
849.328	22139
849.463	22166
849.598	22299
849.734	22078
849.869	21808
850.004	22059
850.14	22021
850.275	21869
850.41	21717
850.545	21797
850.68	21778
850.815	21953
850.95	21960
851.085	22074
851.22	21922
851.355	21876
851.49	22002
851.625	21930
851.76	21804
851.895	21869
852.03	21831
852.165	21983
852.299	21751
852.434	21857
852.569	21953
852.703	21861
852.838	21861
852.973	22013
853.107	21994
853.242	21926
853.376	21724
853.511	21641
853.645	21576
853.78	21850
853.914	21686
854.048	21755
854.183	21599
854.317	21591
854.451	22032
854.585	21701
854.72	21644
854.854	21831
854.988	21614
855.122	21660
855.256	21523
855.39	21656
855.524	21785
855.658	21675
855.792	21717
855.926	21717
856.06	21762
856.194	21789
856.327	21641
856.461	21629
856.595	21591
856.729	21686
856.862	21705
856.996	21625
857.13	21732
857.263	21762
857.397	21816
857.53	21755
857.664	21755
857.797	21747
857.931	21884
858.064	21732
858.197	21861
858.331	21663
858.464	21667
858.597	21603
858.731	21591
858.864	21652
858.997	21610
859.13	21755
859.263	21686
859.396	21766
859.529	21698
859.662	21538
859.795	21614
859.928	21572
860.061	21823
860.194	21956
860.327	21759
860.46	21755
860.592	21907
860.725	21850
860.858	21911
860.99	21835
861.123	21580
861.256	21732
861.388	21515
861.521	22295
861.653	21583
861.786	21526
861.918	21424
862.05	21511
862.183	21488
862.315	21622
862.447	21728
862.58	21610
862.712	21405
862.844	21298
862.976	21477
863.108	21504
863.24	21739
863.372	21340
863.504	21416
863.636	21386
863.768	21401
863.9	21439
864.032	21195
864.164	21313
864.296	21450
864.428	21660
864.559	21401
864.691	21500
864.823	21549
864.954	21329
865.086	21268
865.217	21306
865.349	21237
865.48	21401
865.612	21252
865.743	21355
865.875	21313
866.006	21169
866.137	21279
866.269	21329
866.4	21256
866.531	21241
866.662	21176
866.793	21310
866.924	21245
867.055	21237
867.186	21275
867.317	21211
867.448	21062
867.579	21135
867.71	21096
867.841	21104
867.972	21218
868.103	21169
868.233	21272
868.364	21336
868.495	21291
868.625	21355
868.756	21564
868.886	21443
869.017	21443
869.147	21492
869.278	21572
869.408	21492
869.539	21386
869.669	21561
869.799	21515
869.929	21663
870.06	21545
870.19	21808
870.32	21622
870.45	21743
870.58	21808
870.71	22032
870.84	21937
870.97	21854
871.1	21865
871.23	22006
871.36	21964
871.489	22070
871.619	22093
871.749	22200
871.879	22162
872.008	22063
872.138	22059
872.267	22044
872.397	21854
872.526	21926
872.656	21861
872.785	21808
872.915	22044
873.044	22162
873.173	22086
873.303	22162
873.432	22029
873.561	22177
873.69	22021
873.819	22036
873.948	22044
874.077	21991
874.206	22013
874.335	21949
874.464	22082
874.593	22253
874.722	22105
874.851	22173
874.979	22246
875.108	22402
875.237	22394
875.365	22303
875.494	22192
875.623	22386
875.751	22150
875.88	22200
876.008	22303
876.136	22409
876.265	22626
876.393	22786
876.521	22691
876.65	22759
876.778	22584
876.906	22653
877.034	22626
877.162	22588
877.29	22535
877.418	22752
877.546	22489
877.674	22607
877.802	22713
877.93	22687
878.058	22493
878.185	22531
878.313	22615
878.441	22500
878.568	22432
878.696	22538
878.824	22698
878.951	22641
879.079	22736
879.206	22919
879.333	22816
879.461	22557
879.588	22729
879.715	22664
879.842	22858
879.97	22550
880.097	22409
880.224	22291
880.351	22630
880.478	22588
880.605	22310
880.732	22489
880.859	22546
880.986	22489
881.112	22390
881.239	22295
881.366	22207
881.493	22070
881.619	22006
881.746	22109
881.872	21975
881.999	21991
882.125	21865
882.252	22017
882.378	22093
882.505	22131
882.631	21880
882.757	21827
882.883	21755
883.01	21747
883.136	21682
883.262	21705
883.388	21736
883.514	21789
883.64	21812
883.766	21739
883.892	21416
884.018	21545
884.143	21743
884.269	21762
884.395	21435
884.52	21374
884.646	21287
884.772	21348
884.897	21245
885.023	21340
885.148	21450
885.274	21523
885.399	21412
885.524	21169
885.65	21302
885.775	21336
885.9	21275
886.025	21443
886.15	21454
886.275	21363
886.4	21226
886.525	21260
886.65	21298
886.775	21218
886.9	21519
887.025	21523
887.149	21306
887.274	21249
887.399	21173
887.523	21070
887.648	20994
887.773	21077
887.897	21157
888.021	21169
888.146	21043
888.27	21176
888.395	21283
888.519	21161
888.643	21150
888.767	21142
888.891	20982
889.015	20864
889.139	21077
889.263	21036
889.387	21036
889.511	21165
889.635	20979
889.759	20838
889.883	20815
890.006	20792
890.13	20979
890.254	20910
890.377	20765
890.501	20549
890.624	20632
890.748	20678
890.871	20617
890.995	20442
891.118	20488
891.241	20579
891.364	20499
891.488	20750
891.611	20629
891.734	20556
891.857	20541
891.98	20332
892.103	20533
892.226	20526
892.349	20419
892.471	20278
892.594	20336
892.717	20275
892.839	20412
892.962	20389
893.085	20488
893.207	20362
893.33	20229
893.452	20282
893.575	20362
893.697	20366
893.819	20408
893.941	20545
894.064	20450
894.186	20393
894.308	20298
894.43	20415
894.552	20530
894.674	20393
894.796	20259
894.918	20404
895.04	20336
895.161	20442
895.283	20313
895.405	20229
895.526	20336
895.648	20374
895.769	20442
895.891	20393
896.012	20518
896.134	20454
896.255	20366
896.376	20233
896.498	20362
896.619	20381
896.74	20347
896.861	20290
896.982	20625
897.103	20781
897.224	20602
897.345	20629
897.466	20503
897.587	20632
897.708	20739
897.828	20674
897.949	20526
898.07	20434
898.19	20469
898.311	20545
898.431	20514
898.552	20613
898.672	20686
898.792	20655
898.913	20613
899.033	20438
899.153	20442
899.273	20248
899.393	20427
899.513	20530
899.633	20351
899.753	20202
899.873	20294
899.993	20412
900.113	20294
900.232	20214
900.352	20218
900.472	20164
900.591	20073
900.711	20126
900.83	20046
900.95	20206
901.069	20180
901.189	20107
901.308	19852
901.427	19605
901.546	19635
901.665	19590
901.784	19628
901.904	19567
902.023	19419
902.141	19232
902.26	19266
902.379	19331
902.498	19099
902.617	19034
902.735	19171
902.854	19202
902.973	19053
903.091	18829
903.21	18802
903.328	18856
903.446	18806
903.565	18650
903.683	18658
903.801	18464
903.919	18540
904.038	18528
904.156	18388
904.274	18475
904.392	18365
904.51	18357
904.627	18464
904.745	18532
904.863	18536
904.981	18262
905.098	18152
905.216	18136
905.334	18110
905.451	18102
905.569	18072
905.686	18049
905.803	18076
905.921	17851
906.038	18007
906.155	17939
906.272	17756
906.389	17821
906.506	17634
906.623	17672
906.74	17611
906.857	17505
906.974	17589
907.091	17695
907.208	17745
907.324	17638
907.441	17566
907.557	17398
907.674	17372
907.79	17246
907.907	17307
908.023	17421
908.139	17356
908.256	17269
908.372	17223
908.488	17166
908.604	17090
908.72	17018
908.836	17079
908.952	16942
909.068	17060
909.184	17220
909.3	17003
909.415	17060
909.531	17083
909.647	16911
909.762	16683
909.878	16717
909.993	16744
910.108	16767
910.224	16790
910.339	16740
910.454	16611
910.57	16535
910.685	16500
910.8	16710
910.915	16733
911.03	16550
911.145	16402
911.259	16375
911.374	16352
911.489	16375
911.604	16238
911.718	16002
911.833	16158
911.947	15918
912.062	15915
912.176	15960
912.291	16013
912.405	16147
912.519	16215
912.633	16265
912.748	16169
912.862	16032
912.976	16010
913.09	15857
913.204	15960
913.318	15953
913.431	15907
913.545	15922
913.659	15953
913.772	15797
913.886	15766
914	15667
914.113	15739
914.226	15865
914.34	15850
914.453	15580
914.566	15743
914.68	15545
914.793	15496
914.906	15382
915.019	15321
915.132	15275
915.245	15321
915.358	15211
915.47	15386
915.583	15374
915.696	15348
915.809	15450
915.921	15378
916.034	15214
916.146	15173
916.259	15161
916.371	15294
916.483	15268
916.595	15169
916.708	15146
916.82	15097
916.932	15207
917.044	15100
917.156	15104
917.268	14998
917.38	15017
917.491	14880
917.603	14887
917.715	15051
917.826	15047
917.938	14960
918.049	14796
918.161	14921
918.272	15077
918.384	14941
918.495	14773
918.606	14762
918.717	14651
918.828	14796
918.939	14750
919.05	14545
919.161	14674
919.272	14465
919.383	14594
919.494	14785
919.604	14826
919.715	14648
919.826	14594
919.936	14716
920.047	14762
920.157	14705
920.267	14815
920.378	14765
920.488	14606
920.598	14906
920.708	14910
920.818	14796
920.928	14883
921.038	14975
921.148	14876
921.258	14625
921.368	14526
921.477	14381
921.587	14419
921.697	14324
921.806	14431
921.916	14317
922.025	14103
922.134	14096
922.244	14012
922.353	14115
922.462	13852
922.571	13841
922.68	13757
922.789	13708
922.898	13693
923.007	13636
923.116	13693
923.224	13677
923.333	13613
923.442	13578
923.55	13548
923.659	13567
923.767	13594
923.876	13426
923.984	13521
924.092	13422
924.201	13445
924.309	13403
924.417	13358
924.525	13301
924.633	13354
924.741	14298
924.849	13202
924.956	13362
925.064	13168
925.172	13046
925.279	13118
925.387	13099
925.494	13110
925.602	13202
925.709	13099
925.816	12932
925.924	13099
926.031	13053
926.138	13091
926.245	13088
926.352	12981
926.459	13069
926.566	13164
926.673	12970
926.779	12798
926.886	12852
926.993	12669
927.099	12692
927.206	12616
927.312	12589
927.419	12738
927.525	12738
927.631	12627
927.737	12483
927.843	12551
927.95	12407
928.056	12448
928.162	12437
928.267	12616
928.373	13095
928.479	12563
928.585	12300
928.69	12422
928.796	12490
928.901	12338
929.007	12213
929.112	12300
929.218	12285
929.323	12163
929.428	12110
929.533	12308
929.638	12167
929.743	12121
929.848	12182
929.953	12121
930.058	11999
930.163	11931
930.267	11961
930.372	12057
930.477	11745
930.581	12057
930.685	11916
930.79	11798
930.894	11767
930.998	11688
931.103	11920
931.207	11406
931.311	11467
931.415	11471
931.519	11162
931.623	11155
