Data from test_V78500241_2898.txt Node
Date: Fri Mar 25 15:30:02 CST 2022
User: usil
Spectrometer: V785-0024
Trigger mode: 0
Integration Time (sec): 4.000000E-1
Scans to average: 1
Nonlinearity correction enabled: false
Boxcar width: 0
Storing dark spectrum: false
XAxis mode: Wavelengths
Number of Pixels in Spectrum: 1024
>>>>>Begin Spectral Data<<<<<
801.071	27359
801.214	27214
801.356	27009
801.499	26880
801.641	26994
801.783	26944
801.926	26819
802.068	26826
802.211	26815
802.353	26701
802.496	26571
802.638	26583
802.78	26530
802.923	26598
803.065	26393
803.208	26389
803.35	26446
803.492	26560
803.635	26552
803.777	26476
803.919	26689
804.061	27138
804.204	26686
804.346	26663
804.488	26549
804.63	26701
804.773	26537
804.915	26655
805.057	26762
805.199	26727
805.341	26697
805.483	26868
805.626	26746
805.768	26663
805.91	26887
806.052	26838
806.194	26708
806.336	26823
806.478	26754
806.62	26663
806.762	26899
806.904	26963
807.046	27313
807.188	27268
807.33	27150
807.472	27245
807.614	27051
807.756	27081
807.898	27032
808.04	26902
808.182	26990
808.324	27055
808.465	27043
808.607	27272
808.749	27393
808.891	27363
809.033	27690
809.174	27420
809.316	27241
809.458	27359
809.6	27355
809.741	27530
809.883	27618
810.025	27713
810.166	27667
810.308	27633
810.45	27698
810.591	27542
810.733	27504
810.875	27382
811.016	27287
811.158	27378
811.299	27450
811.441	27515
811.582	27606
811.724	27336
811.865	27287
812.007	27313
812.148	27317
812.29	27523
812.431	27549
812.573	27648
812.714	27663
812.855	27800
812.997	27888
813.138	27956
813.279	27949
813.421	27869
813.562	27789
813.703	27557
813.845	27458
813.986	27260
814.127	27241
814.268	26994
814.41	27093
814.551	26925
814.692	27116
814.833	26940
814.974	27047
815.115	27028
815.256	26906
815.397	26895
815.539	26868
815.68	26819
815.821	26678
815.962	26762
816.103	26815
816.244	26613
816.385	26556
816.526	26712
816.666	26450
816.807	26218
816.948	26317
817.089	26377
817.23	26495
817.371	26210
817.512	26282
817.653	26328
817.793	26161
817.934	26233
818.075	26320
818.216	26313
818.356	26180
818.497	26172
818.638	25936
818.778	26035
818.919	25974
819.06	26164
819.2	26005
819.341	26278
819.481	26221
819.622	26362
819.762	26552
819.903	26511
820.043	26453
820.184	26393
820.324	26278
820.465	26408
820.605	26541
820.746	26263
820.886	26256
821.026	26229
821.167	26244
821.307	26412
821.447	26267
821.588	26153
821.728	26081
821.868	25887
822.008	25757
822.149	25674
822.289	25613
822.429	25457
822.569	25502
822.709	25392
822.849	25088
822.99	25270
823.13	25145
823.27	25107
823.41	25019
823.55	24970
823.69	25042
823.83	24951
823.97	24954
824.11	24711
824.25	24772
824.389	24871
824.529	24894
824.669	24886
824.809	24951
824.949	25038
825.089	24798
825.228	24894
825.368	24642
825.508	24719
825.648	24700
825.787	24772
825.927	24875
826.067	24730
826.206	24684
826.346	24779
826.485	24696
826.625	24753
826.765	24810
826.904	24779
827.044	24467
827.183	24559
827.323	24365
827.462	24460
827.601	24456
827.741	24536
827.88	24429
828.02	24380
828.159	24426
828.298	24452
828.437	24528
828.577	24304
828.716	24654
828.855	24266
828.994	24186
829.134	24171
829.273	24167
829.412	24102
829.551	24072
829.69	24098
829.829	24148
829.968	24304
830.107	24300
830.246	24125
830.385	24057
830.524	23973
830.663	23912
830.802	23885
830.941	23729
831.08	23745
831.219	23752
831.357	23802
831.496	24045
831.635	23600
831.774	23634
831.913	23551
832.051	23562
832.19	23459
832.329	23490
832.467	23364
832.606	23303
832.744	23368
832.883	23433
833.022	23360
833.16	23311
833.299	23372
833.437	23356
833.576	23558
833.714	23448
833.852	23486
833.991	23505
834.129	23596
834.267	23611
834.406	23608
834.544	23528
834.682	23455
834.821	23330
834.959	23535
835.097	23288
835.235	23463
835.373	23345
835.511	23459
835.65	23379
835.788	23288
835.926	23071
836.064	23162
836.202	23090
836.34	23258
836.478	23406
836.615	23288
836.753	23254
836.891	23326
837.029	23341
837.167	23246
837.305	23288
837.443	23151
837.58	23261
837.718	23330
837.856	23121
837.993	23086
838.131	23044
838.269	22987
838.406	23174
838.544	22900
838.681	22820
838.819	22866
838.956	22512
839.094	22668
839.231	22672
839.369	22908
839.506	23003
839.643	22778
839.781	22637
839.918	22653
840.055	22615
840.193	22417
840.33	22599
840.467	22596
840.604	22569
840.742	22710
840.879	22329
841.016	22402
841.153	22348
841.29	22637
841.427	22466
841.564	22660
841.701	22569
841.838	22447
841.975	22375
842.112	22523
842.249	22409
842.385	22424
842.522	22519
842.659	22478
842.796	22242
842.933	22188
843.069	22242
843.206	22322
843.343	22348
843.479	22238
843.616	22211
843.752	22010
843.889	22070
844.025	22181
844.162	22097
844.298	22257
844.435	22051
844.571	22006
844.708	22181
844.844	22154
844.98	22124
845.117	22154
845.253	21994
845.389	21918
845.525	22032
845.661	21899
845.798	21793
845.934	21816
846.07	21762
846.206	21823
846.342	21865
846.478	21800
846.614	21504
846.75	21386
846.886	21557
847.022	21652
847.158	21652
847.294	21553
847.429	21557
847.565	21431
847.701	21774
847.837	21435
847.972	21222
848.108	21306
848.244	21268
848.379	21233
848.515	21055
848.65	21077
848.786	21058
848.921	21077
849.057	21260
849.192	21226
849.328	21195
849.463	21085
849.598	21165
849.734	21058
849.869	20842
850.004	20944
850.14	20956
850.275	20906
850.41	20925
850.545	20857
850.68	20933
850.815	20880
850.95	20887
851.085	21070
851.22	20933
851.355	20910
851.49	20804
851.625	20765
851.76	20910
851.895	20788
852.03	20731
852.165	20925
852.299	20910
852.434	21039
852.569	20963
852.703	20963
852.838	20918
852.973	21085
853.107	20845
853.242	20758
853.376	20739
853.511	20575
853.645	20785
853.78	20857
853.914	20781
854.048	20678
854.183	20739
854.317	20743
854.451	20971
854.585	20739
854.72	20617
854.854	20682
854.988	20724
855.122	20731
855.256	20617
855.39	20674
855.524	20823
855.658	20785
855.792	20750
855.926	20632
856.06	20746
856.194	20910
856.327	20674
856.461	20659
856.595	20640
856.729	20773
856.862	20823
856.996	20807
857.13	20769
857.263	20716
857.397	20830
857.53	20587
857.664	20674
857.797	20800
857.931	20883
858.064	20758
858.197	20830
858.331	20712
858.464	20549
858.597	20632
858.731	20705
858.864	20678
858.997	20533
859.13	20674
859.263	20743
859.396	20834
859.529	20746
859.662	20670
859.795	20720
859.928	20765
860.061	20845
860.194	20819
860.327	20834
860.46	20895
860.592	20834
860.725	20853
860.858	20800
860.99	20644
861.123	20792
861.256	20682
861.388	20830
861.521	21378
861.653	20507
861.786	20522
861.918	20594
862.05	20670
862.183	20609
862.315	20826
862.447	20731
862.58	20473
862.712	20415
862.844	20434
862.976	20393
863.108	20549
863.24	20937
863.372	20393
863.504	20495
863.636	20442
863.768	20419
863.9	20434
864.032	20275
864.164	20389
864.296	20370
864.428	20503
864.559	20625
864.691	20427
864.823	20461
864.954	20556
865.086	20431
865.217	20301
865.349	20370
865.48	20355
865.612	20385
865.743	20476
865.875	20347
866.006	20355
866.137	20172
866.269	20343
866.4	20385
866.531	20267
866.662	20195
866.793	20221
866.924	20320
867.055	20202
867.186	20324
867.317	20267
867.448	20130
867.579	20240
867.71	20031
867.841	20107
867.972	20282
868.103	20309
868.233	20320
868.364	20275
868.495	20351
868.625	20442
868.756	20720
868.886	20347
869.017	20442
869.147	20587
869.278	20689
869.408	20476
869.539	20507
869.669	20575
869.799	20587
869.929	20686
870.06	20533
870.19	20883
870.32	20788
870.45	20811
870.58	20811
870.71	21001
870.84	20948
870.97	20864
871.1	20914
871.23	21157
871.36	21051
871.489	21077
871.619	20967
871.749	21058
871.879	21157
872.008	21150
872.138	21085
872.267	21173
872.397	21005
872.526	20937
872.656	20944
872.785	20887
872.915	20998
873.044	21176
873.173	21176
873.303	21226
873.432	21268
873.561	21165
873.69	21176
873.819	21146
873.948	21116
874.077	21165
874.206	20960
874.335	21096
874.464	21256
874.593	21412
874.722	21348
874.851	21553
874.979	21252
875.108	21408
875.237	21321
875.365	21195
875.494	21237
875.623	21370
875.751	21389
875.88	21313
876.008	21428
876.136	21561
876.265	21873
876.393	21850
876.521	21838
876.65	21812
876.778	21766
876.906	21633
877.034	21713
877.162	21736
877.29	21599
877.418	21827
877.546	21759
877.674	21652
877.802	21648
877.93	21717
878.058	21694
878.185	21492
878.313	21701
878.441	21583
878.568	21481
878.696	21679
878.824	21774
878.951	21903
879.079	21774
879.206	22040
879.333	21873
879.461	21606
879.588	21728
879.715	21964
879.842	21869
879.97	21857
880.097	21622
880.224	21557
880.351	21530
880.478	21618
880.605	21454
880.732	21447
880.859	21682
880.986	21648
881.112	21492
881.239	21492
881.366	21207
881.493	21188
881.619	21119
881.746	21036
881.872	21100
881.999	21017
882.125	21096
882.252	21085
882.378	21032
882.505	21036
882.631	20956
882.757	20796
882.883	20883
883.01	20792
883.136	20864
883.262	20727
883.388	20670
883.514	20724
883.64	20826
883.766	20788
883.892	20644
884.018	20617
884.143	20830
884.269	20838
884.395	20602
884.52	20503
884.646	20575
884.772	20484
884.897	20442
885.023	20465
885.148	20480
885.274	20590
885.399	20560
885.524	20511
885.65	20476
885.775	20473
885.9	20480
886.025	20560
886.15	20552
886.275	20480
886.4	20339
886.525	20389
886.65	20385
886.775	20358
886.9	20602
887.025	20629
887.149	20415
887.274	20282
887.399	20358
887.523	20233
887.648	20176
887.773	20138
887.897	20290
888.021	20324
888.146	20202
888.27	20294
888.395	20202
888.519	20294
888.643	20446
888.767	20214
888.891	20202
889.015	20069
889.139	20183
889.263	20035
889.387	20111
889.511	20267
889.635	20081
889.759	19951
889.883	19970
890.006	20103
890.13	20081
890.254	19967
890.377	20039
890.501	19856
890.624	19780
890.748	19963
890.871	19696
890.995	19632
891.118	19540
891.241	19761
891.364	19742
891.488	19795
891.611	19499
891.734	19681
891.857	19696
891.98	19597
892.103	19586
892.226	19651
892.349	19548
892.471	19392
892.594	19502
892.717	19643
892.839	19487
892.962	19457
893.085	19552
893.207	19567
893.33	19510
893.452	19521
893.575	19552
893.697	19499
893.819	19742
893.941	19715
894.064	19620
894.186	19487
894.308	19472
894.43	19601
894.552	19655
894.674	19693
894.796	19502
894.918	19491
895.04	19525
895.161	19540
895.283	19540
895.405	19354
895.526	19544
895.648	19582
895.769	19605
895.891	19559
896.012	19731
896.134	19563
896.255	19628
896.376	19487
896.498	19575
896.619	19537
896.74	19537
896.861	19495
896.982	19852
897.103	19982
897.224	19826
897.345	19830
897.466	19845
897.587	19818
897.708	19959
897.828	19772
897.949	19830
898.07	19594
898.19	19693
898.311	19871
898.431	19677
898.552	19795
898.672	19879
898.792	19906
898.913	19788
899.033	19719
899.153	19567
899.273	19518
899.393	19655
899.513	19563
899.633	19556
899.753	19548
899.873	19537
899.993	19499
900.113	19441
900.232	19491
900.352	19407
900.472	19324
900.591	19346
900.711	19324
900.83	19282
900.95	19434
901.069	19472
901.189	19221
901.308	18913
901.427	18901
901.546	18993
901.665	19008
901.784	18966
901.904	18787
902.023	18776
902.141	18486
902.26	18490
902.379	18540
902.498	18486
902.617	18422
902.735	18532
902.854	18395
902.973	18300
903.091	18262
903.21	18152
903.328	18129
903.446	18022
903.565	17912
903.683	17885
903.801	17859
903.919	17931
904.038	17923
904.156	17707
904.274	17756
904.392	17699
904.51	17661
904.627	17680
904.745	17703
904.863	17729
904.981	17501
905.098	17299
905.216	17429
905.334	17341
905.451	17398
905.569	17372
905.686	17455
905.803	17341
905.921	17239
906.038	17208
906.155	17162
906.272	17056
906.389	17204
906.506	17045
906.623	16957
906.74	16889
906.857	16740
906.974	16820
907.091	17102
907.208	17083
907.324	16919
907.441	16782
907.557	16710
907.674	16664
907.79	16588
907.907	16565
908.023	16577
908.139	16649
908.256	16500
908.372	16573
908.488	16546
908.604	16314
908.72	16382
908.836	16382
908.952	16367
909.068	16462
909.184	16455
909.3	16322
909.415	16432
909.531	16295
909.647	16139
909.762	16032
909.878	16048
909.993	16109
910.108	16051
910.224	15998
910.339	16074
910.454	15880
910.57	15873
910.685	15816
910.8	16013
910.915	16090
911.03	15876
911.145	15789
911.259	15682
911.374	15606
911.489	15622
911.604	15568
911.718	15382
911.833	15443
911.947	15481
912.062	15348
912.176	15355
912.291	15496
912.405	15557
912.519	15561
912.633	15675
912.748	15523
912.862	15340
912.976	15275
913.09	15112
913.204	15252
913.318	15256
913.431	15336
913.545	15363
913.659	15256
913.772	15188
913.886	15070
914	15165
914.113	15066
914.226	15089
914.34	15150
914.453	15017
914.566	15135
914.68	14830
914.793	14956
914.906	14686
915.019	14617
915.132	14564
915.245	14670
915.358	14697
915.47	14716
915.583	14701
915.696	14765
915.809	14826
915.921	14663
916.034	14663
916.146	14575
916.259	14492
916.371	14667
916.483	14648
916.595	14541
916.708	14556
916.82	14533
916.932	14549
917.044	14396
917.156	14495
917.268	14374
917.38	14396
917.491	14305
917.603	14446
917.715	14518
917.826	14423
917.938	14214
918.049	14100
918.161	14278
918.272	14461
918.384	14396
918.495	14408
918.606	14119
918.717	14024
918.828	14134
918.939	14130
919.05	14043
919.161	14142
919.272	13864
919.383	14016
919.494	14084
919.604	14134
919.715	14149
919.826	14001
919.936	14062
920.047	14134
920.157	14050
920.267	14221
920.378	14062
920.488	14012
920.598	14153
920.708	14370
920.818	14172
920.928	14123
921.038	14301
921.148	14305
921.258	14107
921.368	13989
921.477	13852
921.587	13772
921.697	13731
921.806	13818
921.916	13685
922.025	13556
922.134	13384
922.244	13419
922.353	13472
922.462	13422
922.571	13244
922.68	13099
922.789	13118
922.898	13065
923.007	13110
923.116	13187
923.224	13118
923.333	13095
923.442	12962
923.55	12947
923.659	13057
923.767	13126
923.876	12920
923.984	12954
924.092	12814
924.201	12901
924.309	12810
924.417	12871
924.525	12764
924.633	12825
924.741	13738
924.849	12585
924.956	12734
925.064	12612
925.172	12467
925.279	12555
925.387	12555
925.494	12578
925.602	12722
925.709	12597
925.816	12483
925.924	12517
926.031	12479
926.138	12593
926.245	12540
926.352	12365
926.459	12582
926.566	12566
926.673	12452
926.779	12285
926.886	12292
926.993	12159
927.099	12159
927.206	12125
927.312	12011
927.419	12232
927.525	12114
927.631	12144
927.737	12041
927.843	11996
927.95	11870
928.056	11954
928.162	12007
928.267	11999
928.373	12662
928.479	12125
928.585	11828
928.69	11882
928.796	11946
928.901	11843
929.007	11718
929.112	11843
929.218	11824
929.323	11733
929.428	11703
929.533	11741
929.638	11680
929.743	11646
929.848	11714
929.953	11596
930.058	11551
930.163	11372
930.267	11387
930.372	11478
930.477	11372
930.581	11581
930.685	11414
930.79	11334
930.894	11242
930.998	11292
931.103	11406
931.207	11018
931.311	10965
931.415	10889
931.519	10626
931.623	10660
