Data from test_V78500241_3189.txt Node
Date: Fri Mar 25 15:32:03 CST 2022
User: usil
Spectrometer: V785-0024
Trigger mode: 0
Integration Time (sec): 4.000000E-1
Scans to average: 1
Nonlinearity correction enabled: false
Boxcar width: 0
Storing dark spectrum: false
XAxis mode: Wavelengths
Number of Pixels in Spectrum: 1024
>>>>>Begin Spectral Data<<<<<
801.071	26823
801.214	26861
801.356	26693
801.499	26541
801.641	26336
801.783	26385
801.926	26377
802.068	26332
802.211	26214
802.353	26355
802.496	26077
802.638	26043
802.78	25864
802.923	25917
803.065	25871
803.208	25712
803.35	25947
803.492	26069
803.635	26046
803.777	25947
803.919	26153
804.061	26446
804.204	26069
804.346	25997
804.488	25959
804.63	26065
804.773	26008
804.915	26126
805.057	26122
805.199	26088
805.341	26084
805.483	26130
805.626	26259
805.768	26164
805.91	26259
806.052	26142
806.194	26126
806.336	26343
806.478	26214
806.62	26252
806.762	26419
806.904	26252
807.046	26587
807.188	26533
807.33	26663
807.472	26552
807.614	26495
807.756	26659
807.898	26495
808.04	26305
808.182	26366
808.324	26511
808.465	26457
808.607	26625
808.749	26754
808.891	26823
809.033	26830
809.174	26819
809.316	26902
809.458	26785
809.6	26632
809.741	26910
809.883	26834
810.025	26914
810.166	26963
810.308	27116
810.45	26933
810.591	27009
810.733	26853
810.875	26686
811.016	26720
811.158	26552
811.299	26895
811.441	26853
811.582	26804
811.724	26765
811.865	26712
812.007	26648
812.148	26724
812.29	26815
812.431	26800
812.573	27009
812.714	27119
812.855	27237
812.997	27256
813.138	27355
813.279	27279
813.421	27370
813.562	27211
813.703	26956
813.845	26971
813.986	26606
814.127	26579
814.268	26400
814.41	26541
814.551	26305
814.692	26461
814.833	26275
814.974	26240
815.115	26404
815.256	26210
815.397	26176
815.539	26366
815.68	26157
815.821	26157
815.962	26195
816.103	26252
816.244	26016
816.385	25974
816.526	25913
816.666	25704
816.807	25590
816.948	25670
817.089	25685
817.23	25845
817.371	25693
817.512	25784
817.653	25700
817.793	25597
817.934	25510
818.075	25700
818.216	25567
818.356	25540
818.497	25597
818.638	25343
818.778	25346
818.919	25434
819.06	25540
819.2	25544
819.341	25620
819.481	25712
819.622	25780
819.762	25902
819.903	26058
820.043	25769
820.184	25791
820.324	25719
820.465	25875
820.605	25712
820.746	25658
820.886	25601
821.026	25613
821.167	25715
821.307	25746
821.447	25696
821.588	25499
821.728	25438
821.868	25285
822.008	25209
822.149	25095
822.289	25209
822.429	24939
822.569	24722
822.709	24779
822.849	24749
822.99	24722
823.13	24639
823.27	24627
823.41	24433
823.55	24342
823.69	24532
823.83	24433
823.97	24517
824.11	24174
824.25	24235
824.389	24239
824.529	24270
824.669	24209
824.809	24372
824.949	24186
825.089	24296
825.228	24247
825.368	24072
825.508	23992
825.648	24197
825.787	24068
825.927	24095
826.067	24057
826.206	24064
826.346	24251
826.485	24232
826.625	24072
826.765	24235
826.904	24216
827.044	23920
827.183	23779
827.323	23726
827.462	23870
827.601	23809
827.741	23672
827.88	23737
828.02	23748
828.159	23790
828.298	23805
828.437	23817
828.577	23748
828.716	23885
828.855	23691
828.994	23573
829.134	23558
829.273	23558
829.412	23551
829.551	23395
829.69	23448
829.829	23493
829.968	23653
830.107	23490
830.246	23505
830.385	23497
830.524	23364
830.663	23433
830.802	23223
830.941	23086
831.08	23140
831.219	23242
831.357	23231
831.496	23425
831.635	23124
831.774	23109
831.913	23052
832.051	23006
832.19	22904
832.329	22968
832.467	22752
832.606	22706
832.744	22767
832.883	22778
833.022	22698
833.16	22809
833.299	22771
833.437	22812
833.576	22828
833.714	22934
833.852	22934
833.991	22972
834.129	22812
834.267	22934
834.406	22866
834.544	22873
834.682	22927
834.821	22850
834.959	23025
835.097	22828
835.235	22946
835.373	22725
835.511	22816
835.65	22668
835.788	22736
835.926	22584
836.064	22481
836.202	22538
836.34	22710
836.478	22687
836.615	22630
836.753	22767
836.891	22793
837.029	22782
837.167	22733
837.305	22660
837.443	22538
837.58	22580
837.718	22569
837.856	22592
837.993	22599
838.131	22573
838.269	22379
838.406	22474
838.544	22360
838.681	22249
838.819	22238
838.956	22025
839.094	22139
839.231	22097
839.369	22166
839.506	22512
839.643	22459
839.781	22051
839.918	22013
840.055	21960
840.193	22093
840.33	22078
840.467	22010
840.604	22109
840.742	22097
840.879	21964
841.016	21983
841.153	21960
841.29	22021
841.427	21918
841.564	22002
841.701	22010
841.838	21903
841.975	21926
842.112	21987
842.249	21835
842.385	21766
842.522	22101
842.659	21819
842.796	21930
842.933	21743
843.069	21694
843.206	21770
843.343	21755
843.479	21736
843.616	21823
843.752	21610
843.889	21580
844.025	21603
844.162	21538
844.298	21606
844.435	21534
844.571	21428
844.708	21599
844.844	21766
844.98	21694
845.117	21637
845.253	21504
845.389	21405
845.525	21287
845.661	21340
845.798	21302
845.934	21268
846.07	21233
846.206	21222
846.342	21332
846.478	21199
846.614	21009
846.75	21089
846.886	20975
847.022	20956
847.158	21001
847.294	20990
847.429	21070
847.565	21028
847.701	21192
847.837	20773
847.972	20838
848.108	20830
848.244	20777
848.379	20583
848.515	20629
848.65	20587
848.786	20587
848.921	20602
849.057	20689
849.192	20693
849.328	20579
849.463	20625
849.598	20609
849.734	20552
849.869	20434
850.004	20305
850.14	20442
850.275	20507
850.41	20309
850.545	20343
850.68	20271
850.815	20404
850.95	20412
851.085	20556
851.22	20381
851.355	20347
851.49	20309
851.625	20393
851.76	20431
851.895	20298
852.03	20320
852.165	20320
852.299	20381
852.434	20412
852.569	20450
852.703	20309
852.838	20385
852.973	20457
853.107	20457
853.242	20393
853.376	20282
853.511	20043
853.645	20065
853.78	20305
853.914	20168
854.048	20233
854.183	20187
854.317	20282
854.451	20396
854.585	20301
854.72	20145
854.854	20328
854.988	20111
855.122	20237
855.256	20206
855.39	20126
855.524	20252
855.658	20229
855.792	20206
855.926	20214
856.06	20256
856.194	20324
856.327	20229
856.461	20161
856.595	20138
856.729	20233
856.862	20256
856.996	20332
857.13	20225
857.263	20286
857.397	20282
857.53	20218
857.664	20210
857.797	20351
857.931	20244
858.064	20218
858.197	20336
858.331	20263
858.464	20081
858.597	19947
858.731	20115
858.864	20088
858.997	20157
859.13	20305
859.263	20286
859.396	20317
859.529	20157
859.662	20119
859.795	20073
859.928	20214
860.061	20320
860.194	20225
860.327	20240
860.46	20199
860.592	20385
860.725	20396
860.858	20256
860.99	20214
861.123	20065
861.256	20122
861.388	20130
861.521	20716
861.653	20069
861.786	20092
861.918	19982
862.05	20039
862.183	20134
862.315	20172
862.447	20362
862.58	20058
862.712	19940
862.844	19871
862.976	19986
863.108	19963
863.24	20374
863.372	19860
863.504	19860
863.636	19978
863.768	19894
863.9	19959
864.032	19788
864.164	19871
864.296	19799
864.428	20115
864.559	20031
864.691	19982
864.823	19826
864.954	19871
865.086	19917
865.217	19849
865.349	19765
865.48	19799
865.612	19883
865.743	19989
865.875	19890
866.006	19879
866.137	19860
866.269	19849
866.4	19875
866.531	19772
866.662	19693
866.793	19772
866.924	19769
867.055	19799
867.186	19750
867.317	19738
867.448	19715
867.579	19689
867.71	19666
867.841	19655
867.972	19712
868.103	19791
868.233	19784
868.364	19833
868.495	19906
868.625	20020
868.756	20096
868.886	19967
869.017	20050
869.147	20096
869.278	20176
869.408	20008
869.539	20016
869.669	19959
869.799	20077
869.929	20161
870.06	20202
870.19	20488
870.32	20423
870.45	20336
870.58	20393
870.71	20575
870.84	20545
870.97	20473
871.1	20385
871.23	20701
871.36	20636
871.489	20507
871.619	20568
871.749	20617
871.879	20568
872.008	20823
872.138	20598
872.267	20663
872.397	20480
872.526	20495
872.656	20556
872.785	20484
872.915	20530
873.044	20629
873.173	20670
873.303	20636
873.432	20636
873.561	20762
873.69	20731
873.819	20640
873.948	20697
874.077	20663
874.206	20609
874.335	20674
874.464	20724
874.593	20853
874.722	20864
874.851	20876
874.979	20910
875.108	20918
875.237	20891
875.365	20807
875.494	20804
875.623	21020
875.751	20918
875.88	20941
876.008	21058
876.136	21108
876.265	21317
876.393	21500
876.521	21370
876.65	21538
876.778	21302
876.906	21233
877.034	21169
877.162	21359
877.29	21214
877.418	21264
877.546	21287
877.674	21230
877.802	21298
877.93	21180
878.058	21222
878.185	21127
878.313	21275
878.441	21207
878.568	21096
878.696	21241
878.824	21325
878.951	21325
879.079	21420
879.206	21564
879.333	21412
879.461	21325
879.588	21329
879.715	21340
879.842	21496
879.97	21211
880.097	20960
880.224	21020
880.351	21275
880.478	21070
880.605	21039
880.732	21077
880.859	21378
880.986	21127
881.112	21127
881.239	20910
881.366	20857
881.493	20788
881.619	20686
881.746	20640
881.872	20663
881.999	20579
882.125	20644
882.252	20716
882.378	20686
882.505	20792
882.631	20495
882.757	20454
882.883	20438
883.01	20442
883.136	20370
883.262	20275
883.388	20244
883.514	20393
883.64	20541
883.766	20313
883.892	20278
884.018	20301
884.143	20396
884.269	20488
884.395	20149
884.52	20073
884.646	20016
884.772	19967
884.897	20084
885.023	20035
885.148	20214
885.274	20206
885.399	20210
885.524	20115
885.65	20039
885.775	20077
885.9	20058
886.025	20062
886.15	20149
886.275	19894
886.4	20001
886.525	20031
886.65	19921
886.775	19909
886.9	20176
887.025	20206
887.149	19993
887.274	19845
887.399	19921
887.523	19761
887.648	19750
887.773	19746
887.897	19852
888.021	19814
888.146	19723
888.27	19898
888.395	20027
888.519	19906
888.643	19856
888.767	19894
888.891	19738
889.015	19586
889.139	19799
889.263	19662
889.387	19765
889.511	19951
889.635	19708
889.759	19582
889.883	19552
890.006	19586
890.13	19715
890.254	19544
890.377	19537
890.501	19289
890.624	19339
890.748	19495
890.871	19396
890.995	19148
891.118	19168
891.241	19285
891.364	19259
891.488	19251
891.611	19350
891.734	19312
891.857	19263
891.98	19228
892.103	19263
892.226	19247
892.349	19194
892.471	19057
892.594	19183
892.717	19107
892.839	19095
892.962	19160
893.085	19236
893.207	19145
893.33	19046
893.452	18977
893.575	19263
893.697	19091
893.819	19297
893.941	19392
894.064	19236
894.186	19103
894.308	19122
894.43	19206
894.552	19457
894.674	19168
894.796	19103
894.918	19209
895.04	19187
895.161	19247
895.283	19339
895.405	19118
895.526	19171
895.648	19190
895.769	19129
895.891	19206
896.012	19206
896.134	19141
896.255	19091
896.376	19206
896.498	19209
896.619	19107
896.74	19213
896.861	19255
896.982	19495
897.103	19480
897.224	19453
897.345	19411
897.466	19289
897.587	19502
897.708	19441
897.828	19346
897.949	19358
898.07	19289
898.19	19343
898.311	19422
898.431	19335
898.552	19502
898.672	19525
898.792	19472
898.913	19346
899.033	19285
899.153	19209
899.273	19141
899.393	19251
899.513	19213
899.633	19190
899.753	19190
899.873	19091
899.993	19198
900.113	19156
900.232	19247
900.352	19076
900.472	19023
900.591	18966
900.711	18924
900.83	18905
900.95	18916
901.069	19057
901.189	18821
901.308	18639
901.427	18506
901.546	18509
901.665	18544
901.784	18479
901.904	18426
902.023	18422
902.141	18034
902.26	18114
902.379	18098
902.498	18095
902.617	18045
902.735	18068
902.854	17988
902.973	17977
903.091	17748
903.21	17733
903.328	17771
903.446	17634
903.565	17710
903.683	17611
903.801	17474
903.919	17623
904.038	17532
904.156	17292
904.274	17501
904.392	17341
904.51	17288
904.627	17356
904.745	17395
904.863	17425
904.981	17094
905.098	16987
905.216	16919
905.334	17041
905.451	16972
905.569	17003
905.686	17010
905.803	16953
905.921	16904
906.038	16828
906.155	16854
906.272	16679
906.389	16733
906.506	16558
906.623	16508
906.74	16611
906.857	16428
906.974	16466
907.091	16580
907.208	16656
907.324	16561
907.441	16352
907.557	16257
907.674	16363
907.79	16223
907.907	16173
908.023	16246
908.139	16352
908.256	16253
908.372	16086
908.488	16162
908.604	16055
908.72	15907
908.836	16040
908.952	16032
909.068	16051
909.184	16074
909.3	16036
909.415	16055
909.531	16021
909.647	15713
909.762	15739
909.878	15713
909.993	15804
910.108	15705
910.224	15717
910.339	15709
910.454	15633
910.57	15500
910.685	15526
910.8	15812
910.915	15610
911.03	15572
911.145	15401
911.259	15462
911.374	15367
911.489	15264
911.604	15256
911.718	15135
911.833	15165
911.947	15039
912.062	14925
912.176	15131
912.291	15184
912.405	15005
912.519	15325
912.633	15340
912.748	15081
912.862	15089
912.976	14914
913.09	14872
913.204	14861
913.318	14819
913.431	15020
913.545	14944
913.659	15043
913.772	14929
913.886	14811
914	14708
914.113	14819
914.226	14804
914.34	14861
914.453	14590
914.566	14842
914.68	14587
914.793	14552
914.906	14431
915.019	14374
915.132	14351
915.245	14457
915.358	14362
915.47	14381
915.583	14381
915.696	14370
915.809	14465
915.921	14366
916.034	14218
916.146	14248
916.259	14332
916.371	14423
916.483	14309
916.595	14183
916.708	14267
916.82	14278
916.932	14191
917.044	14248
917.156	14065
917.268	14100
917.38	14058
917.491	13986
917.603	14115
917.715	14103
917.826	14123
917.938	13967
918.049	13944
918.161	13982
918.272	14054
918.384	14024
918.495	14008
918.606	13849
918.717	13830
918.828	13845
918.939	13830
919.05	13753
919.161	13746
919.272	13658
919.383	13651
919.494	13879
919.604	13925
919.715	13826
919.826	13734
919.936	13765
920.047	13894
920.157	13715
920.267	14016
920.378	13830
920.488	13753
920.598	13894
920.708	14092
920.818	13860
920.928	13890
921.038	14149
921.148	13913
921.258	13731
921.368	13674
921.477	13544
921.587	13563
921.697	13365
921.806	13506
921.916	13384
922.025	13202
922.134	13225
922.244	13179
922.353	13194
922.462	13061
922.571	13031
922.68	12932
922.789	12867
922.898	12829
923.007	12772
923.116	12859
923.224	12837
923.333	12882
923.442	12700
923.55	12688
923.659	12730
923.767	12760
923.876	12673
923.984	12711
924.092	12540
924.201	12662
924.309	12559
924.417	12502
924.525	12570
924.633	12521
924.741	13495
924.849	12342
924.956	12456
925.064	12319
925.172	12213
925.279	12247
925.387	12216
925.494	12342
925.602	12380
925.709	12311
925.816	12251
925.924	12266
926.031	12311
926.138	12304
926.245	12251
926.352	12159
926.459	12292
926.566	12254
926.673	12175
926.779	12034
926.886	12140
926.993	11916
927.099	11961
927.206	11916
927.312	11866
927.419	11897
927.525	11866
927.631	11984
927.737	11824
927.843	11726
927.95	11581
928.056	11680
928.162	11688
928.267	11843
928.373	12399
928.479	11878
928.585	11596
928.69	11672
928.796	11684
928.901	11657
929.007	11452
929.112	11680
929.218	11577
929.323	11592
929.428	11433
929.533	11627
929.638	11398
929.743	11406
929.848	11562
929.953	11391
930.058	11265
930.163	11113
930.267	11147
930.372	11261
930.477	11212
930.581	11387
930.685	11197
930.79	11025
930.894	11006
930.998	11029
931.103	11170
931.207	10869
931.311	10782
931.415	10653
931.519	10550
931.623	10413
