Data from test_V78500241_954.txt Node
Date: Fri Mar 25 15:16:30 CST 2022
User: usil
Spectrometer: V785-0024
Trigger mode: 0
Integration Time (sec): 4.000000E-1
Scans to average: 1
Nonlinearity correction enabled: false
Boxcar width: 0
Storing dark spectrum: false
XAxis mode: Wavelengths
Number of Pixels in Spectrum: 1024
>>>>>Begin Spectral Data<<<<<
801.071	27922
801.214	27766
801.356	27804
801.499	27561
801.641	27447
801.783	27427
801.926	27393
802.068	27427
802.211	27466
802.353	27374
802.496	27093
802.638	27096
802.78	27001
802.923	27074
803.065	26960
803.208	26940
803.35	26914
803.492	27214
803.635	27306
803.777	27150
803.919	27435
804.061	27606
804.204	27424
804.346	27199
804.488	27150
804.63	27214
804.773	27348
804.915	27370
805.057	27488
805.199	27142
805.341	27359
805.483	27412
805.626	27424
805.768	27161
805.91	27306
806.052	27332
806.194	27310
806.336	27519
806.478	27542
806.62	27473
806.762	27564
806.904	27549
807.046	27838
807.188	27808
807.33	27690
807.472	27884
807.614	27823
807.756	27720
807.898	27637
808.04	27587
808.182	27663
808.324	27709
808.465	27686
808.607	28029
808.749	27949
808.891	28032
809.033	28173
809.174	28017
809.316	28013
809.458	28055
809.6	28010
809.741	28101
809.883	28158
810.025	28329
810.166	28299
810.308	28360
810.45	28337
810.591	28139
810.733	28226
810.875	28055
811.016	27979
811.158	27755
811.299	28036
811.441	28143
811.582	28196
811.724	28086
811.865	27991
812.007	27998
812.148	27941
812.29	28070
812.431	28238
812.573	28375
812.714	28440
812.855	28394
812.997	28588
813.138	28828
813.279	28752
813.421	28474
813.562	28622
813.703	28398
813.845	28367
813.986	28055
814.127	27774
814.268	27743
814.41	27827
814.551	27743
814.692	27842
814.833	27816
814.974	27705
815.115	27732
815.256	27793
815.397	27682
815.539	27755
815.68	27557
815.821	27447
815.962	27500
816.103	27504
816.244	27500
816.385	27214
816.526	27340
816.666	27176
816.807	27142
816.948	27093
817.089	27066
817.23	27074
817.371	27062
817.512	27116
817.653	26956
817.793	26940
817.934	27100
818.075	26918
818.216	26975
818.356	27005
818.497	26967
818.638	26842
818.778	26857
818.919	26792
819.06	26834
819.2	26971
819.341	27001
819.481	26982
819.622	27203
819.762	27401
819.903	27336
820.043	27226
820.184	27085
820.324	27127
820.465	27195
820.605	27180
820.746	27116
820.886	26910
821.026	27150
821.167	27020
821.307	27222
821.447	27036
821.588	27047
821.728	26739
821.868	26663
822.008	26533
822.149	26587
822.289	26488
822.429	26347
822.569	26183
822.709	26187
822.849	26005
822.99	25906
823.13	26005
823.27	26008
823.41	25864
823.55	25632
823.69	25788
823.83	25890
823.97	25727
824.11	25666
824.25	25533
824.389	25601
824.529	25753
824.669	25632
824.809	25883
824.949	25890
825.089	25708
825.228	25742
825.368	25499
825.508	25502
825.648	25495
825.787	25548
825.927	25457
826.067	25491
826.206	25578
826.346	25594
826.485	25483
826.625	25609
826.765	25734
826.904	25582
827.044	25377
827.183	25285
827.323	25225
827.462	25327
827.601	25255
827.741	25369
827.88	25232
828.02	25206
828.159	25183
828.298	25327
828.437	25232
828.577	25285
828.716	25457
828.855	25145
828.994	25031
829.134	24981
829.273	25148
829.412	25004
829.551	24890
829.69	25050
829.829	25023
829.968	25171
830.107	25015
830.246	25004
830.385	24852
830.524	24909
830.663	24711
830.802	24802
830.941	24654
831.08	24623
831.219	24681
831.357	24620
831.496	24810
831.635	24620
831.774	24578
831.913	24532
832.051	24342
832.19	24323
832.329	24505
832.467	24456
832.606	24300
832.744	24369
832.883	24388
833.022	24235
833.16	24311
833.299	24273
833.437	24285
833.576	24395
833.714	24422
833.852	24350
833.991	24350
834.129	24433
834.267	24410
834.406	24357
834.544	24338
834.682	24361
834.821	24266
834.959	24551
835.097	24292
835.235	24384
835.373	24289
835.511	24505
835.65	24232
835.788	24201
835.926	24007
836.064	24091
836.202	24148
836.34	24133
836.478	24258
836.615	24060
836.753	24152
836.891	24361
837.029	24270
837.167	24277
837.305	24091
837.443	24034
837.58	23996
837.718	24144
837.856	24057
837.993	23927
838.131	23939
838.269	23843
838.406	23954
838.544	23828
838.681	23657
838.819	23676
838.956	23387
839.094	23471
839.231	23528
839.369	23748
839.506	23897
839.643	23699
839.781	23570
839.918	23501
840.055	23501
840.193	23497
840.33	23433
840.467	23387
840.604	23478
840.742	23771
840.879	23326
841.016	23250
841.153	23231
841.29	23570
841.427	23372
841.564	23356
841.701	23429
841.838	23433
841.975	23231
842.112	23353
842.249	23227
842.385	23155
842.522	23429
842.659	23254
842.796	23147
842.933	23269
843.069	23170
843.206	23166
843.343	23261
843.479	23193
843.616	22976
843.752	22854
843.889	23022
844.025	23086
844.162	22862
844.298	22991
844.435	22934
844.571	22965
844.708	22965
844.844	23006
844.98	23128
845.117	23044
845.253	22908
845.389	22820
845.525	22812
845.661	22812
845.798	22580
845.934	22755
846.07	22736
846.206	22634
846.342	22744
846.478	22763
846.614	22474
846.75	22230
846.886	22443
847.022	22546
847.158	22398
847.294	22443
847.429	22360
847.565	22363
847.701	22573
847.837	22154
847.972	22109
848.108	22268
848.244	22188
848.379	22082
848.515	22162
848.65	22010
848.786	21975
848.921	22044
849.057	22177
849.192	22105
849.328	22074
849.463	22082
849.598	21903
849.734	21876
849.869	21884
850.004	21880
850.14	21876
850.275	21720
850.41	21667
850.545	21648
850.68	21739
850.815	21781
850.95	21762
851.085	21968
851.22	21755
851.355	21694
851.49	21679
851.625	21709
851.76	21747
851.895	21701
852.03	21603
852.165	21759
852.299	21774
852.434	21892
852.569	21781
852.703	21831
852.838	21785
852.973	21808
853.107	21850
853.242	21838
853.376	21675
853.511	21481
853.645	21477
853.78	21667
853.914	21523
854.048	21443
854.183	21534
854.317	21679
854.451	21861
854.585	21561
854.72	21618
854.854	21743
854.988	21435
855.122	21618
855.256	21542
855.39	21698
855.524	21557
855.658	21622
855.792	21633
855.926	21599
856.06	21610
856.194	21709
856.327	21542
856.461	21534
856.595	21500
856.729	21488
856.862	21599
856.996	21625
857.13	21652
857.263	21732
857.397	21610
857.53	21580
857.664	21671
857.797	21603
857.931	21713
858.064	21656
858.197	21717
858.331	21637
858.464	21424
858.597	21424
858.731	21549
858.864	21511
858.997	21530
859.13	21534
859.263	21580
859.396	21599
859.529	21568
859.662	21545
859.795	21511
859.928	21690
860.061	21698
860.194	21778
860.327	21682
860.46	21789
860.592	21724
860.725	21819
860.858	21701
860.99	21663
861.123	21610
861.256	21439
861.388	21644
861.521	22310
861.653	21526
861.786	21332
861.918	21469
862.05	21507
862.183	21610
862.315	21492
862.447	21511
862.58	21496
862.712	21306
862.844	21306
862.976	21420
863.108	21302
863.24	21880
863.372	21291
863.504	21389
863.636	21310
863.768	21378
863.9	21355
864.032	21237
864.164	21199
864.296	21237
864.428	21587
864.559	21374
864.691	21401
864.823	21340
864.954	21256
865.086	21176
865.217	21226
865.349	21119
865.48	21157
865.612	21142
865.743	21245
865.875	21180
866.006	21081
866.137	21169
866.269	21203
866.4	21169
866.531	21237
866.662	21009
866.793	21127
866.924	21104
867.055	21157
867.186	21096
867.317	21104
867.448	21043
867.579	21203
867.71	21032
867.841	21066
867.972	21062
868.103	21150
868.233	21154
868.364	21138
868.495	21336
868.625	21424
868.756	21443
868.886	21294
869.017	21344
869.147	21443
869.278	21431
869.408	21454
869.539	21416
869.669	21386
869.799	21447
869.929	21599
870.06	21485
870.19	21698
870.32	21663
870.45	21686
870.58	21739
870.71	21850
870.84	21835
870.97	21713
871.1	21667
871.23	21907
871.36	21895
871.489	21816
871.619	22013
871.749	21915
871.879	21979
872.008	22067
872.138	21922
872.267	21876
872.397	21816
872.526	21823
872.656	21789
872.785	21747
872.915	22040
873.044	22010
873.173	21979
873.303	21899
873.432	22044
873.561	22150
873.69	21968
873.819	21987
873.948	21922
874.077	21876
874.206	21941
874.335	21960
874.464	22055
874.593	22276
874.722	22036
874.851	22257
874.979	22276
875.108	22318
875.237	22196
875.365	22017
875.494	22082
875.623	22173
875.751	22192
875.88	22238
876.008	22265
876.136	22276
876.265	22641
876.393	22694
876.521	22702
876.65	22717
876.778	22626
876.906	22569
877.034	22485
877.162	22523
877.29	22497
877.418	22466
877.546	22561
877.674	22440
877.802	22535
877.93	22474
878.058	22455
878.185	22398
878.313	22470
878.441	22436
878.568	22424
878.696	22478
878.824	22462
878.951	22656
879.079	22793
879.206	22850
879.333	22660
879.461	22527
879.588	22679
879.715	22763
879.842	22790
879.97	22588
880.097	22314
880.224	22379
880.351	22371
880.478	22234
880.605	22287
880.732	22402
880.859	22565
880.986	22485
881.112	22424
881.239	22200
881.366	22059
881.493	22105
881.619	21869
881.746	22097
881.872	21892
881.999	21869
882.125	21850
882.252	21930
882.378	21888
882.505	21892
882.631	21804
882.757	21618
882.883	21728
883.01	21606
883.136	21606
883.262	21485
883.388	21538
883.514	21580
883.64	21644
883.766	21564
883.892	21447
884.018	21466
884.143	21644
884.269	21656
884.395	21310
884.52	21180
884.646	21294
884.772	21310
884.897	21173
885.023	21207
885.148	21325
885.274	21408
885.399	21275
885.524	21237
885.65	21237
885.775	21245
885.9	21173
886.025	21412
886.15	21370
886.275	21127
886.4	21203
886.525	21264
886.65	21123
886.775	21119
886.9	21412
887.025	21488
887.149	21165
887.274	21058
887.399	21089
887.523	21017
887.648	21017
887.773	20948
887.897	21157
888.021	21070
888.146	21009
888.27	21089
888.395	21116
888.519	21001
888.643	21180
888.767	21077
888.891	20937
889.015	20838
889.139	20975
889.263	20731
889.387	21001
889.511	20910
889.635	20899
889.759	20777
889.883	20693
890.006	20849
890.13	20887
890.254	20785
890.377	20629
890.501	20693
890.624	20632
890.748	20629
890.871	20507
890.995	20366
891.118	20294
891.241	20488
891.364	20385
891.488	20488
891.611	20374
891.734	20434
891.857	20549
891.98	20358
892.103	20427
892.226	20511
892.349	20332
892.471	20221
892.594	20263
892.717	20267
892.839	20259
892.962	20294
893.085	20317
893.207	20343
893.33	20259
893.452	20180
893.575	20263
893.697	20233
893.819	20469
893.941	20488
894.064	20385
894.186	20210
894.308	20180
894.43	20256
894.552	20507
894.674	20267
894.796	20218
894.918	20305
895.04	20301
895.161	20408
895.283	20324
895.405	20237
895.526	20309
895.648	20240
895.769	20282
895.891	20248
896.012	20366
896.134	20324
896.255	20320
896.376	20256
896.498	20317
896.619	20328
896.74	20309
896.861	20358
896.982	20602
897.103	20849
897.224	20530
897.345	20571
897.466	20434
897.587	20370
897.708	20606
897.828	20499
897.949	20313
898.07	20237
898.19	20396
898.311	20606
898.431	20442
898.552	20503
898.672	20545
898.792	20564
898.913	20442
899.033	20400
899.153	20294
899.273	20218
899.393	20092
899.513	20282
899.633	20286
899.753	20240
899.873	20221
899.993	20290
900.113	20130
900.232	20119
900.352	20130
900.472	20081
900.591	19967
900.711	19993
900.83	20035
900.95	20199
901.069	20005
901.189	19887
901.308	19677
901.427	19666
901.546	19487
901.665	19483
901.784	19681
901.904	19472
902.023	19339
902.141	19164
902.26	19198
902.379	19145
902.498	19179
902.617	19076
902.735	19091
902.854	19057
902.973	19053
903.091	18806
903.21	18738
903.328	18829
903.446	18681
903.565	18563
903.683	18563
903.801	18467
903.919	18620
904.038	18437
904.156	18327
904.274	18426
904.392	18289
904.51	18308
904.627	18273
904.745	18300
904.863	18327
904.981	18110
905.098	18072
905.216	17946
905.334	17935
905.451	18030
905.569	18102
905.686	18041
905.803	18057
905.921	17889
906.038	17878
906.155	17866
906.272	17790
906.389	17726
906.506	17665
906.623	17585
906.74	17524
906.857	17429
906.974	17474
907.091	17570
907.208	17646
907.324	17676
907.441	17417
907.557	17368
907.674	17353
907.79	17204
907.907	17223
908.023	17250
908.139	17284
908.256	17261
908.372	17162
908.488	17102
908.604	16953
908.72	16972
908.836	16972
908.952	16850
909.068	16965
909.184	17121
909.3	17037
909.415	17048
909.531	17045
909.647	16668
909.762	16660
909.878	16683
909.993	16710
910.108	16535
910.224	16618
910.339	16672
910.454	16512
910.57	16333
910.685	16466
910.8	16675
910.915	16710
911.03	16432
911.145	16394
911.259	16295
911.374	16371
911.489	16306
911.604	16188
911.718	15983
911.833	16051
911.947	15854
912.062	15865
912.176	16040
912.291	15998
912.405	15972
912.519	16192
912.633	16226
912.748	16097
912.862	15956
912.976	15915
913.09	15720
913.204	15831
913.318	15808
913.431	15884
913.545	15812
913.659	15934
913.772	15778
913.886	15663
914	15667
914.113	15698
914.226	15755
914.34	15622
914.453	15568
914.566	15633
914.68	15622
914.793	15454
914.906	15287
915.019	15184
915.132	15157
915.245	15222
915.358	15264
915.47	15279
915.583	15275
915.696	15279
915.809	15298
915.921	15424
916.034	15188
916.146	15173
916.259	15203
916.371	15279
916.483	15180
916.595	15161
916.708	15104
916.82	15081
916.932	15036
917.044	14971
917.156	14952
917.268	15039
917.38	14967
917.491	14895
917.603	14880
917.715	15028
917.826	14952
917.938	14743
918.049	14758
918.161	14830
918.272	14937
918.384	14902
918.495	14842
918.606	14644
918.717	14644
918.828	14689
918.939	14629
919.05	14495
919.161	14632
919.272	14499
919.383	14503
919.494	14697
919.604	14906
919.715	14689
919.826	14549
919.936	14625
920.047	14610
920.157	14625
920.267	14746
920.378	14594
920.488	14560
920.598	14769
920.708	14929
920.818	14800
920.928	14686
921.038	14937
921.148	14815
921.258	14533
921.368	14480
921.477	14385
921.587	14400
921.697	14168
921.806	14301
921.916	14111
922.025	14054
922.134	14001
922.244	14054
922.353	14016
922.462	13871
922.571	13795
922.68	13647
922.789	13616
922.898	13594
923.007	13510
923.116	13677
923.224	13548
923.333	13586
923.442	13453
923.55	13403
923.659	13521
923.767	13552
923.876	13510
923.984	13438
924.092	13327
924.201	13430
924.309	13396
924.417	13312
924.525	13278
924.633	13274
924.741	14202
924.849	13080
924.956	13156
925.064	13004
925.172	12962
925.279	13012
925.387	13069
925.494	12935
925.602	13221
925.709	13000
925.816	12928
925.924	12993
926.031	13072
926.138	12996
926.245	13031
926.352	12867
926.459	12878
926.566	12970
926.673	12951
926.779	12825
926.886	12776
926.993	12646
927.099	12525
927.206	12509
927.312	12551
927.419	12570
927.525	12570
927.631	12722
927.737	12452
927.843	12467
927.95	12319
928.056	12460
928.162	12452
928.267	12483
928.373	13015
928.479	12445
928.585	12224
928.69	12418
928.796	12380
928.901	12266
929.007	12197
929.112	12247
929.218	12186
929.323	12121
929.428	12163
929.533	12296
929.638	12072
929.743	12083
929.848	12053
929.953	12060
930.058	12015
930.163	11843
930.267	11828
930.372	12045
930.477	11809
930.581	12019
930.685	11847
930.79	11627
930.894	11710
930.998	11714
931.103	11726
931.207	11387
931.311	11398
931.415	11337
931.519	11121
931.623	11109
