Data from test_V78500241_3179.txt Node
Date: Fri Mar 25 15:31:59 CST 2022
User: usil
Spectrometer: V785-0024
Trigger mode: 0
Integration Time (sec): 4.000000E-1
Scans to average: 1
Nonlinearity correction enabled: false
Boxcar width: 0
Storing dark spectrum: false
XAxis mode: Wavelengths
Number of Pixels in Spectrum: 1024
>>>>>Begin Spectral Data<<<<<
801.071	27028
801.214	27058
801.356	26963
801.499	26651
801.641	26682
801.783	26644
801.926	26769
802.068	26648
802.211	26594
802.353	26537
802.496	26431
802.638	26389
802.78	26358
802.923	26161
803.065	26149
803.208	26225
803.35	26263
803.492	26400
803.635	26431
803.777	26328
803.919	26480
804.061	26743
804.204	26473
804.346	26377
804.488	26427
804.63	26484
804.773	26275
804.915	26366
805.057	26492
805.199	26400
805.341	26469
805.483	26568
805.626	26484
805.768	26511
805.91	26568
806.052	26552
806.194	26450
806.336	26609
806.478	26674
806.62	26602
806.762	26792
806.904	26731
807.046	27093
807.188	27104
807.33	27051
807.472	26910
807.614	26979
807.756	26804
807.898	26705
808.04	26682
808.182	26838
808.324	26842
808.465	26785
808.607	27013
808.749	26998
808.891	27279
809.033	27218
809.174	27199
809.316	27135
809.458	27066
809.6	27085
809.741	27233
809.883	27252
810.025	27340
810.166	27416
810.308	27420
810.45	27325
810.591	27325
810.733	27249
810.875	27077
811.016	26986
811.158	27028
811.299	27336
811.441	27222
811.582	27298
811.724	27119
811.865	26986
812.007	27009
812.148	26925
812.29	27074
812.431	27165
812.573	27378
812.714	27370
812.855	27610
812.997	27675
813.138	27922
813.279	27656
813.421	27698
813.562	27572
813.703	27439
813.845	27245
813.986	26796
814.127	26902
814.268	26708
814.41	26815
814.551	26720
814.692	26773
814.833	26804
814.974	26648
815.115	26819
815.256	26556
815.397	26587
815.539	26629
815.68	26495
815.821	26423
815.962	26549
816.103	26442
816.244	26332
816.385	26347
816.526	26431
816.666	26092
816.807	25993
816.948	26065
817.089	26100
817.23	26012
817.371	25959
817.512	25986
817.653	25986
817.793	25986
817.934	26122
818.075	26126
818.216	25932
818.356	25875
818.497	25875
818.638	25738
818.778	25845
818.919	25685
819.06	25772
819.2	25913
819.341	26081
819.481	25837
819.622	26115
819.762	26214
819.903	26332
820.043	26100
820.184	26062
820.324	26043
820.465	26122
820.605	26107
820.746	26107
820.886	26001
821.026	26088
821.167	26050
821.307	26157
821.447	25963
821.588	25906
821.728	25864
821.868	25696
822.008	25613
822.149	25613
822.289	25445
822.429	25266
822.569	25221
822.709	25148
822.849	24951
822.99	25103
823.13	25027
823.27	25027
823.41	24776
823.55	24715
823.69	24951
823.83	24825
823.97	24829
824.11	24665
824.25	24544
824.389	24601
824.529	24692
824.669	24715
824.809	24631
824.949	24810
825.089	24654
825.228	24635
825.368	24505
825.508	24433
825.648	24395
825.787	24536
825.927	24505
826.067	24262
826.206	24479
826.346	24532
826.485	24475
826.625	24623
826.765	24540
826.904	24502
827.044	24155
827.183	24353
827.323	24068
827.462	24289
827.601	24159
827.741	24186
827.88	24205
828.02	24182
828.159	24220
828.298	24178
828.437	24262
828.577	24201
828.716	24232
828.855	24087
828.994	23897
829.134	23866
829.273	24045
829.412	23855
829.551	23916
829.69	23863
829.829	23908
829.968	24030
830.107	24003
830.246	24045
830.385	23802
830.524	23824
830.663	23748
830.802	23710
830.941	23558
831.08	23353
831.219	23592
831.357	23657
831.496	23779
831.635	23543
831.774	23463
831.913	23383
832.051	23391
832.19	23239
832.329	23356
832.467	23292
832.606	23136
832.744	23151
832.883	23303
833.022	23098
833.16	23166
833.299	23318
833.437	23162
833.576	23303
833.714	23189
833.852	23330
833.991	23334
834.129	23368
834.267	23330
834.406	23284
834.544	23368
834.682	23280
834.821	23258
834.959	23509
835.097	23261
835.235	23193
835.373	23265
835.511	23265
835.65	23265
835.788	23136
835.926	23048
836.064	22866
836.202	23010
836.34	23136
836.478	23170
836.615	23041
836.753	23048
836.891	23185
837.029	23124
837.167	23185
837.305	22923
837.443	22927
837.58	22976
837.718	23022
837.856	23014
837.993	23010
838.131	22961
838.269	22736
838.406	22790
838.544	22889
838.681	22668
838.819	22599
838.956	22409
839.094	22478
839.231	22504
839.369	22485
839.506	22877
839.643	22679
839.781	22421
839.918	22314
840.055	22348
840.193	22367
840.33	22360
840.467	22398
840.604	22542
840.742	22675
840.879	22249
841.016	22402
841.153	22226
841.29	22348
841.427	22249
841.564	22447
841.701	22299
841.838	22230
841.975	22147
842.112	22306
842.249	22143
842.385	22143
842.522	22413
842.659	22219
842.796	22101
842.933	22128
843.069	22154
843.206	22078
843.343	22105
843.479	22223
843.616	22010
843.752	21937
843.889	21899
844.025	22067
844.162	21816
844.298	21987
844.435	21915
844.571	21816
844.708	21888
844.844	22131
844.98	22093
845.117	22021
845.253	21865
845.389	21747
845.525	21778
845.661	21743
845.798	21614
845.934	21622
846.07	21530
846.206	21599
846.342	21823
846.478	21644
846.614	21557
846.75	21329
846.886	21393
847.022	21549
847.158	21408
847.294	21420
847.429	21431
847.565	21428
847.701	21705
847.837	21108
847.972	21127
848.108	21154
848.244	21252
848.379	21157
848.515	21055
848.65	20933
848.786	21009
848.921	20963
849.057	21013
849.192	21070
849.328	21043
849.463	21013
849.598	20967
849.734	20906
849.869	20777
850.004	20804
850.14	20804
850.275	20765
850.41	20590
850.545	20629
850.68	20693
850.815	20788
850.95	20792
851.085	20853
851.22	20769
851.355	20769
851.49	20617
851.625	20629
851.76	20716
851.895	20678
852.03	20705
852.165	20724
852.299	20697
852.434	20792
852.569	20826
852.703	20701
852.838	20823
852.973	20872
853.107	20823
853.242	20743
853.376	20708
853.511	20438
853.645	20473
853.78	20701
853.914	20571
854.048	20484
854.183	20522
854.317	20590
854.451	20902
854.585	20526
854.72	20537
854.854	20632
854.988	20594
855.122	20613
855.256	20419
855.39	20492
855.524	20682
855.658	20552
855.792	20575
855.926	20697
856.06	20541
856.194	20708
856.327	20522
856.461	20511
856.595	20469
856.729	20469
856.862	20697
856.996	20613
857.13	20663
857.263	20651
857.397	20621
857.53	20602
857.664	20518
857.797	20705
857.931	20625
858.064	20651
858.197	20720
858.331	20594
858.464	20522
858.597	20423
858.731	20617
858.864	20571
858.997	20545
859.13	20541
859.263	20609
859.396	20697
859.529	20579
859.662	20480
859.795	20400
859.928	20514
860.061	20651
860.194	20758
860.327	20552
860.46	20549
860.592	20724
860.725	20697
860.858	20674
860.99	20629
861.123	20431
861.256	20530
861.388	20587
861.521	21192
861.653	20484
861.786	20298
861.918	20320
862.05	20473
862.183	20503
862.315	20465
862.447	20655
862.58	20423
862.712	20199
862.844	20210
862.976	20560
863.108	20423
863.24	20746
863.372	20252
863.504	20305
863.636	20339
863.768	20385
863.9	20377
864.032	20298
864.164	20358
864.296	20355
864.428	20377
864.559	20317
864.691	20450
864.823	20362
864.954	20195
865.086	20343
865.217	20256
865.349	20214
865.48	20183
865.612	20073
865.743	20259
865.875	20183
866.006	20233
866.137	20134
866.269	20115
866.4	20195
866.531	20126
866.662	20073
866.793	20180
866.924	20115
867.055	20103
867.186	20214
867.317	20180
867.448	19959
867.579	20092
867.71	19959
867.841	19883
867.972	20142
868.103	20062
868.233	20115
868.364	20252
868.495	20233
868.625	20362
868.756	20484
868.886	20286
869.017	20385
869.147	20469
869.278	20556
869.408	20362
869.539	20332
869.669	20423
869.799	20355
869.929	20396
870.06	20396
870.19	20583
870.32	20636
870.45	20743
870.58	20708
870.71	20887
870.84	20849
870.97	20792
871.1	20777
871.23	20891
871.36	20986
871.489	20906
871.619	20952
871.749	20990
871.879	20967
872.008	20975
872.138	20982
872.267	20914
872.397	20918
872.526	20811
872.656	20811
872.785	20826
872.915	21055
873.044	21074
873.173	21039
873.303	21028
873.432	21047
873.561	21055
873.69	21024
873.819	21036
873.948	21116
874.077	21085
874.206	20967
874.335	20941
874.464	21039
874.593	21249
874.722	21180
874.851	21359
874.979	21294
875.108	21412
875.237	21184
875.365	21108
875.494	21192
875.623	21325
875.751	21199
875.88	21313
876.008	21412
876.136	21504
876.265	21717
876.393	21610
876.521	21652
876.65	21724
876.778	21603
876.906	21675
877.034	21564
877.162	21641
877.29	21488
877.418	21679
877.546	21523
877.674	21591
877.802	21553
877.93	21637
878.058	21637
878.185	21477
878.313	21511
878.441	21595
878.568	21435
878.696	21458
878.824	21637
878.951	21652
879.079	21759
879.206	21827
879.333	21846
879.461	21561
879.588	21622
879.715	21778
879.842	21793
879.97	21694
880.097	21401
880.224	21450
880.351	21447
880.478	21424
880.605	21378
880.732	21549
880.859	21675
880.986	21511
881.112	21458
881.239	21230
881.366	21230
881.493	21043
881.619	21020
881.746	20914
881.872	21058
881.999	20918
882.125	20921
882.252	21017
882.378	20773
882.505	21108
882.631	20781
882.757	20777
882.883	20823
883.01	20689
883.136	20667
883.262	20552
883.388	20526
883.514	20693
883.64	20746
883.766	20518
883.892	20511
884.018	20507
884.143	20621
884.269	20796
884.395	20347
884.52	20347
884.646	20339
884.772	20168
884.897	20282
885.023	20400
885.148	20434
885.274	20438
885.399	20507
885.524	20370
885.65	20336
885.775	20514
885.9	20347
886.025	20492
886.15	20381
886.275	20278
886.4	20294
886.525	20358
886.65	20317
886.775	20210
886.9	20469
887.025	20537
887.149	20358
887.274	20130
887.399	20103
887.523	20157
887.648	19982
887.773	20043
887.897	20221
888.021	20221
888.146	20088
888.27	20267
888.395	20199
888.519	20183
888.643	20081
888.767	20229
888.891	20096
889.015	20039
889.139	19978
889.263	20035
889.387	20126
889.511	20126
889.635	20065
889.759	19967
889.883	19974
890.006	20001
890.13	20046
890.254	19791
890.377	19769
890.501	19712
890.624	19689
890.748	19761
890.871	19586
890.995	19392
891.118	19426
891.241	19540
891.364	19559
891.488	19704
891.611	19502
891.734	19544
891.857	19613
891.98	19533
892.103	19567
892.226	19632
892.349	19449
892.471	19434
892.594	19472
892.717	19434
892.839	19457
892.962	19502
893.085	19445
893.207	19476
893.33	19384
893.452	19422
893.575	19514
893.697	19365
893.819	19571
893.941	19582
894.064	19460
894.186	19510
894.308	19373
894.43	19384
894.552	19635
894.674	19506
894.796	19392
894.918	19510
895.04	19480
895.161	19548
895.283	19457
895.405	19312
895.526	19400
895.648	19491
895.769	19434
895.891	19514
896.012	19434
896.134	19616
896.255	19422
896.376	19396
896.498	19537
896.619	19407
896.74	19426
896.861	19430
896.982	19879
897.103	19837
897.224	19723
897.345	19795
897.466	19597
897.587	19616
897.708	19852
897.828	19670
897.949	19544
898.07	19487
898.19	19620
898.311	19788
898.431	19586
898.552	19719
898.672	19677
898.792	19799
898.913	19738
899.033	19662
899.153	19537
899.273	19441
899.393	19495
899.513	19556
899.633	19422
899.753	19449
899.873	19487
899.993	19430
900.113	19403
900.232	19453
900.352	19354
900.472	19266
900.591	19217
900.711	19308
900.83	19225
900.95	19320
901.069	19316
901.189	19168
901.308	18856
901.427	18719
901.546	18825
901.665	18871
901.784	18897
901.904	18593
902.023	18608
902.141	18372
902.26	18342
902.379	18403
902.498	18342
902.617	18262
902.735	18426
902.854	18300
902.973	18243
903.091	17996
903.21	17988
903.328	18026
903.446	17950
903.565	17764
903.683	17920
903.801	17737
903.919	17809
904.038	17779
904.156	17520
904.274	17615
904.392	17668
904.51	17566
904.627	17570
904.745	17680
904.863	17642
904.981	17429
905.098	17246
905.216	17353
905.334	17307
905.451	17318
905.569	17200
905.686	17273
905.803	17391
905.921	17052
906.038	17193
906.155	17208
906.272	16991
906.389	16965
906.506	16850
906.623	16869
906.74	16778
906.857	16679
906.974	16755
907.091	16961
907.208	16976
907.324	16850
907.441	16755
907.557	16592
907.674	16512
907.79	16512
907.907	16519
908.023	16569
908.139	16527
908.256	16569
908.372	16462
908.488	16402
908.604	16291
908.72	16360
908.836	16291
908.952	16344
909.068	16314
909.184	16405
909.3	16299
909.415	16348
909.531	16318
909.647	16090
909.762	15979
909.878	16002
909.993	15926
910.108	15979
910.224	15850
910.339	15895
910.454	15751
910.57	15854
910.685	15743
910.8	15994
910.915	15922
911.03	15762
911.145	15618
911.259	15511
911.374	15564
911.489	15549
911.604	15523
911.718	15382
911.833	15340
911.947	15291
912.062	15131
912.176	15321
912.291	15279
912.405	15275
912.519	15568
912.633	15545
912.748	15389
912.862	15302
912.976	15161
913.09	14982
913.204	15097
913.318	15142
913.431	15291
913.545	15348
913.659	15306
913.772	15017
913.886	14948
914	15051
914.113	15020
914.226	15100
914.34	15055
914.453	14796
914.566	15005
914.68	14861
914.793	14788
914.906	14625
915.019	14617
915.132	14480
915.245	14587
915.358	14621
915.47	14610
915.583	14587
915.696	14537
915.809	14678
915.921	14663
916.034	14575
916.146	14469
916.259	14480
916.371	14583
916.483	14499
916.595	14400
916.708	14419
916.82	14438
916.932	14412
917.044	14237
917.156	14415
917.268	14237
917.38	14336
917.491	14294
917.603	14187
917.715	14393
917.826	14351
917.938	14248
918.049	14069
918.161	14252
918.272	14259
918.384	14328
918.495	14176
918.606	14054
918.717	13989
918.828	13974
918.939	14096
919.05	13963
919.161	14043
919.272	13833
919.383	13772
919.494	14084
919.604	14237
919.715	14039
919.826	13902
919.936	13951
920.047	14039
920.157	13913
920.267	14142
920.378	14046
920.488	14027
920.598	14172
920.708	14267
920.818	14161
920.928	14115
921.038	14282
921.148	14252
921.258	13890
921.368	13940
921.477	13769
921.587	13772
921.697	13594
921.806	13757
921.916	13651
922.025	13518
922.134	13381
922.244	13343
922.353	13499
922.462	13244
922.571	13179
922.68	13072
922.789	12958
922.898	12928
923.007	13042
923.116	13091
923.224	13000
923.333	13023
923.442	12897
923.55	12875
923.659	12916
923.767	12939
923.876	12882
923.984	12913
924.092	12817
924.201	12848
924.309	12772
924.417	12734
924.525	12673
924.633	12703
924.741	13632
924.849	12544
924.956	12684
925.064	12540
925.172	12540
925.279	12521
925.387	12528
925.494	12456
925.602	12601
925.709	12494
925.816	12395
925.924	12452
926.031	12513
926.138	12426
926.245	12506
926.352	12327
926.459	12498
926.566	12555
926.673	12441
926.779	12289
926.886	12323
926.993	12155
927.099	12064
927.206	12011
927.312	12022
927.419	12216
927.525	12030
927.631	12136
927.737	11939
927.843	11954
927.95	11859
928.056	11973
928.162	11904
928.267	11977
928.373	12612
928.479	11950
928.585	11824
928.69	11809
928.796	11836
928.901	11760
929.007	11710
929.112	11748
929.218	11676
929.323	11596
929.428	11551
929.533	11707
929.638	11638
929.743	11627
929.848	11710
929.953	11604
930.058	11505
930.163	11349
930.267	11398
930.372	11551
930.477	11201
930.581	11467
930.685	11379
930.79	11220
930.894	11261
930.998	11143
931.103	11372
931.207	11014
931.311	10919
931.415	10869
931.519	10653
931.623	10577
