Data from test_V78500241_2879.txt Node
Date: Fri Mar 25 15:29:54 CST 2022
User: usil
Spectrometer: V785-0024
Trigger mode: 0
Integration Time (sec): 4.000000E-1
Scans to average: 1
Nonlinearity correction enabled: false
Boxcar width: 0
Storing dark spectrum: false
XAxis mode: Wavelengths
Number of Pixels in Spectrum: 1024
>>>>>Begin Spectral Data<<<<<
801.071	27211
801.214	27150
801.356	26940
801.499	26830
801.641	26914
801.783	26762
801.926	26937
802.068	26750
802.211	26716
802.353	26773
802.496	26590
802.638	26514
802.78	26469
802.923	26457
803.065	26263
803.208	26431
803.35	26511
803.492	26602
803.635	26724
803.777	26457
803.919	26609
804.061	26811
804.204	26788
804.346	26579
804.488	26686
804.63	26735
804.773	26636
804.915	26655
805.057	26750
805.199	26663
805.341	26697
805.483	26773
805.626	26834
805.768	26659
805.91	26796
806.052	26659
806.194	26648
806.336	26914
806.478	26773
806.62	26724
806.762	26910
806.904	26967
807.046	27287
807.188	27279
807.33	27218
807.472	27283
807.614	27131
807.756	27135
807.898	26952
808.04	26990
808.182	26998
808.324	26960
808.465	27157
808.607	27154
808.749	27473
808.891	27355
809.033	27317
809.174	27462
809.316	27268
809.458	27294
809.6	27264
809.741	27378
809.883	27515
810.025	27622
810.166	27698
810.308	27644
810.45	27568
810.591	27488
810.733	27351
810.875	27504
811.016	27268
811.158	27351
811.299	27427
811.441	27420
811.582	27473
811.724	27500
811.865	27283
812.007	27370
812.148	27291
812.29	27408
812.431	27542
812.573	27652
812.714	27804
812.855	27831
812.997	27953
813.138	28082
813.279	28032
813.421	27789
813.562	27690
813.703	27553
813.845	27686
813.986	27302
814.127	27127
814.268	26979
814.41	26994
814.551	26895
814.692	27104
814.833	26826
814.974	27020
815.115	27077
815.256	26986
815.397	26895
815.539	27039
815.68	26769
815.821	26583
815.962	26785
816.103	26682
816.244	26606
816.385	26629
816.526	26587
816.666	26374
816.807	26362
816.948	26320
817.089	26290
817.23	26267
817.371	26374
817.512	26381
817.653	26229
817.793	26298
817.934	26278
818.075	26267
818.216	26278
818.356	26240
818.497	26233
818.638	26027
818.778	26016
818.919	25928
819.06	26001
819.2	26218
819.341	26187
819.481	26218
819.622	26362
819.762	26526
819.903	26514
820.043	26450
820.184	26385
820.324	26465
820.465	26309
820.605	26442
820.746	26355
820.886	26176
821.026	26313
821.167	26244
821.307	26503
821.447	26225
821.588	26343
821.728	25997
821.868	25894
822.008	25704
822.149	25769
822.289	25635
822.429	25426
822.569	25327
822.709	25316
822.849	25293
822.99	25190
823.13	25293
823.27	25156
823.41	25050
823.55	24913
823.69	25091
823.83	25076
823.97	24916
824.11	24833
824.25	24875
824.389	24848
824.529	24981
824.669	24772
824.809	24886
824.949	24882
825.089	24928
825.228	24894
825.368	24726
825.508	24707
825.648	24692
825.787	24692
825.927	24700
826.067	24711
826.206	24658
826.346	24665
826.485	24711
826.625	24768
826.765	24882
826.904	24692
827.044	24483
827.183	24327
827.323	24486
827.462	24357
827.601	24475
827.741	24475
827.88	24460
828.02	24285
828.159	24334
828.298	24391
828.437	24525
828.577	24422
828.716	24445
828.855	24235
828.994	24205
829.134	24064
829.273	24228
829.412	24254
829.551	24011
829.69	24072
829.829	24133
829.968	24239
830.107	24194
830.246	24068
830.385	24022
830.524	24015
830.663	24007
830.802	23752
830.941	23882
831.08	23657
831.219	23767
831.357	23809
831.496	23855
831.635	23638
831.774	23756
831.913	23566
832.051	23463
832.19	23402
832.329	23570
832.467	23474
832.606	23360
832.744	23421
832.883	23353
833.022	23429
833.16	23406
833.299	23459
833.437	23345
833.576	23497
833.714	23512
833.852	23482
833.991	23554
834.129	23577
834.267	23448
834.406	23463
834.544	23448
834.682	23410
834.821	23493
834.959	23531
835.097	23455
835.235	23478
835.373	23512
835.511	23444
835.65	23277
835.788	23334
835.926	23181
836.064	23079
836.202	23117
836.34	23303
836.478	23299
836.615	23246
836.753	23303
836.891	23421
837.029	23311
837.167	23258
837.305	23208
837.443	23170
837.58	22995
837.718	23159
837.856	23315
837.993	23033
838.131	23128
838.269	22919
838.406	23113
838.544	23018
838.681	22816
838.819	22763
838.956	22615
839.094	22626
839.231	22588
839.369	22820
839.506	23037
839.643	22740
839.781	22557
839.918	22607
840.055	22580
840.193	22512
840.33	22519
840.467	22554
840.604	22561
840.742	22752
840.879	22478
841.016	22421
841.153	22455
841.29	22603
841.427	22538
841.564	22615
841.701	22573
841.838	22363
841.975	22554
842.112	22432
842.249	22268
842.385	22306
842.522	22512
842.659	22535
842.796	22284
842.933	22375
843.069	22185
843.206	22223
843.343	22356
843.479	22093
843.616	22265
843.752	21934
843.889	22051
844.025	22219
844.162	22010
844.298	22090
844.435	22006
844.571	22063
844.708	22147
844.844	22116
844.98	22192
845.117	22135
845.253	21911
845.389	21987
845.525	21983
845.661	21850
845.798	21895
845.934	21835
846.07	21713
846.206	21778
846.342	21861
846.478	21652
846.614	21557
846.75	21439
846.886	21549
847.022	21637
847.158	21511
847.294	21542
847.429	21572
847.565	21420
847.701	21728
847.837	21325
847.972	21291
848.108	21332
848.244	21481
848.379	21112
848.515	21077
848.65	21169
848.786	21123
848.921	21138
849.057	21165
849.192	21287
849.328	21062
849.463	21085
849.598	21089
849.734	21070
849.869	20937
850.004	20925
850.14	20925
850.275	20796
850.41	20807
850.545	20902
850.68	20815
850.815	20960
850.95	20800
851.085	21150
851.22	21001
851.355	20845
851.49	20861
851.625	20895
851.76	20743
851.895	20670
852.03	20834
852.165	20864
852.299	20986
852.434	20918
852.569	20921
852.703	20743
852.838	20872
852.973	21024
853.107	21001
853.242	20777
853.376	20724
853.511	20587
853.645	20682
853.78	20872
853.914	20769
854.048	20735
854.183	20697
854.317	20724
854.451	20838
854.585	20773
854.72	20724
854.854	20781
854.988	20682
855.122	20792
855.256	20579
855.39	20712
855.524	20648
855.658	20792
855.792	20773
855.926	20804
856.06	20720
856.194	20864
856.327	20667
856.461	20648
856.595	20648
856.729	20796
856.862	20804
856.996	20621
857.13	20701
857.263	20727
857.397	20826
857.53	20659
857.664	20655
857.797	20602
857.931	20743
858.064	20705
858.197	20693
858.331	20682
858.464	20724
858.597	20568
858.731	20655
858.864	20590
858.997	20678
859.13	20689
859.263	20720
859.396	20712
859.529	20727
859.662	20583
859.795	20594
859.928	20758
860.061	20864
860.194	20800
860.327	20682
860.46	20769
860.592	20781
860.725	20842
860.858	20880
860.99	20754
861.123	20705
861.256	20621
861.388	20644
861.521	21458
861.653	20552
861.786	20533
861.918	20412
862.05	20655
862.183	20602
862.315	20602
862.447	20682
862.58	20621
862.712	20393
862.844	20358
862.976	20480
863.108	20590
863.24	20902
863.372	20450
863.504	20381
863.636	20263
863.768	20530
863.9	20457
864.032	20454
864.164	20408
864.296	20545
864.428	20495
864.559	20499
864.691	20446
864.823	20419
864.954	20355
865.086	20385
865.217	20423
865.349	20324
865.48	20294
865.612	20298
865.743	20434
865.875	20309
866.006	20252
866.137	20377
866.269	20240
866.4	20324
866.531	20332
866.662	20164
866.793	20259
866.924	20240
867.055	20267
867.186	20172
867.317	20157
867.448	20157
867.579	20248
867.71	20180
867.841	20233
867.972	20199
868.103	20237
868.233	20328
868.364	20286
868.495	20332
868.625	20507
868.756	20609
868.886	20351
869.017	20511
869.147	20556
869.278	20636
869.408	20511
869.539	20526
869.669	20564
869.799	20590
869.929	20644
870.06	20594
870.19	20746
870.32	20705
870.45	20735
870.58	20918
870.71	21001
870.84	21043
870.97	20853
871.1	20921
871.23	21085
871.36	21077
871.489	20998
871.619	20982
871.749	21112
871.879	21214
872.008	21214
872.138	21169
872.267	21116
872.397	20864
872.526	20921
872.656	21001
872.785	20826
872.915	21116
873.044	21203
873.173	21214
873.303	21176
873.432	21188
873.561	21123
873.69	21108
873.819	21116
873.948	21188
874.077	21138
874.206	21112
874.335	21104
874.464	21241
874.593	21378
874.722	21291
874.851	21401
874.979	21488
875.108	21279
875.237	21424
875.365	21222
875.494	21298
875.623	21485
875.751	21351
875.88	21389
876.008	21549
876.136	21561
876.265	21835
876.393	21835
876.521	21876
876.65	21831
876.778	21656
876.906	21671
877.034	21736
877.162	21838
877.29	21644
877.418	21732
877.546	21671
877.674	21766
877.802	21663
877.93	21755
878.058	21614
878.185	21618
878.313	21587
878.441	21686
878.568	21614
878.696	21724
878.824	21694
878.951	21880
879.079	21797
879.206	21873
879.333	22010
879.461	21747
879.588	21762
879.715	21934
879.842	22021
879.97	21732
880.097	21492
880.224	21454
880.351	21606
880.478	21557
880.605	21466
880.732	21561
880.859	21648
880.986	21568
881.112	21610
881.239	21405
881.366	21287
881.493	21157
881.619	21108
881.746	21074
881.872	21195
881.999	21256
882.125	21089
882.252	21131
882.378	21062
882.505	21233
882.631	20975
882.757	20944
882.883	20921
883.01	20902
883.136	20815
883.262	20712
883.388	20594
883.514	20861
883.64	20781
883.766	20720
883.892	20617
884.018	20583
884.143	20796
884.269	20910
884.395	20476
884.52	20400
884.646	20575
884.772	20370
884.897	20351
885.023	20438
885.148	20613
885.274	20613
885.399	20480
885.524	20427
885.65	20522
885.775	20503
885.9	20549
886.025	20606
886.15	20670
886.275	20404
886.4	20385
886.525	20389
886.65	20309
886.775	20404
886.9	20564
887.025	20697
887.149	20381
887.274	20206
887.399	20286
887.523	20130
887.648	20096
887.773	20130
887.897	20351
888.021	20240
888.146	20244
888.27	20309
888.395	20199
888.519	20244
888.643	20244
888.767	20218
888.891	20145
889.015	20077
889.139	20092
889.263	20035
889.387	20164
889.511	20225
889.635	20187
889.759	20107
889.883	20016
890.006	19879
890.13	20092
890.254	20016
890.377	19940
890.501	19784
890.624	19674
890.748	19845
890.871	19674
890.995	19601
891.118	19594
891.241	19586
891.364	19544
891.488	19826
891.611	19776
891.734	19601
891.857	19807
891.98	19597
892.103	19753
892.226	19655
892.349	19559
892.471	19460
892.594	19670
892.717	19605
892.839	19521
892.962	19628
893.085	19628
893.207	19597
893.33	19597
893.452	19400
893.575	19563
893.697	19571
893.819	19723
893.941	19719
894.064	19681
894.186	19506
894.308	19419
894.43	19731
894.552	19670
894.674	19624
894.796	19362
894.918	19582
895.04	19582
895.161	19643
895.283	19537
895.405	19457
895.526	19548
895.648	19540
895.769	19552
895.891	19441
896.012	19632
896.134	19559
896.255	19559
896.376	19575
896.498	19590
896.619	19487
896.74	19529
896.861	19601
896.982	19959
897.103	20092
897.224	19868
897.345	19658
897.466	19788
897.587	19723
897.708	19921
897.828	19799
897.949	19788
898.07	19727
898.19	19742
898.311	19860
898.431	19772
898.552	19757
898.672	19852
898.792	19849
898.913	19776
899.033	19742
899.153	19624
899.273	19628
899.393	19586
899.513	19514
899.633	19620
899.753	19681
899.873	19476
899.993	19643
900.113	19430
900.232	19578
900.352	19445
900.472	19339
900.591	19350
900.711	19392
900.83	19331
900.95	19571
901.069	19407
901.189	19118
901.308	18977
901.427	18924
901.546	18996
901.665	18996
901.784	18985
901.904	18772
902.023	18749
902.141	18608
902.26	18391
902.379	18578
902.498	18357
902.617	18361
902.735	18388
902.854	18513
902.973	18357
903.091	18167
903.21	18087
903.328	18224
903.446	18026
903.565	17912
903.683	17999
903.801	17798
903.919	17897
904.038	17840
904.156	17646
904.274	17710
904.392	17661
904.51	17676
904.627	17638
904.745	17733
904.863	17794
904.981	17482
905.098	17376
905.216	17337
905.334	17398
905.451	17315
905.569	17284
905.686	17406
905.803	17425
905.921	17128
906.038	17288
906.155	17322
906.272	17147
906.389	17090
906.506	16915
906.623	16957
906.74	16881
906.857	16736
906.974	16752
907.091	16995
907.208	16961
907.324	16843
907.441	16934
907.557	16679
907.674	16664
907.79	16607
907.907	16569
908.023	16702
908.139	16599
908.256	16577
908.372	16558
908.488	16474
908.604	16344
908.72	16341
908.836	16284
908.952	16352
909.068	16333
909.184	16519
909.3	16303
909.415	16375
909.531	16295
909.647	16025
909.762	16082
909.878	16051
909.993	16143
910.108	15968
910.224	16044
910.339	16078
910.454	15991
910.57	15922
910.685	15857
910.8	16055
910.915	16025
911.03	15846
911.145	15720
911.259	15538
911.374	15675
911.489	15595
911.604	15595
911.718	15355
911.833	15367
911.947	15412
912.062	15321
912.176	15500
912.291	15519
912.405	15416
912.519	15671
912.633	15682
912.748	15496
912.862	15351
912.976	15184
913.09	15135
913.204	15214
913.318	15237
913.431	15370
913.545	15275
913.659	15291
913.772	15138
913.886	15039
914	15085
914.113	15135
914.226	15161
914.34	15036
914.453	15013
914.566	15180
914.68	14914
914.793	14864
914.906	14811
915.019	14644
915.132	14606
915.245	14682
915.358	14678
915.47	14773
915.583	14674
915.696	14716
915.809	14773
915.921	14777
916.034	14583
916.146	14602
916.259	14530
916.371	14655
916.483	14507
916.595	14473
916.708	14568
916.82	14526
916.932	14415
917.044	14393
917.156	14511
917.268	14355
917.38	14412
917.491	14358
917.603	14263
917.715	14347
917.826	14434
917.938	14237
918.049	14263
918.161	14343
918.272	14484
918.384	14355
918.495	14206
918.606	14149
918.717	14024
918.828	14062
918.939	14077
919.05	14012
919.161	14081
919.272	13833
919.383	13947
919.494	14062
919.604	14320
919.715	14123
919.826	13917
919.936	14058
920.047	14183
920.157	14126
920.267	14271
920.378	14054
920.488	14084
920.598	14206
920.708	14320
920.818	14134
920.928	14199
921.038	14339
921.148	14408
921.258	14073
921.368	13974
921.477	13917
921.587	13799
921.697	13734
921.806	13837
921.916	13677
922.025	13552
922.134	13548
922.244	13548
922.353	13506
922.462	13400
922.571	13335
922.68	13168
922.789	13236
922.898	13179
923.007	13046
923.116	13133
923.224	13122
923.333	13034
923.442	12871
923.55	13012
923.659	12989
923.767	13057
923.876	12878
923.984	12973
924.092	12840
924.201	12973
924.309	12920
924.417	12909
924.525	12772
924.633	12734
924.741	13769
924.849	12540
924.956	12779
925.064	12646
925.172	12525
925.279	12574
925.387	12601
925.494	12612
925.602	12662
925.709	12544
925.816	12460
925.924	12429
926.031	12555
926.138	12528
926.245	12578
926.352	12376
926.459	12604
926.566	12551
926.673	12410
926.779	12232
926.886	12384
926.993	12232
927.099	12136
927.206	12144
927.312	12129
927.419	12133
927.525	12098
927.631	12201
927.737	12026
927.843	11946
927.95	12007
928.056	11946
928.162	12007
928.267	12057
928.373	12677
928.479	12053
928.585	11836
928.69	11851
928.796	12019
928.901	11942
929.007	11665
929.112	11767
929.218	11718
929.323	11771
929.428	11672
929.533	11832
929.638	11699
929.743	11638
929.848	11722
929.953	11733
930.058	11497
930.163	11440
930.267	11444
930.372	11585
930.477	11345
930.581	11611
930.685	11467
930.79	11261
930.894	11334
930.998	11334
931.103	11539
931.207	11041
931.311	10915
931.415	10911
931.519	10710
931.623	10554
