Data from test_V78500241_2249.txt Node
Date: Fri Mar 25 15:25:31 CST 2022
User: usil
Spectrometer: V785-0024
Trigger mode: 0
Integration Time (sec): 4.000000E-1
Scans to average: 1
Nonlinearity correction enabled: false
Boxcar width: 0
Storing dark spectrum: false
XAxis mode: Wavelengths
Number of Pixels in Spectrum: 1024
>>>>>Begin Spectral Data<<<<<
801.071	27770
801.214	27724
801.356	27420
801.499	27538
801.641	27275
801.783	27252
801.926	27313
802.068	27275
802.211	27306
802.353	27218
802.496	27036
802.638	26990
802.78	26895
802.923	26895
803.065	26834
803.208	26815
803.35	26861
803.492	26967
803.635	27184
803.777	27077
803.919	27146
804.061	27458
804.204	27252
804.346	27169
804.488	27070
804.63	27188
804.773	27032
804.915	27302
805.057	27294
805.199	27119
805.341	27100
805.483	27226
805.626	27329
805.768	27127
805.91	27222
806.052	27192
806.194	27291
806.336	27344
806.478	27233
806.62	27169
806.762	27370
806.904	27515
807.046	27751
807.188	27583
807.33	27789
807.472	27686
807.614	27511
807.756	27720
807.898	27454
808.04	27447
808.182	27500
808.324	27648
808.465	27648
808.607	27781
808.749	27922
808.891	28063
809.033	27937
809.174	27922
809.316	27785
809.458	28040
809.6	27819
809.741	27964
809.883	28002
810.025	28131
810.166	28116
810.308	28150
810.45	28116
810.591	27998
810.733	27930
810.875	27778
811.016	27800
811.158	27713
811.299	27972
811.441	28131
811.582	27911
811.724	27850
811.865	27899
812.007	27789
812.148	27831
812.29	27956
812.431	28036
812.573	28226
812.714	28185
812.855	28314
812.997	28318
813.138	28660
813.279	28607
813.421	28398
813.562	28249
813.703	28276
813.845	28032
813.986	27759
814.127	27644
814.268	27667
814.41	27515
814.551	27523
814.692	27637
814.833	27492
814.974	27690
815.115	27648
815.256	27431
815.397	27386
815.539	27435
815.68	27378
815.821	27374
815.962	27378
816.103	27389
816.244	27264
816.385	27104
816.526	27074
816.666	26956
816.807	26746
816.948	26967
817.089	26910
817.23	26842
817.371	26785
817.512	26887
817.653	26883
817.793	26708
817.934	26815
818.075	26834
818.216	26781
818.356	26876
818.497	26640
818.638	26617
818.778	26594
818.919	26602
819.06	26549
819.2	26663
819.341	26845
819.481	26872
819.622	26853
819.762	27176
819.903	27096
820.043	27089
820.184	26861
820.324	26883
820.465	27036
820.605	26853
820.746	26906
820.886	26773
821.026	26876
821.167	26800
821.307	26895
821.447	26902
821.588	26826
821.728	26533
821.868	26419
822.008	26240
822.149	26301
822.289	26298
822.429	26001
822.569	25986
822.709	26065
822.849	25879
822.99	25871
823.13	25731
823.27	25616
823.41	25552
823.55	25533
823.69	25662
823.83	25666
823.97	25643
824.11	25453
824.25	25400
824.389	25499
824.529	25571
824.669	25453
824.809	25674
824.949	25476
825.089	25491
825.228	25434
825.368	25285
825.508	25266
825.648	25324
825.787	25320
825.927	25392
826.067	25198
826.206	25255
826.346	25293
826.485	25209
826.625	25255
826.765	25365
826.904	25278
827.044	24996
827.183	25145
827.323	25069
827.462	25069
827.601	25015
827.741	24996
827.88	24970
828.02	24932
828.159	24992
828.298	24894
828.437	25023
828.577	24970
828.716	24913
828.855	24856
828.994	24711
829.134	24802
829.273	24627
829.412	24635
829.551	24768
829.69	24684
829.829	24760
829.968	24833
830.107	24760
830.246	24665
830.385	24639
830.524	24505
830.663	24669
830.802	24429
830.941	24452
831.08	24391
831.219	24334
831.357	24429
831.496	24551
831.635	24178
831.774	24270
831.913	24163
832.051	24155
832.19	23992
832.329	24114
832.467	24026
832.606	23935
832.744	24057
832.883	23992
833.022	23935
833.16	24038
833.299	23961
833.437	24064
833.576	23988
833.714	24152
833.852	24114
833.991	24030
834.129	24114
834.267	24235
834.406	24106
834.544	24144
834.682	24079
834.821	24087
834.959	24148
835.097	23942
835.235	24121
835.373	24049
835.511	23973
835.65	23824
835.788	24034
835.926	23764
836.064	23737
836.202	23828
836.34	23901
836.478	23961
836.615	23923
836.753	23882
836.891	23931
837.029	23859
837.167	23817
837.305	23668
837.443	23649
837.58	23554
837.718	23741
837.856	23668
837.993	23760
838.131	23627
838.269	23558
838.406	23512
838.544	23448
838.681	23406
838.819	23277
838.956	23223
839.094	23102
839.231	23193
839.369	23349
839.506	23619
839.643	23395
839.781	23181
839.918	23102
840.055	23220
840.193	23060
840.33	23071
840.467	23090
840.604	23166
840.742	23436
840.879	22984
841.016	23064
841.153	23006
841.29	23151
841.427	23006
841.564	23231
841.701	23086
841.838	22980
841.975	22957
842.112	22904
842.249	22877
842.385	22702
842.522	23064
842.659	22843
842.796	22835
842.933	22930
843.069	22820
843.206	22778
843.343	22934
843.479	22942
843.616	22930
843.752	22561
843.889	22561
844.025	22759
844.162	22683
844.298	22725
844.435	22626
844.571	22557
844.708	22592
844.844	22820
844.98	22831
845.117	22713
845.253	22523
845.389	22481
845.525	22538
845.661	22508
845.798	22337
845.934	22386
846.07	22356
846.206	22348
846.342	22481
846.478	22352
846.614	22238
846.75	22105
846.886	22025
847.022	22215
847.158	22055
847.294	22025
847.429	22006
847.565	21964
847.701	22265
847.837	21850
847.972	21663
848.108	21895
848.244	21968
848.379	21743
848.515	21667
848.65	21690
848.786	21717
848.921	21610
849.057	21739
849.192	21717
849.328	21679
849.463	21686
849.598	21622
849.734	21557
849.869	21675
850.004	21386
850.14	21431
850.275	21545
850.41	21363
850.545	21382
850.68	21382
850.815	21507
850.95	21424
851.085	21572
851.22	21557
851.355	21534
851.49	21363
851.625	21519
851.76	21272
851.895	21386
852.03	21348
852.165	21374
852.299	21424
852.434	21568
852.569	21485
852.703	21511
852.838	21458
852.973	21477
853.107	21553
853.242	21481
853.376	21298
853.511	21161
853.645	21116
853.78	21249
853.914	21329
854.048	21325
854.183	21272
854.317	21306
854.451	21454
854.585	21268
854.72	21268
854.854	21443
854.988	21150
855.122	21195
855.256	21127
855.39	21241
855.524	21260
855.658	21230
855.792	21245
855.926	21283
856.06	21294
856.194	21260
856.327	21233
856.461	21165
856.595	21203
856.729	21367
856.862	21359
856.996	21131
857.13	21313
857.263	21367
857.397	21298
857.53	21222
857.664	21378
857.797	21359
857.931	21329
858.064	21237
858.197	21420
858.331	21241
858.464	21146
858.597	21081
858.731	21131
858.864	21138
858.997	21268
859.13	21313
859.263	21272
859.396	21310
859.529	21272
859.662	21096
859.795	21131
859.928	21287
860.061	21370
860.194	21329
860.327	21306
860.46	21252
860.592	21412
860.725	21408
860.858	21447
860.99	21249
861.123	21146
861.256	21313
861.388	21169
861.521	21972
861.653	21100
861.786	21062
861.918	21112
862.05	20994
862.183	21154
862.315	21302
862.447	21188
862.58	21245
862.712	20998
862.844	20914
862.976	21062
863.108	21036
863.24	21275
863.372	20948
863.504	20929
863.636	20853
863.768	20982
863.9	20883
864.032	20929
864.164	20872
864.296	20956
864.428	21043
864.559	21036
864.691	21070
864.823	20975
864.954	21009
865.086	20845
865.217	20750
865.349	20845
865.48	20853
865.612	21036
865.743	20994
865.875	20834
866.006	20842
866.137	20872
866.269	20864
866.4	20853
866.531	20853
866.662	20792
866.793	20834
866.924	20777
867.055	20842
867.186	20674
867.317	20754
867.448	20716
867.579	20743
867.71	20826
867.841	20644
867.972	20811
868.103	20891
868.233	20845
868.364	20861
868.495	20914
868.625	21051
868.756	21096
868.886	20902
869.017	20929
869.147	20986
869.278	21157
869.408	21100
869.539	20994
869.669	21043
869.799	21203
869.929	21260
870.06	21074
870.19	21321
870.32	21256
870.45	21374
870.58	21416
870.71	21488
870.84	21515
870.97	21370
871.1	21412
871.23	21553
871.36	21603
871.489	21439
871.619	21599
871.749	21644
871.879	21698
872.008	21713
872.138	21774
872.267	21720
872.397	21576
872.526	21428
872.656	21458
872.785	21462
872.915	21599
873.044	21736
873.173	21591
873.303	21679
873.432	21705
873.561	21698
873.69	21732
873.819	21629
873.948	21618
874.077	21656
874.206	21679
874.335	21500
874.464	21690
874.593	21800
874.722	21857
874.851	21857
874.979	21797
875.108	21895
875.237	21907
875.365	21823
875.494	21941
875.623	21937
875.751	21857
875.88	21964
876.008	22051
876.136	21991
876.265	22303
876.393	22375
876.521	22246
876.65	22325
876.778	22337
876.906	22196
877.034	22268
877.162	22344
877.29	22067
877.418	22306
877.546	22295
877.674	22215
877.802	22173
877.93	22257
878.058	22128
878.185	22086
878.313	22215
878.441	22173
878.568	22006
878.696	22211
878.824	22223
878.951	22303
879.079	22417
879.206	22504
879.333	22375
879.461	22169
879.588	22310
879.715	22246
879.842	22436
879.97	22322
880.097	22082
880.224	22063
880.351	22109
880.478	22044
880.605	22036
880.732	22097
880.859	22409
880.986	22135
881.112	22070
881.239	21934
881.366	21747
881.493	21701
881.619	21591
881.746	21614
881.872	21526
881.999	21538
882.125	21492
882.252	21633
882.378	21595
882.505	21846
882.631	21507
882.757	21264
882.883	21363
883.01	21332
883.136	21420
883.262	21135
883.388	21169
883.514	21310
883.64	21275
883.766	21211
883.892	21100
884.018	21062
884.143	21161
884.269	21447
884.395	21036
884.52	20937
884.646	21009
884.772	20826
884.897	20872
885.023	20902
885.148	20982
885.274	21146
885.399	21005
885.524	20876
885.65	21024
885.775	20944
885.9	20971
886.025	21135
886.15	20963
886.275	20743
886.4	20941
886.525	21001
886.65	20944
886.775	20921
886.9	21108
887.025	21214
887.149	20956
887.274	20785
887.399	20590
887.523	20720
887.648	20739
887.773	20659
887.897	20876
888.021	20815
888.146	20629
888.27	20876
888.395	20792
888.519	20765
888.643	20849
888.767	20804
888.891	20621
889.015	20552
889.139	20552
889.263	20492
889.387	20602
889.511	20705
889.635	20781
889.759	20454
889.883	20488
890.006	20602
890.13	20587
890.254	20434
890.377	20499
890.501	20282
890.624	20180
890.748	20218
890.871	20195
890.995	20065
891.118	20119
891.241	20016
891.364	20081
891.488	20176
891.611	20103
891.734	20100
891.857	20050
891.98	20077
892.103	20100
892.226	20134
892.349	20024
892.471	19849
892.594	20069
892.717	20069
892.839	20069
892.962	19982
893.085	20149
893.207	20012
893.33	19833
893.452	20008
893.575	19982
893.697	20024
893.819	20218
893.941	20229
894.064	20142
894.186	19879
894.308	19898
894.43	20107
894.552	20313
894.674	20062
894.796	19868
894.918	19967
895.04	19989
895.161	20054
895.283	20001
895.405	20001
895.526	19967
895.648	19982
895.769	20058
895.891	20084
896.012	19967
896.134	20058
896.255	20096
896.376	19982
896.498	19982
896.619	20005
896.74	20024
896.861	20142
896.982	20298
897.103	20442
897.224	20202
897.345	20195
897.466	20050
897.587	20202
897.708	20263
897.828	20324
897.949	20202
898.07	20077
898.19	20157
898.311	20351
898.431	20100
898.552	20149
898.672	20172
898.792	20278
898.913	20218
899.033	20115
899.153	19890
899.273	19951
899.393	19887
899.513	20100
899.633	19986
899.753	19993
899.873	19970
899.993	19974
900.113	19928
900.232	19967
900.352	19947
900.472	19917
900.591	19693
900.711	19814
900.83	19605
900.95	19909
901.069	19845
901.189	19689
901.308	19468
901.427	19434
901.546	19301
901.665	19346
901.784	19293
901.904	19202
902.023	19099
902.141	18973
902.26	18829
902.379	18951
902.498	18859
902.617	18890
902.735	18772
902.854	18787
902.973	18703
903.091	18715
903.21	18574
903.328	18490
903.446	18357
903.565	18334
903.683	18376
903.801	18220
903.919	18270
904.038	18323
904.156	18114
904.274	18133
904.392	18049
904.51	18216
904.627	18079
904.745	18182
904.863	18186
904.981	17973
905.098	17851
905.216	17775
905.334	17798
905.451	17718
905.569	17733
905.686	17687
905.803	17828
905.921	17566
906.038	17619
906.155	17623
906.272	17493
906.389	17474
906.506	17303
906.623	17269
906.74	17288
906.857	17296
906.974	17250
907.091	17345
907.208	17452
907.324	17349
907.441	17113
907.557	17048
907.674	17102
907.79	16946
907.907	16919
908.023	16968
908.139	17083
908.256	16934
908.372	16797
908.488	17022
908.604	16839
908.72	16634
908.836	16831
908.952	16740
909.068	16820
909.184	16847
909.3	16805
909.415	16805
909.531	16596
909.647	16649
909.762	16398
909.878	16398
909.993	16489
910.108	16375
910.224	16466
910.339	16325
910.454	16341
910.57	16257
910.685	16147
910.8	16440
910.915	16417
911.03	16261
911.145	16135
911.259	16025
911.374	15964
911.489	15941
911.604	15926
911.718	15736
911.833	15762
911.947	15660
912.062	15576
912.176	15739
912.291	15762
912.405	15690
912.519	15850
912.633	15975
912.748	15808
912.862	15797
912.976	15637
913.09	15447
913.204	15561
913.318	15591
913.431	15667
913.545	15660
913.659	15720
913.772	15466
913.886	15370
914	15389
914.113	15549
914.226	15561
914.34	15507
914.453	15313
914.566	15386
914.68	15313
914.793	15241
914.906	15127
915.019	14971
915.132	14948
915.245	14998
915.358	15055
915.47	14994
915.583	15047
915.696	15036
915.809	15119
915.921	15108
916.034	14963
916.146	14872
916.259	14902
916.371	14895
916.483	14948
916.595	14788
916.708	14826
916.82	14788
916.932	14830
917.044	14743
917.156	14796
917.268	14602
917.38	14788
917.491	14716
917.603	14689
917.715	14686
917.826	14731
917.938	14545
918.049	14533
918.161	14602
918.272	14796
918.384	14746
918.495	14552
918.606	14492
918.717	14434
918.828	14461
918.939	14488
919.05	14343
919.161	14427
919.272	14244
919.383	14332
919.494	14434
919.604	14579
919.715	14419
919.826	14324
919.936	14355
920.047	14343
920.157	14339
920.267	14632
920.378	14431
920.488	14282
920.598	14617
920.708	14689
920.818	14499
920.928	14518
921.038	14651
921.148	14670
921.258	14434
921.368	14206
921.477	14168
921.587	14161
921.697	14065
921.806	14111
921.916	14062
922.025	13906
922.134	13864
922.244	13708
922.353	13780
922.462	13578
922.571	13601
922.68	13453
922.789	13487
922.898	13540
923.007	13384
923.116	13548
923.224	13415
923.333	13400
923.442	13213
923.55	13263
923.659	13362
923.767	13278
923.876	13183
923.984	13358
924.092	13137
924.201	13160
924.309	13190
924.417	13213
924.525	13088
924.633	13065
924.741	13868
924.849	12867
924.956	13107
925.064	12897
925.172	12878
925.279	12817
925.387	12993
925.494	12821
925.602	12928
925.709	12821
925.816	12658
925.924	12806
926.031	12875
926.138	12810
926.245	12798
926.352	12684
926.459	12867
926.566	12814
926.673	12715
926.779	12631
926.886	12677
926.993	12502
927.099	12384
927.206	12365
927.312	12384
927.419	12403
927.525	12369
927.631	12498
927.737	12376
927.843	12357
927.95	12117
928.056	12247
928.162	12285
928.267	12216
928.373	12913
928.479	12296
928.585	12011
928.69	12243
928.796	12228
928.901	12072
929.007	11996
929.112	12155
929.218	11992
929.323	12019
929.428	11969
929.533	12015
929.638	11859
929.743	11885
929.848	11969
929.953	11958
930.058	11878
930.163	11691
930.267	11680
930.372	11783
930.477	11695
930.581	11927
930.685	11627
930.79	11490
930.894	11592
930.998	11497
931.103	11642
931.207	11337
931.311	11250
931.415	11090
931.519	10949
931.623	10850
