Data from test_V78500241_1997.txt Node
Date: Fri Mar 25 15:23:45 CST 2022
User: usil
Spectrometer: V785-0024
Trigger mode: 0
Integration Time (sec): 4.000000E-1
Scans to average: 1
Nonlinearity correction enabled: false
Boxcar width: 0
Storing dark spectrum: false
XAxis mode: Wavelengths
Number of Pixels in Spectrum: 1024
>>>>>Begin Spectral Data<<<<<
801.071	28036
801.214	27865
801.356	27568
801.499	27564
801.641	27526
801.783	27424
801.926	27431
802.068	27393
802.211	27310
802.353	27310
802.496	27180
802.638	27085
802.78	27047
802.923	26982
803.065	26979
803.208	27020
803.35	27100
803.492	27188
803.635	27431
803.777	27043
803.919	27336
804.061	27599
804.204	27412
804.346	27264
804.488	27268
804.63	27344
804.773	27237
804.915	27393
805.057	27348
805.199	27378
805.341	27393
805.483	27641
805.626	27504
805.768	27443
805.91	27481
806.052	27553
806.194	27458
806.336	27439
806.478	27606
806.62	27443
806.762	27694
806.904	27739
807.046	28032
807.188	27892
807.33	27854
807.472	27949
807.614	27739
807.756	27953
807.898	27720
808.04	27778
808.182	27816
808.324	27728
808.465	27876
808.607	27960
808.749	28013
808.891	28139
809.033	28299
809.174	28158
809.316	28067
809.458	28032
809.6	28124
809.741	28082
809.883	28295
810.025	28462
810.166	28268
810.308	28440
810.45	28459
810.591	28276
810.733	28086
810.875	28074
811.016	27941
811.158	27934
811.299	28093
811.441	28188
811.582	28093
811.724	28112
811.865	28040
812.007	28070
812.148	28112
812.29	28025
812.431	28257
812.573	28466
812.714	28436
812.855	28497
812.997	28603
813.138	28862
813.279	28675
813.421	28637
813.562	28527
813.703	28306
813.845	28299
813.986	27964
814.127	27903
814.268	27888
814.41	27789
814.551	27827
814.692	27914
814.833	27861
814.974	27698
815.115	27736
815.256	27747
815.397	27705
815.539	27610
815.68	27564
815.821	27393
815.962	27496
816.103	27603
816.244	27511
816.385	27397
816.526	27348
816.666	27199
816.807	27039
816.948	27150
817.089	27256
817.23	27036
817.371	27013
817.512	27066
817.653	27013
817.793	26956
817.934	27093
818.075	27070
818.216	27085
818.356	27108
818.497	26918
818.638	26929
818.778	26804
818.919	26853
819.06	26910
819.2	26872
819.341	27214
819.481	27039
819.622	27089
819.762	27435
819.903	27450
820.043	27226
820.184	27192
820.324	27199
820.465	27306
820.605	27096
820.746	27058
820.886	27058
821.026	27047
821.167	27123
821.307	27089
821.447	27165
821.588	26887
821.728	26823
821.868	26579
822.008	26632
822.149	26541
822.289	26583
822.429	26438
822.569	26172
822.709	26122
822.849	26122
822.99	25951
823.13	25986
823.27	26005
823.41	25795
823.55	25731
823.69	25830
823.83	25940
823.97	25811
824.11	25559
824.25	25582
824.389	25681
824.529	25803
824.669	25662
824.809	25651
824.949	25681
825.089	25769
825.228	25662
825.368	25540
825.508	25495
825.648	25628
825.787	25567
825.927	25552
826.067	25601
826.206	25403
826.346	25685
826.485	25620
826.625	25628
826.765	25674
826.904	25582
827.044	25270
827.183	25422
827.323	25270
827.462	25308
827.601	25308
827.741	25320
827.88	25365
828.02	25270
828.159	25327
828.298	25346
828.437	25339
828.577	25301
828.716	25362
828.855	25050
828.994	25072
829.134	25012
829.273	25000
829.412	25004
829.551	24886
829.69	24924
829.829	25046
829.968	25065
830.107	25034
830.246	25027
830.385	24783
830.524	24859
830.663	24753
830.802	24726
830.941	24551
831.08	24612
831.219	24642
831.357	24658
831.496	24837
831.635	24578
831.774	24395
831.913	24391
832.051	24334
832.19	24391
832.329	24338
832.467	24258
832.606	24213
832.744	24224
832.883	24216
833.022	24110
833.16	24319
833.299	24254
833.437	24262
833.576	24361
833.714	24445
833.852	24399
833.991	24380
834.129	24361
834.267	24418
834.406	24399
834.544	24258
834.682	24205
834.821	24277
834.959	24388
835.097	24254
835.235	24289
835.373	24262
835.511	24330
835.65	24228
835.788	24213
835.926	24022
836.064	23950
836.202	23992
836.34	24148
836.478	24098
836.615	24144
836.753	24190
836.891	24194
837.029	24159
837.167	24098
837.305	24095
837.443	23927
837.58	23973
837.718	23965
837.856	24087
837.993	23942
838.131	24003
838.269	23843
838.406	23722
838.544	23836
838.681	23589
838.819	23695
838.956	23627
839.094	23512
839.231	23433
839.369	23646
839.506	23904
839.643	23737
839.781	23547
839.918	23505
840.055	23490
840.193	23474
840.33	23353
840.467	23505
840.604	23474
840.742	23649
840.879	23330
841.016	23326
841.153	23349
841.29	23562
841.427	23414
841.564	23444
841.701	23387
841.838	23330
841.975	23284
842.112	23280
842.249	23121
842.385	23220
842.522	23353
842.659	23178
842.796	23079
842.933	23056
843.069	23117
843.206	23258
843.343	23147
843.479	23197
843.616	23090
843.752	22881
843.889	23018
844.025	23079
844.162	22923
844.298	23006
844.435	22809
844.571	22927
844.708	22915
844.844	23083
844.98	23003
845.117	23033
845.253	22885
845.389	22824
845.525	22847
845.661	22763
845.798	22500
845.934	22622
846.07	22645
846.206	22626
846.342	22702
846.478	22694
846.614	22455
846.75	22257
846.886	22356
847.022	22440
847.158	22451
847.294	22512
847.429	22394
847.565	22337
847.701	22577
847.837	22158
847.972	22006
848.108	22249
848.244	22196
848.379	21945
848.515	22029
848.65	22006
848.786	22025
848.921	21949
849.057	22143
849.192	22055
849.328	22002
849.463	21930
849.598	21819
849.734	21823
849.869	21827
850.004	21728
850.14	21842
850.275	21698
850.41	21675
850.545	21599
850.68	21766
850.815	21743
850.95	21595
851.085	21979
851.22	21800
851.355	21770
851.49	21739
851.625	21766
851.76	21675
851.895	21561
852.03	21762
852.165	21747
852.299	21698
852.434	21797
852.569	21713
852.703	21690
852.838	21778
852.973	21899
853.107	21781
853.242	21720
853.376	21583
853.511	21534
853.645	21450
853.78	21682
853.914	21496
854.048	21549
854.183	21576
854.317	21606
854.451	21873
854.585	21485
854.72	21534
854.854	21720
854.988	21477
855.122	21561
855.256	21378
855.39	21545
855.524	21542
855.658	21511
855.792	21500
855.926	21553
856.06	21583
856.194	21671
856.327	21614
856.461	21530
856.595	21447
856.729	21553
856.862	21656
856.996	21599
857.13	21542
857.263	21644
857.397	21690
857.53	21587
857.664	21644
857.797	21625
857.931	21637
858.064	21519
858.197	21625
858.331	21580
858.464	21492
858.597	21435
858.731	21485
858.864	21542
858.997	21580
859.13	21538
859.263	21587
859.396	21675
859.529	21450
859.662	21568
859.795	21576
859.928	21428
860.061	21663
860.194	21732
860.327	21656
860.46	21492
860.592	21747
860.725	21663
860.858	21667
860.99	21564
861.123	21542
861.256	21507
861.388	21462
861.521	22265
861.653	21336
861.786	21249
861.918	21466
862.05	21416
862.183	21469
862.315	21519
862.447	21652
862.58	21606
862.712	21420
862.844	21169
862.976	21321
863.108	21340
863.24	21705
863.372	21150
863.504	21184
863.636	21260
863.768	21332
863.9	21321
864.032	21161
864.164	21150
864.296	21275
864.428	21313
864.559	21408
864.691	21401
864.823	21321
864.954	21192
865.086	21245
865.217	21188
865.349	21051
865.48	21123
865.612	21188
865.743	21245
865.875	21127
866.006	21036
866.137	21203
866.269	21291
866.4	21062
866.531	21062
866.662	21146
866.793	21100
866.924	21138
867.055	21112
867.186	20994
867.317	21039
867.448	21074
867.579	21074
867.71	21055
867.841	20982
867.972	21001
868.103	21112
868.233	20998
868.364	21108
868.495	21169
868.625	21283
868.756	21363
868.886	21199
869.017	21329
869.147	21386
869.278	21325
869.408	21374
869.539	21298
869.669	21428
869.799	21344
869.929	21454
870.06	21348
870.19	21656
870.32	21652
870.45	21679
870.58	21568
870.71	21774
870.84	21888
870.97	21755
871.1	21724
871.23	21903
871.36	21812
871.489	21937
871.619	21979
871.749	21873
871.879	21922
872.008	21926
872.138	21922
872.267	22025
872.397	21755
872.526	21747
872.656	21759
872.785	21743
872.915	21949
873.044	22067
873.173	22048
873.303	21934
873.432	22029
873.561	22021
873.69	21926
873.819	22017
873.948	22021
874.077	21880
874.206	21903
874.335	21956
874.464	21956
874.593	22204
874.722	21994
874.851	22188
874.979	22341
875.108	22223
875.237	22070
875.365	22006
875.494	22150
875.623	22154
875.751	22112
875.88	22272
876.008	22223
876.136	22303
876.265	22611
876.393	22740
876.521	22622
876.65	22618
876.778	22649
876.906	22519
877.034	22459
877.162	22504
877.29	22367
877.418	22481
877.546	22611
877.674	22341
877.802	22455
877.93	22584
878.058	22440
878.185	22390
878.313	22436
878.441	22284
878.568	22405
878.696	22413
878.824	22459
878.951	22691
879.079	22649
879.206	22816
879.333	22580
879.461	22554
879.588	22622
879.715	22615
879.842	22668
879.97	22504
880.097	22257
880.224	22242
880.351	22284
880.478	22379
880.605	22306
880.732	22314
880.859	22523
880.986	22394
881.112	22306
881.239	22112
881.366	22059
881.493	21968
881.619	21915
881.746	21941
881.872	21861
881.999	21793
882.125	21747
882.252	21865
882.378	21797
882.505	22067
882.631	21705
882.757	21705
882.883	21629
883.01	21648
883.136	21496
883.262	21359
883.388	21382
883.514	21583
883.64	21599
883.766	21576
883.892	21367
884.018	21344
884.143	21515
884.269	21568
884.395	21336
884.52	21173
884.646	21249
884.772	21131
884.897	21173
885.023	21173
885.148	21268
885.274	21291
885.399	21336
885.524	21203
885.65	21294
885.775	21237
885.9	21169
886.025	21363
886.15	21359
886.275	21203
886.4	21188
886.525	21241
886.65	21176
886.775	21108
886.9	21340
887.025	21481
887.149	21112
887.274	21001
887.399	20979
887.523	20971
887.648	20952
887.773	20971
887.897	21077
888.021	21112
888.146	20861
888.27	21013
888.395	21119
888.519	21005
888.643	20994
888.767	21036
888.891	20834
889.015	20895
889.139	20758
889.263	20629
889.387	20929
889.511	20998
889.635	20842
889.759	20769
889.883	20796
890.006	20815
890.13	20918
890.254	20720
890.377	20632
890.501	20446
890.624	20476
890.748	20670
890.871	20469
890.995	20442
891.118	20419
891.241	20385
891.364	20324
891.488	20404
891.611	20332
891.734	20286
891.857	20362
891.98	20301
892.103	20423
892.226	20294
892.349	20263
892.471	20271
892.594	20313
892.717	20336
892.839	20172
892.962	20347
893.085	20221
893.207	20214
893.33	20183
893.452	20134
893.575	20294
893.697	20282
893.819	20427
893.941	20511
894.064	20355
894.186	20191
894.308	20077
894.43	20313
894.552	20385
894.674	20282
894.796	20233
894.918	20191
895.04	20233
895.161	20248
895.283	20294
895.405	20225
895.526	20267
895.648	20161
895.769	20252
895.891	20305
896.012	20199
896.134	20286
896.255	20328
896.376	20199
896.498	20176
896.619	20355
896.74	20180
896.861	20282
896.982	20648
897.103	20667
897.224	20598
897.345	20522
897.466	20358
897.587	20377
897.708	20640
897.828	20446
897.949	20370
898.07	20218
898.19	20385
898.311	20549
898.431	20313
898.552	20495
898.672	20568
898.792	20602
898.913	20412
899.033	20347
899.153	20328
899.273	20180
899.393	20256
899.513	20278
899.633	20183
899.753	20092
899.873	20180
899.993	20328
900.113	20191
900.232	20065
900.352	20107
900.472	20008
900.591	19997
900.711	20096
900.83	19936
900.95	20164
901.069	20027
901.189	19913
901.308	19757
901.427	19575
901.546	19586
901.665	19776
901.784	19609
901.904	19563
902.023	19411
902.141	19206
902.26	19095
902.379	19133
902.498	18962
902.617	18947
902.735	19084
902.854	18928
902.973	18989
903.091	18776
903.21	18894
903.328	18703
903.446	18768
903.565	18566
903.683	18658
903.801	18403
903.919	18525
904.038	18384
904.156	18369
904.274	18483
904.392	18319
904.51	18388
904.627	18285
904.745	18338
904.863	18407
904.981	18148
905.098	17954
905.216	17870
905.334	18003
905.451	18022
905.569	17923
905.686	17980
905.803	18003
905.921	17798
906.038	17885
906.155	17836
906.272	17695
906.389	17710
906.506	17543
906.623	17497
906.74	17512
906.857	17425
906.974	17436
907.091	17547
907.208	17615
907.324	17577
907.441	17474
907.557	17303
907.674	17227
907.79	17136
907.907	17124
908.023	17227
908.139	17246
908.256	17178
908.372	17094
908.488	17200
908.604	17003
908.72	16885
908.836	16831
908.952	17041
909.068	17018
909.184	17010
909.3	16927
909.415	16972
909.531	16961
909.647	16679
909.762	16691
909.878	16698
909.993	16683
910.108	16615
910.224	16656
910.339	16649
910.454	16550
910.57	16462
910.685	16417
910.8	16645
910.915	16577
911.03	16413
911.145	16390
911.259	16268
911.374	16295
911.489	16188
911.604	16173
911.718	15968
911.833	15987
911.947	15819
912.062	15831
912.176	16013
912.291	15903
912.405	16025
912.519	16226
912.633	16177
912.748	15987
912.862	15991
912.976	15656
913.09	15713
913.204	15739
913.318	15774
913.431	15884
913.545	15987
913.659	15850
913.772	15766
913.886	15644
914	15606
914.113	15675
914.226	15625
914.34	15671
914.453	15447
914.566	15542
914.68	15534
914.793	15496
914.906	15310
915.019	15188
915.132	15237
915.245	15146
915.358	15264
915.47	15218
915.583	15230
915.696	15157
915.809	15192
915.921	15431
916.034	15226
916.146	15039
916.259	15097
916.371	15184
916.483	15085
916.595	15085
916.708	15017
916.82	15070
916.932	14948
917.044	15089
917.156	14937
917.268	14891
917.38	14891
917.491	14834
917.603	14861
917.715	14872
917.826	14918
917.938	14693
918.049	14617
918.161	14811
918.272	14857
918.384	14971
918.495	14689
918.606	14610
918.717	14530
918.828	14625
918.939	14769
919.05	14552
919.161	14514
919.272	14313
919.383	14480
919.494	14613
919.604	14929
919.715	14617
919.826	14526
919.936	14488
920.047	14522
920.157	14560
920.267	14724
920.378	14568
920.488	14530
920.598	14716
920.708	14864
920.818	14689
920.928	14746
921.038	14899
921.148	14891
921.258	14526
921.368	14457
921.477	14240
921.587	14389
921.697	14153
921.806	14275
921.916	14218
922.025	14016
922.134	13982
922.244	13925
922.353	13997
922.462	13818
922.571	13761
922.68	13670
922.789	13601
922.898	13613
923.007	13559
923.116	13643
923.224	13586
923.333	13529
923.442	13407
923.55	13419
923.659	13487
923.767	13472
923.876	13270
923.984	13582
924.092	13350
924.201	13350
924.309	13301
924.417	13339
924.525	13255
924.633	13266
924.741	13970
924.849	13034
924.956	13171
925.064	13046
925.172	12947
925.279	12886
925.387	13004
925.494	12981
925.602	13175
925.709	12977
925.816	12954
925.924	12935
926.031	13057
926.138	12863
926.245	12913
926.352	12852
926.459	12973
926.566	13076
926.673	12848
926.779	12829
926.886	12722
926.993	12566
927.099	12631
927.206	12570
927.312	12506
927.419	12532
927.525	12559
927.631	12551
927.737	12433
927.843	12395
927.95	12194
928.056	12384
928.162	12403
928.267	12361
928.373	13084
928.479	12388
928.585	12205
928.69	12357
928.796	12418
928.901	12254
929.007	12155
929.112	12232
929.218	12110
929.323	12072
929.428	12057
929.533	12315
929.638	12060
929.743	12057
929.848	12121
929.953	12068
930.058	11969
930.163	11821
930.267	11771
930.372	11939
930.477	11680
930.581	11965
930.685	11821
930.79	11646
930.894	11634
930.998	11691
931.103	11836
931.207	11376
931.311	11406
931.415	11227
931.519	11109
931.623	11113
