Data from test_V78500241_1726.txt Node
Date: Fri Mar 25 15:21:52 CST 2022
User: usil
Spectrometer: V785-0024
Trigger mode: 0
Integration Time (sec): 4.000000E-1
Scans to average: 1
Nonlinearity correction enabled: false
Boxcar width: 0
Storing dark spectrum: false
XAxis mode: Wavelengths
Number of Pixels in Spectrum: 1024
>>>>>Begin Spectral Data<<<<<
801.071	27762
801.214	27663
801.356	27450
801.499	27351
801.641	27192
801.783	27169
801.926	27184
802.068	27203
802.211	27173
802.353	27081
802.496	26849
802.638	26918
802.78	26876
802.923	26670
803.065	26785
803.208	26883
803.35	26921
803.492	26933
803.635	26979
803.777	27039
803.919	27108
804.061	27302
804.204	27119
804.346	27009
804.488	26963
804.63	27070
804.773	26933
804.915	27001
805.057	27085
805.199	27036
805.341	27066
805.483	27245
805.626	27081
805.768	27116
805.91	27020
806.052	27199
806.194	27077
806.336	27382
806.478	27138
806.62	27116
806.762	27260
806.904	27420
807.046	27747
807.188	27644
807.33	27591
807.472	27694
807.614	27526
807.756	27553
807.898	27549
808.04	27389
808.182	27363
808.324	27572
808.465	27523
808.607	27492
808.749	27701
808.891	27846
809.033	27895
809.174	27644
809.316	27762
809.458	27899
809.6	27842
809.741	27869
809.883	27960
810.025	28040
810.166	27926
810.308	28211
810.45	28169
810.591	28013
810.733	27823
810.875	27759
811.016	27698
811.158	27667
811.299	27842
811.441	27876
811.582	27918
811.724	27838
811.865	27747
812.007	27846
812.148	27838
812.29	27892
812.431	27979
812.573	28120
812.714	28150
812.855	28299
812.997	28401
813.138	28474
813.279	28447
813.421	28344
813.562	28177
813.703	28139
813.845	27987
813.986	27682
814.127	27656
814.268	27447
814.41	27511
814.551	27485
814.692	27511
814.833	27450
814.974	27553
815.115	27557
815.256	27241
815.397	27420
815.539	27310
815.68	27275
815.821	27135
815.962	27169
816.103	27203
816.244	27195
816.385	27176
816.526	26994
816.666	26979
816.807	26826
816.948	26842
817.089	26845
817.23	26788
817.371	26708
817.512	26838
817.653	26613
817.793	26678
817.934	26644
818.075	26788
818.216	26838
818.356	26739
818.497	26541
818.638	26320
818.778	26663
818.919	26389
819.06	26560
819.2	26712
819.341	26754
819.481	26739
819.622	26956
819.762	27047
819.903	26975
820.043	26975
820.184	26899
820.324	26754
820.465	26967
820.605	26777
820.746	26891
820.886	26727
821.026	26819
821.167	26891
821.307	26887
821.447	26796
821.588	26640
821.728	26484
821.868	26434
822.008	26294
822.149	26267
822.289	26157
822.429	25860
822.569	25826
822.709	25917
822.849	25799
822.99	25696
823.13	25666
823.27	25753
823.41	25563
823.55	25445
823.69	25578
823.83	25453
823.97	25575
824.11	25350
824.25	25289
824.389	25426
824.529	25373
824.669	25327
824.809	25533
824.949	25487
825.089	25457
825.228	25419
825.368	25228
825.508	25225
825.648	25346
825.787	25244
825.927	25259
826.067	25240
826.206	25179
826.346	25255
826.485	25312
826.625	25228
826.765	25301
826.904	25259
827.044	25027
827.183	24821
827.323	24871
827.462	24958
827.601	24913
827.741	24779
827.88	24924
828.02	24943
828.159	24821
828.298	25008
828.437	25023
828.577	24821
828.716	25038
828.855	24859
828.994	24749
829.134	24623
829.273	24692
829.412	24601
829.551	24536
829.69	24623
829.829	24669
829.968	24642
830.107	24681
830.246	24593
830.385	24544
830.524	24559
830.663	24426
830.802	24399
830.941	24311
831.08	24239
831.219	24388
831.357	24323
831.496	24582
831.635	24205
831.774	24106
831.913	24125
832.051	24041
832.19	24232
832.329	24220
832.467	24038
832.606	23878
832.744	23961
832.883	23786
833.022	23973
833.16	23893
833.299	24079
833.437	24030
833.576	24022
833.714	23950
833.852	24076
833.991	24003
834.129	24171
834.267	24015
834.406	24095
834.544	24114
834.682	23961
834.821	23996
834.959	24106
835.097	24003
835.235	24098
835.373	24026
835.511	23950
835.65	23843
835.788	23935
835.926	23646
836.064	23741
836.202	23745
836.34	23798
836.478	23984
836.615	23878
836.753	23889
836.891	23969
837.029	23824
837.167	23737
837.305	23741
837.443	23703
837.58	23619
837.718	23710
837.856	23752
837.993	23608
838.131	23748
838.269	23452
838.406	23551
838.544	23425
838.681	23455
838.819	23311
838.956	23109
839.094	23242
839.231	23265
839.369	23345
839.506	23566
839.643	23455
839.781	23239
839.918	23071
840.055	23151
840.193	23075
840.33	23044
840.467	23113
840.604	22980
840.742	23330
840.879	22908
841.016	23128
841.153	22980
841.29	23162
841.427	23102
841.564	23250
841.701	22980
841.838	23025
841.975	22877
842.112	22991
842.249	22946
842.385	22744
842.522	23105
842.659	22908
842.796	22900
842.933	22847
843.069	22889
843.206	22797
843.343	22946
843.479	22797
843.616	22820
843.752	22706
843.889	22664
844.025	22767
844.162	22607
844.298	22660
844.435	22577
844.571	22485
844.708	22580
844.844	22763
844.98	22767
845.117	22687
845.253	22557
845.389	22466
845.525	22497
845.661	22470
845.798	22360
845.934	22561
846.07	22284
846.206	22306
846.342	22348
846.478	22272
846.614	22219
846.75	21956
846.886	21991
847.022	22234
847.158	22120
847.294	22215
847.429	22036
847.565	22078
847.701	22318
847.837	21819
847.972	21895
848.108	21987
848.244	21907
848.379	21660
848.515	21641
848.65	21625
848.786	21789
848.921	21709
849.057	21785
849.192	21762
849.328	21682
849.463	21682
849.598	21698
849.734	21618
849.869	21523
850.004	21439
850.14	21583
850.275	21492
850.41	21363
850.545	21336
850.68	21511
850.815	21504
850.95	21431
851.085	21587
851.22	21568
851.355	21462
851.49	21351
851.625	21393
851.76	21439
851.895	21313
852.03	21294
852.165	21526
852.299	21481
852.434	21397
852.569	21511
852.703	21443
852.838	21492
852.973	21564
853.107	21580
853.242	21370
853.376	21306
853.511	21173
853.645	21260
853.78	21302
853.914	21348
854.048	21188
854.183	21298
854.317	21226
854.451	21469
854.585	21211
854.72	21184
854.854	21306
854.988	21195
855.122	21294
855.256	21207
855.39	21298
855.524	21355
855.658	21237
855.792	21279
855.926	21184
856.06	21321
856.194	21382
856.327	21233
856.461	21188
856.595	21150
856.729	21275
856.862	21294
856.996	21226
857.13	21169
857.263	21534
857.397	21389
857.53	21176
857.664	21233
857.797	21401
857.931	21458
858.064	21188
858.197	21378
858.331	21245
858.464	21161
858.597	21112
858.731	21165
858.864	21222
858.997	21252
859.13	21252
859.263	21211
859.396	21348
859.529	21272
859.662	21275
859.795	21272
859.928	21268
860.061	21363
860.194	21450
860.327	21313
860.46	21226
860.592	21443
860.725	21386
860.858	21389
860.99	21226
861.123	21214
861.256	21211
861.388	21260
861.521	21941
861.653	21123
861.786	20994
861.918	21135
862.05	21245
862.183	21222
862.315	21192
862.447	21287
862.58	21344
862.712	21009
862.844	20929
862.976	21020
863.108	21089
863.24	21378
863.372	20902
863.504	20998
863.636	20921
863.768	21066
863.9	20975
864.032	20819
864.164	20918
864.296	20990
864.428	21089
864.559	20921
864.691	21043
864.823	20971
864.954	20990
865.086	20960
865.217	20952
865.349	20826
865.48	20994
865.612	20941
865.743	20971
865.875	20971
866.006	20876
866.137	20826
866.269	20876
866.4	20819
866.531	20815
866.662	20796
866.793	20883
866.924	20823
867.055	20830
867.186	20830
867.317	20663
867.448	20830
867.579	20750
867.71	20708
867.841	20629
867.972	20826
868.103	20762
868.233	20762
868.364	20689
868.495	20937
868.625	21043
868.756	21169
868.886	20994
869.017	21066
869.147	21218
869.278	21161
869.408	21085
869.539	21062
869.669	21051
869.799	21043
869.929	21131
870.06	21161
870.19	21351
870.32	21340
870.45	21542
870.58	21557
870.71	21553
870.84	21553
870.97	21386
871.1	21416
871.23	21603
871.36	21656
871.489	21614
871.619	21576
871.749	21553
871.879	21637
872.008	21698
872.138	21663
872.267	21648
872.397	21473
872.526	21363
872.656	21610
872.785	21481
872.915	21694
873.044	21751
873.173	21713
873.303	21633
873.432	21686
873.561	21816
873.69	21622
873.819	21549
873.948	21793
874.077	21572
874.206	21572
874.335	21739
874.464	21698
874.593	21812
874.722	21819
874.851	22002
874.979	21869
875.108	21857
875.237	21797
875.365	21827
875.494	21831
875.623	21922
875.751	21857
875.88	21892
876.008	22063
876.136	22048
876.265	22230
876.393	22348
876.521	22287
876.65	22421
876.778	22192
876.906	22101
877.034	22219
877.162	22185
877.29	22131
877.418	22261
877.546	22322
877.674	22310
877.802	22196
877.93	22257
878.058	22120
878.185	22147
878.313	22204
878.441	22150
878.568	21876
878.696	22070
878.824	22265
878.951	22337
879.079	22424
879.206	22500
879.333	22440
879.461	22299
879.588	22318
879.715	22375
879.842	22516
879.97	22287
880.097	22051
880.224	22090
880.351	22116
880.478	22097
880.605	22105
880.732	22166
880.859	22253
880.986	21926
881.112	21998
881.239	21937
881.366	21869
881.493	21682
881.619	21561
881.746	21736
881.872	21766
881.999	21660
882.125	21553
882.252	21644
882.378	21599
882.505	21846
882.631	21557
882.757	21393
882.883	21408
883.01	21336
883.136	21367
883.262	21241
883.388	21233
883.514	21344
883.64	21374
883.766	21195
883.892	21047
884.018	21093
884.143	21260
884.269	21469
884.395	21077
884.52	20956
884.646	20998
884.772	20834
884.897	20960
885.023	20853
885.148	21112
885.274	21127
885.399	21146
885.524	20868
885.65	20979
885.775	20925
885.9	20914
886.025	21104
886.15	21066
886.275	20819
886.4	20815
886.525	20937
886.65	20921
886.775	20826
886.9	20971
887.025	21138
887.149	20967
887.274	20773
887.399	20705
887.523	20712
887.648	20659
887.773	20571
887.897	20750
888.021	20762
888.146	20670
888.27	20819
888.395	20731
888.519	20891
888.643	20781
888.767	20788
888.891	20609
889.015	20454
889.139	20541
889.263	20511
889.387	20549
889.511	20720
889.635	20644
889.759	20514
889.883	20640
890.006	20632
890.13	20716
890.254	20461
890.377	20454
890.501	20336
890.624	20282
890.748	20423
890.871	20252
890.995	20062
891.118	20012
891.241	20233
891.364	20157
891.488	20252
891.611	20001
891.734	20134
891.857	20107
891.98	20149
892.103	20183
892.226	20088
892.349	20035
892.471	19928
892.594	19898
892.717	20077
892.839	20065
892.962	20088
893.085	19947
893.207	19989
893.33	19772
893.452	19940
893.575	20024
893.697	19978
893.819	20119
893.941	20199
894.064	20157
894.186	19993
894.308	19963
894.43	20065
894.552	20065
894.674	20069
894.796	19902
894.918	19932
895.04	19986
895.161	20084
895.283	20073
895.405	20001
895.526	20081
895.648	20043
895.769	19997
895.891	20126
896.012	20031
896.134	20069
896.255	20050
896.376	20020
896.498	20031
896.619	20046
896.74	20027
896.861	20046
896.982	20358
897.103	20564
897.224	20324
897.345	20278
897.466	20122
897.587	20065
897.708	20317
897.828	20294
897.949	20191
898.07	20187
898.19	20161
898.311	20278
898.431	20221
898.552	20210
898.672	20252
898.792	20336
898.913	20298
899.033	20134
899.153	20103
899.273	19902
899.393	19997
899.513	20046
899.633	19967
899.753	20077
899.873	19959
899.993	20050
900.113	19955
900.232	20016
900.352	19883
900.472	19803
900.591	19666
900.711	19807
900.83	19723
900.95	19784
901.069	19799
901.189	19674
901.308	19506
901.427	19301
901.546	19285
901.665	19343
901.784	19251
901.904	19274
902.023	18989
902.141	18962
902.26	18920
902.379	18920
902.498	18890
902.617	18776
902.735	18814
902.854	18814
902.973	18696
903.091	18547
903.21	18403
903.328	18532
903.446	18357
903.565	18388
903.683	18308
903.801	18197
903.919	18292
904.038	18327
904.156	18087
904.274	18182
904.392	18015
904.51	18045
904.627	18102
904.745	18049
904.863	18163
904.981	17874
905.098	17866
905.216	17783
905.334	17828
905.451	17714
905.569	17760
905.686	17775
905.803	17832
905.921	17535
906.038	17684
906.155	17577
906.272	17398
906.389	17627
906.506	17341
906.623	17337
906.74	17284
906.857	17200
906.974	17345
907.091	17459
907.208	17417
907.324	17227
907.441	17242
907.557	17155
907.674	16934
907.79	16972
907.907	16995
908.023	17102
908.139	17071
908.256	16965
908.372	16889
908.488	16885
908.604	16744
908.72	16786
908.836	16710
908.952	16675
909.068	16763
909.184	16847
909.3	16713
909.415	16828
909.531	16771
909.647	16443
909.762	16569
909.878	16459
909.993	16512
910.108	16485
910.224	16417
910.339	16375
910.454	16322
910.57	16226
910.685	16166
910.8	16470
910.915	16379
911.03	16276
911.145	16055
911.259	16021
911.374	16048
911.489	15915
911.604	15831
911.718	15743
911.833	15770
911.947	15762
912.062	15675
912.176	15800
912.291	15846
912.405	15747
912.519	15960
912.633	15869
912.748	15827
912.862	15717
912.976	15637
913.09	15584
913.204	15507
913.318	15599
913.431	15698
913.545	15663
913.659	15656
913.772	15580
913.886	15424
914	15492
914.113	15564
914.226	15500
914.34	15507
914.453	15283
914.566	15462
914.68	15211
914.793	15321
914.906	15142
915.019	15070
915.132	15013
915.245	15013
915.358	15047
915.47	15100
915.583	15058
915.696	15154
915.809	15112
915.921	15150
916.034	14872
916.146	14960
916.259	14895
916.371	14979
916.483	15051
916.595	14823
916.708	14864
916.82	14845
916.932	14788
917.044	14777
917.156	14762
917.268	14705
917.38	14682
917.491	14613
917.603	14663
917.715	14724
917.826	14708
917.938	14651
918.049	14537
918.161	14655
918.272	14724
918.384	14842
918.495	14568
918.606	14492
918.717	14355
918.828	14484
918.939	14431
919.05	14450
919.161	14393
919.272	14282
919.383	14278
919.494	14522
919.604	14697
919.715	14362
919.826	14400
919.936	14351
920.047	14530
920.157	14454
920.267	14545
920.378	14389
920.488	14332
920.598	14537
920.708	14667
920.818	14476
920.928	14484
921.038	14754
921.148	14640
921.258	14343
921.368	14298
921.477	14134
921.587	14233
921.697	14020
921.806	14142
921.916	14001
922.025	13811
922.134	13670
922.244	13772
922.353	13791
922.462	13674
922.571	13620
922.68	13453
922.789	13381
922.898	13464
923.007	13346
923.116	13548
923.224	13487
923.333	13384
923.442	13274
923.55	13206
923.659	13217
923.767	13358
923.876	13209
923.984	13285
924.092	13145
924.201	13217
924.309	13236
924.417	13190
924.525	13065
924.633	13099
924.741	13902
924.849	12871
924.956	13141
925.064	12875
925.172	12730
925.279	12897
925.387	12825
925.494	12833
925.602	12973
925.709	12897
925.816	12875
925.924	12791
926.031	12951
926.138	12840
926.245	12806
926.352	12631
926.459	12795
926.566	12875
926.673	12684
926.779	12669
926.886	12563
926.993	12445
927.099	12429
927.206	12410
927.312	12353
927.419	12422
927.525	12509
927.631	12464
927.737	12281
927.843	12247
927.95	12175
928.056	12216
928.162	12190
928.267	12323
928.373	12928
928.479	12277
928.585	12148
928.69	12194
928.796	12262
928.901	12102
929.007	11996
929.112	12102
929.218	12026
929.323	12026
929.428	11908
929.533	12144
929.638	11866
929.743	11954
929.848	11912
929.953	11901
930.058	11821
930.163	11611
930.267	11668
930.372	11843
930.477	11661
930.581	11775
930.685	11748
930.79	11520
930.894	11539
930.998	11520
931.103	11653
931.207	11326
931.311	11185
931.415	11132
931.519	10987
931.623	10999
