Data from test_V78500241_1404.txt Node
Date: Fri Mar 25 15:19:37 CST 2022
User: usil
Spectrometer: V785-0024
Trigger mode: 0
Integration Time (sec): 4.000000E-1
Scans to average: 1
Nonlinearity correction enabled: false
Boxcar width: 0
Storing dark spectrum: false
XAxis mode: Wavelengths
Number of Pixels in Spectrum: 1024
>>>>>Begin Spectral Data<<<<<
801.071	28040
801.214	28010
801.356	27652
801.499	27637
801.641	27557
801.783	27492
801.926	27690
802.068	27542
802.211	27526
802.353	27549
802.496	27298
802.638	27268
802.78	27268
802.923	27203
803.065	27188
803.208	27173
803.35	27188
803.492	27359
803.635	27473
803.777	27310
803.919	27279
804.061	27732
804.204	27507
804.346	27367
804.488	27332
804.63	27397
804.773	27363
804.915	27420
805.057	27462
805.199	27405
805.341	27568
805.483	27549
805.626	27492
805.768	27416
805.91	27408
806.052	27580
806.194	27401
806.336	27747
806.478	27511
806.62	27679
806.762	27660
806.904	27937
807.046	28048
807.188	27941
807.33	28070
807.472	28055
807.614	27922
807.756	27983
807.898	27873
808.04	27865
808.182	27835
808.324	27937
808.465	27876
808.607	28067
808.749	28226
808.891	28341
809.033	28303
809.174	28363
809.316	28154
809.458	28147
809.6	28139
809.741	28329
809.883	28432
810.025	28474
810.166	28618
810.308	28622
810.45	28386
810.591	28405
810.733	28253
810.875	28204
811.016	28116
811.158	28109
811.299	28265
811.441	28318
811.582	28272
811.724	28131
811.865	28230
812.007	28162
812.148	28188
812.29	28196
812.431	28500
812.573	28573
812.714	28580
812.855	28611
812.997	28934
813.138	28847
813.279	28850
813.421	29075
813.562	28744
813.703	28538
813.845	28459
813.986	28185
814.127	28017
814.268	27968
814.41	28051
814.551	27876
814.692	28055
814.833	27819
814.974	27850
815.115	27987
815.256	27854
815.397	27595
815.539	27648
815.68	27660
815.821	27641
815.962	27724
816.103	27736
816.244	27549
816.385	27504
816.526	27458
816.666	27203
816.807	27089
816.948	27146
817.089	27363
817.23	27287
817.371	27142
817.512	27146
817.653	27176
817.793	27104
817.934	27218
818.075	27321
818.216	27138
818.356	27062
818.497	27039
818.638	26933
818.778	26861
818.919	26849
819.06	26910
819.2	27154
819.341	27188
819.481	27180
819.622	27264
819.762	27462
819.903	27435
820.043	27443
820.184	27207
820.324	27321
820.465	27336
820.605	27351
820.746	27142
820.886	27237
821.026	27256
821.167	27454
821.307	27431
821.447	27230
821.588	26994
821.728	26994
821.868	26853
822.008	26678
822.149	26602
822.289	26552
822.429	26400
822.569	26366
822.709	26301
822.849	26145
822.99	26225
823.13	26145
823.27	26161
823.41	26005
823.55	25993
823.69	26043
823.83	25932
823.97	25997
824.11	25734
824.25	25662
824.389	25849
824.529	25890
824.669	25791
824.809	25959
824.949	25826
825.089	25944
825.228	25750
825.368	25620
825.508	25620
825.648	25738
825.787	25750
825.927	25753
826.067	25769
826.206	25582
826.346	25696
826.485	25677
826.625	25647
826.765	25898
826.904	25742
827.044	25491
827.183	25411
827.323	25449
827.462	25468
827.601	25540
827.741	25373
827.88	25434
828.02	25183
828.159	25422
828.298	25403
828.437	25362
828.577	25255
828.716	25609
828.855	25460
828.994	25088
829.134	25232
829.273	25122
829.412	25099
829.551	24992
829.69	25145
829.829	24973
829.968	25183
830.107	25198
830.246	25072
830.385	25091
830.524	24928
830.663	24894
830.802	24837
830.941	24688
831.08	24711
831.219	24992
831.357	24738
831.496	24909
831.635	24791
831.774	24566
831.913	24578
832.051	24601
832.19	24521
832.329	24521
832.467	24441
832.606	24384
832.744	24361
832.883	24479
833.022	24399
833.16	24429
833.299	24547
833.437	24388
833.576	24509
833.714	24494
833.852	24399
833.991	24623
834.129	24555
834.267	24532
834.406	24376
834.544	24505
834.682	24410
834.821	24426
834.959	24661
835.097	24369
835.235	24559
835.373	24437
835.511	24445
835.65	24403
835.788	24319
835.926	24159
836.064	24216
836.202	24251
836.34	24296
836.478	24330
836.615	24235
836.753	24380
836.891	24429
837.029	24380
837.167	24224
837.305	24308
837.443	24213
837.58	24133
837.718	24106
837.856	24178
837.993	23992
838.131	24064
838.269	23954
838.406	24007
838.544	23977
838.681	23638
838.819	23684
838.956	23680
839.094	23623
839.231	23547
839.369	23779
839.506	24030
839.643	23794
839.781	23611
839.918	23436
840.055	23573
840.193	23592
840.33	23543
840.467	23562
840.604	23482
840.742	23703
840.879	23383
841.016	23425
841.153	23425
841.29	23630
841.427	23501
841.564	23558
841.701	23471
841.838	23417
841.975	23425
842.112	23364
842.249	23341
842.385	23303
842.522	23425
842.659	23261
842.796	23239
842.933	23212
843.069	23258
843.206	23220
843.343	23246
843.479	23269
843.616	23212
843.752	23121
843.889	22953
844.025	23296
844.162	23052
844.298	23155
844.435	23052
844.571	23064
844.708	22904
844.844	23246
844.98	23121
845.117	23193
845.253	23022
845.389	22949
845.525	22904
845.661	22911
845.798	22759
845.934	22774
846.07	22653
846.206	22634
846.342	22812
846.478	22820
846.614	22580
846.75	22405
846.886	22443
847.022	22519
847.158	22478
847.294	22474
847.429	22527
847.565	22542
847.701	22656
847.837	22261
847.972	22158
848.108	22329
848.244	22268
848.379	22162
848.515	22173
848.65	22013
848.786	21945
848.921	22131
849.057	22238
849.192	22188
849.328	22093
849.463	22124
849.598	22048
849.734	21975
849.869	21895
850.004	21903
850.14	21865
850.275	21812
850.41	21857
850.545	21941
850.68	21736
850.815	21800
850.95	21785
851.085	22002
851.22	21941
851.355	21850
851.49	21842
851.625	21785
851.76	21797
851.895	21648
852.03	21682
852.165	21675
852.299	21888
852.434	21983
852.569	21766
852.703	21880
852.838	21793
852.973	21998
853.107	21930
853.242	21641
853.376	21663
853.511	21507
853.645	21690
853.78	21660
853.914	21599
854.048	21629
854.183	21477
854.317	21766
854.451	21831
854.585	21622
854.72	21610
854.854	21739
854.988	21561
855.122	21644
855.256	21454
855.39	21698
855.524	21785
855.658	21701
855.792	21667
855.926	21637
856.06	21580
856.194	21709
856.327	21545
856.461	21622
856.595	21534
856.729	21656
856.862	21648
856.996	21629
857.13	21576
857.263	21675
857.397	21644
857.53	21766
857.664	21682
857.797	21720
857.931	21762
858.064	21701
858.197	21682
858.331	21686
858.464	21549
858.597	21561
858.731	21675
858.864	21542
858.997	21568
859.13	21633
859.263	21739
859.396	21808
859.529	21663
859.662	21603
859.795	21690
859.928	21534
860.061	21865
860.194	21812
860.327	21644
860.46	21530
860.592	21774
860.725	21857
860.858	21732
860.99	21675
861.123	21572
861.256	21526
861.388	21599
861.521	22352
861.653	21416
861.786	21469
861.918	21431
862.05	21545
862.183	21606
862.315	21641
862.447	21595
862.58	21526
862.712	21355
862.844	21294
862.976	21374
863.108	21412
863.24	21694
863.372	21268
863.504	21325
863.636	21241
863.768	21386
863.9	21405
864.032	21287
864.164	21199
864.296	21313
864.428	21439
864.559	21553
864.691	21367
864.823	21192
864.954	21405
865.086	21378
865.217	21230
865.349	21211
865.48	21165
865.612	21275
865.743	21450
865.875	21367
866.006	21218
866.137	21321
866.269	21184
866.4	21279
866.531	21230
866.662	21195
866.793	21150
866.924	21104
867.055	21150
867.186	21260
867.317	21146
867.448	21062
867.579	21157
867.71	21047
867.841	21085
867.972	21127
868.103	21165
868.233	21150
868.364	21192
868.495	21169
868.625	21416
868.756	21572
868.886	21363
869.017	21359
869.147	21420
869.278	21473
869.408	21454
869.539	21431
869.669	21382
869.799	21477
869.929	21519
870.06	21450
870.19	21618
870.32	21637
870.45	21869
870.58	21778
870.71	21964
870.84	21861
870.97	21736
871.1	21827
871.23	21915
871.36	22029
871.489	21850
871.619	21968
871.749	21945
871.879	21987
872.008	22013
872.138	21983
872.267	21972
872.397	21926
872.526	21816
872.656	21907
872.785	21819
872.915	21987
873.044	22109
873.173	22029
873.303	22090
873.432	22120
873.561	22059
873.69	22010
873.819	22036
873.948	22105
874.077	22093
874.206	21930
874.335	22059
874.464	22223
874.593	22249
874.722	22234
874.851	22177
874.979	22356
875.108	22207
875.237	22101
875.365	22234
875.494	22238
875.623	22356
875.751	22276
875.88	22280
876.008	22390
876.136	22443
876.265	22626
876.393	22824
876.521	22672
876.65	22843
876.778	22660
876.906	22653
877.034	22466
877.162	22588
877.29	22500
877.418	22474
877.546	22504
877.674	22603
877.802	22546
877.93	22573
878.058	22577
878.185	22375
878.313	22523
878.441	22691
878.568	22413
878.696	22497
878.824	22497
878.951	22573
879.079	22805
879.206	22938
879.333	22653
879.461	22519
879.588	22706
879.715	22752
879.842	22805
879.97	22675
880.097	22253
880.224	22249
880.351	22554
880.478	22500
880.605	22356
880.732	22356
880.859	22656
880.986	22318
881.112	22371
881.239	22265
881.366	22249
881.493	21998
881.619	21998
881.746	22059
881.872	21972
881.999	22010
882.125	22010
882.252	22025
882.378	21968
882.505	22112
882.631	21861
882.757	21690
882.883	21717
883.01	21603
883.136	21720
883.262	21454
883.388	21580
883.514	21709
883.64	21553
883.766	21686
883.892	21401
884.018	21523
884.143	21485
884.269	21698
884.395	21332
884.52	21294
884.646	21317
884.772	21291
884.897	21127
885.023	21287
885.148	21401
885.274	21401
885.399	21454
885.524	21340
885.65	21359
885.775	21367
885.9	21161
886.025	21401
886.15	21447
886.275	21348
886.4	21272
886.525	21256
886.65	21306
886.775	21279
886.9	21386
887.025	21477
887.149	21203
887.274	21135
887.399	21123
887.523	21051
887.648	21020
887.773	21024
887.897	21058
888.021	21074
888.146	21176
888.27	21154
888.395	21218
888.519	21222
888.643	21108
888.767	21070
888.891	21043
889.015	20895
889.139	20929
889.263	20864
889.387	21020
889.511	21032
889.635	21005
889.759	20838
889.883	20887
890.006	20944
890.13	20914
890.254	20899
890.377	20838
890.501	20606
890.624	20598
890.748	20708
890.871	20507
890.995	20427
891.118	20450
891.241	20473
891.364	20355
891.488	20621
891.611	20370
891.734	20431
891.857	20442
891.98	20454
892.103	20419
892.226	20446
892.349	20415
892.471	20362
892.594	20518
892.717	20389
892.839	20275
892.962	20187
893.085	20317
893.207	20355
893.33	20199
893.452	20332
893.575	20282
893.697	20237
893.819	20461
893.941	20484
894.064	20377
894.186	20206
894.308	20275
894.43	20404
894.552	20549
894.674	20419
894.796	20240
894.918	20259
895.04	20305
895.161	20404
895.283	20336
895.405	20168
895.526	20305
895.648	20290
895.769	20263
895.891	20358
896.012	20385
896.134	20298
896.255	20282
896.376	20240
896.498	20404
896.619	20389
896.74	20290
896.861	20351
896.982	20571
897.103	20830
897.224	20590
897.345	20571
897.466	20492
897.587	20419
897.708	20785
897.828	20602
897.949	20511
898.07	20309
898.19	20469
898.311	20575
898.431	20492
898.552	20499
898.672	20621
898.792	20731
898.913	20442
899.033	20446
899.153	20374
899.273	20305
899.393	20244
899.513	20275
899.633	20237
899.753	20301
899.873	20168
899.993	20237
900.113	20256
900.232	20278
900.352	20210
900.472	20145
900.591	19982
900.711	20050
900.83	20043
900.95	20202
901.069	20229
901.189	19993
901.308	19704
901.427	19670
901.546	19620
901.665	19491
901.784	19594
901.904	19521
902.023	19407
902.141	19282
902.26	19335
902.379	19289
902.498	19133
902.617	19061
902.735	19209
902.854	19080
902.973	19072
903.091	18913
903.21	18913
903.328	18829
903.446	18810
903.565	18601
903.683	18551
903.801	18433
903.919	18536
904.038	18578
904.156	18418
904.274	18486
904.392	18467
904.51	18475
904.627	18346
904.745	18429
904.863	18452
904.981	18235
905.098	18091
905.216	18087
905.334	18144
905.451	18076
905.569	18076
905.686	18015
905.803	17912
905.921	17809
906.038	17901
906.155	17786
906.272	17767
906.389	17710
906.506	17653
906.623	17566
906.74	17520
906.857	17505
906.974	17543
907.091	17619
907.208	17767
907.324	17589
907.441	17543
907.557	17410
907.674	17379
907.79	17189
907.907	17299
908.023	17311
908.139	17318
908.256	17231
908.372	17299
908.488	17235
908.604	17090
908.72	17048
908.836	17132
908.952	16984
909.068	17025
909.184	17159
909.3	16991
909.415	16968
909.531	16995
909.647	16740
909.762	16740
909.878	16668
909.993	16824
910.108	16744
910.224	16668
910.339	16824
910.454	16615
910.57	16500
910.685	16474
910.8	16679
910.915	16679
911.03	16398
911.145	16329
911.259	16325
911.374	16249
911.489	16306
911.604	16131
911.718	16025
911.833	16181
911.947	16013
912.062	15861
912.176	15945
912.291	15998
912.405	16044
912.519	16154
912.633	16177
912.748	16116
912.862	15987
912.976	15869
913.09	15694
913.204	15797
913.318	15953
913.431	15956
913.545	16032
913.659	15941
913.772	15800
913.886	15667
914	15599
914.113	15770
914.226	15774
914.34	15785
914.453	15515
914.566	15671
914.68	15568
914.793	15477
914.906	15412
915.019	15359
915.132	15336
915.245	15283
915.358	15222
915.47	15283
915.583	15245
915.696	15268
915.809	15344
915.921	15439
916.034	15252
916.146	15104
916.259	15245
916.371	15287
916.483	15222
916.595	15074
916.708	15066
916.82	15104
916.932	15066
917.044	15036
917.156	15013
917.268	15024
917.38	14975
917.491	14872
917.603	15020
917.715	14963
917.826	14921
917.938	14857
918.049	14777
918.161	14826
918.272	15028
918.384	14998
918.495	14910
918.606	14777
918.717	14667
918.828	14659
918.939	14659
919.05	14484
919.161	14598
919.272	14438
919.383	14533
919.494	14705
919.604	14864
919.715	14735
919.826	14518
919.936	14667
920.047	14716
920.157	14594
920.267	14644
920.378	14674
920.488	14556
920.598	14765
920.708	14845
920.818	14670
920.928	14670
921.038	14864
921.148	14864
921.258	14663
921.368	14499
921.477	14351
921.587	14389
921.697	14233
921.806	14393
921.916	14256
922.025	14027
922.134	14012
922.244	13974
922.353	14077
922.462	13879
922.571	13856
922.68	13727
922.789	13674
922.898	13643
923.007	13563
923.116	13658
923.224	13609
923.333	13677
923.442	13480
923.55	13480
923.659	13495
923.767	13537
923.876	13419
923.984	13472
924.092	13339
924.201	13411
924.309	13384
924.417	13301
924.525	13282
924.633	13373
924.741	14069
924.849	13004
924.956	13228
925.064	13110
925.172	13042
925.279	13008
925.387	13050
925.494	13019
925.602	13145
925.709	13099
925.816	13027
925.924	12977
926.031	13103
926.138	13023
926.245	13027
926.352	12901
926.459	13046
926.566	13023
926.673	12932
926.779	12783
926.886	12837
926.993	12730
927.099	12684
927.206	12559
927.312	12585
927.419	12559
927.525	12681
927.631	12738
927.737	12486
927.843	12513
927.95	12285
928.056	12479
928.162	12433
928.267	12448
928.373	13099
928.479	12475
928.585	12372
928.69	12384
928.796	12509
928.901	12243
929.007	12091
929.112	12270
929.218	12247
929.323	12140
929.428	12125
929.533	12277
929.638	12041
929.743	12102
929.848	12152
929.953	12098
930.058	12011
930.163	11783
930.267	11901
930.372	11996
930.477	11855
930.581	12091
930.685	11901
930.79	11691
930.894	11752
930.998	11638
931.103	11802
931.207	11501
931.311	11364
931.415	11220
931.519	11064
931.623	11117
