Data from test_V78500241_1942.txt Node
Date: Fri Mar 25 15:23:22 CST 2022
User: usil
Spectrometer: V785-0024
Trigger mode: 0
Integration Time (sec): 4.000000E-1
Scans to average: 1
Nonlinearity correction enabled: false
Boxcar width: 0
Storing dark spectrum: false
XAxis mode: Wavelengths
Number of Pixels in Spectrum: 1024
>>>>>Begin Spectral Data<<<<<
801.071	27816
801.214	27549
801.356	27416
801.499	27310
801.641	27249
801.783	27226
801.926	27226
802.068	27230
802.211	27085
802.353	27009
802.496	26834
802.638	26826
802.78	26800
802.923	26788
803.065	26731
803.208	26739
803.35	26967
803.492	26914
803.635	27013
803.777	26940
803.919	26933
804.061	27313
804.204	27150
804.346	26910
804.488	26845
804.63	27013
804.773	26876
804.915	27135
805.057	27188
805.199	26925
805.341	27043
805.483	27070
805.626	27184
805.768	26994
805.91	27135
806.052	27199
806.194	27142
806.336	27180
806.478	27112
806.62	27123
806.762	27184
806.904	27435
807.046	27526
807.188	27591
807.33	27504
807.472	27530
807.614	27355
807.756	27553
807.898	27447
808.04	27424
808.182	27169
808.324	27389
808.465	27523
808.607	27568
808.749	27743
808.891	27850
809.033	27873
809.174	27690
809.316	27690
809.458	27660
809.6	27564
809.741	27789
809.883	27827
810.025	27991
810.166	28131
810.308	27983
810.45	27907
810.591	27937
810.733	27663
810.875	27564
811.016	27667
811.158	27606
811.299	27747
811.441	27876
811.582	27766
811.724	27633
811.865	27671
812.007	27732
812.148	27755
812.29	27819
812.431	27827
812.573	27972
812.714	28116
812.855	28166
812.997	28226
813.138	28413
813.279	28451
813.421	28382
813.562	28116
813.703	27983
813.845	27827
813.986	27778
814.127	27572
814.268	27511
814.41	27473
814.551	27435
814.692	27412
814.833	27378
814.974	27382
815.115	27188
815.256	27310
815.397	27344
815.539	27340
815.68	27184
815.821	27104
815.962	27195
816.103	27180
816.244	27131
816.385	26929
816.526	26960
816.666	26849
816.807	26594
816.948	26792
817.089	26887
817.23	26693
817.371	26765
817.512	26781
817.653	26670
817.793	26659
817.934	26606
818.075	26769
818.216	26678
818.356	26659
818.497	26579
818.638	26522
818.778	26351
818.919	26446
819.06	26530
819.2	26473
819.341	26785
819.481	26727
819.622	26769
819.762	27001
819.903	27017
820.043	26982
820.184	26876
820.324	26800
820.465	26849
820.605	26708
820.746	26857
820.886	26598
821.026	26693
821.167	26739
821.307	26781
821.447	26552
821.588	26659
821.728	26499
821.868	26377
822.008	26088
822.149	26161
822.289	26122
822.429	25856
822.569	25750
822.709	25727
822.849	25761
822.99	25586
823.13	25651
823.27	25658
823.41	25540
823.55	25354
823.69	25590
823.83	25460
823.97	25384
824.11	25388
824.25	25312
824.389	25327
824.529	25373
824.669	25209
824.809	25430
824.949	25464
825.089	25426
825.228	25354
825.368	25240
825.508	25255
825.648	25179
825.787	25232
825.927	25198
826.067	25175
826.206	25088
826.346	25266
826.485	25164
826.625	25175
826.765	25301
826.904	25297
827.044	24939
827.183	24878
827.323	24894
827.462	24943
827.601	24924
827.741	24901
827.88	24844
828.02	24829
828.159	24913
828.298	24928
828.437	24913
828.577	24897
828.716	25038
828.855	24852
828.994	24620
829.134	24730
829.273	24612
829.412	24502
829.551	24517
829.69	24616
829.829	24612
829.968	24589
830.107	24703
830.246	24665
830.385	24623
830.524	24589
830.663	24342
830.802	24315
830.941	24285
831.08	24296
831.219	24300
831.357	24399
831.496	24437
831.635	24083
831.774	24159
831.913	24106
832.051	24015
832.19	23904
832.329	24060
832.467	23874
832.606	23855
832.744	23863
832.883	23684
833.022	23737
833.16	23870
833.299	23863
833.437	23935
833.576	24041
833.714	23885
833.852	23988
833.991	23939
834.129	24041
834.267	24018
834.406	23889
834.544	23999
834.682	23977
834.821	23961
834.959	24106
835.097	24007
835.235	23920
835.373	23999
835.511	23904
835.65	23805
835.788	23889
835.926	23551
836.064	23684
836.202	23608
836.34	23874
836.478	23783
836.615	23817
836.753	23775
836.891	23961
837.029	23722
837.167	23699
837.305	23760
837.443	23642
837.58	23745
837.718	23707
837.856	23627
837.993	23562
838.131	23551
838.269	23436
838.406	23505
838.544	23638
838.681	23307
838.819	23170
838.956	23083
839.094	23029
839.231	23128
839.369	23242
839.506	23474
839.643	23356
839.781	23155
839.918	23006
840.055	23197
840.193	23204
840.33	22911
840.467	23094
840.604	23079
840.742	23303
840.879	22885
841.016	22938
841.153	22812
841.29	23181
841.427	23048
841.564	23121
841.701	23006
841.838	22782
841.975	22972
842.112	23044
842.249	22812
842.385	22729
842.522	22946
842.659	22805
842.796	22759
842.933	22885
843.069	22767
843.206	22694
843.343	22820
843.479	22809
843.616	22927
843.752	22577
843.889	22588
844.025	22660
844.162	22683
844.298	22607
844.435	22546
844.571	22451
844.708	22630
844.844	22626
844.98	22698
845.117	22660
845.253	22500
845.389	22470
845.525	22432
845.661	22394
845.798	22265
845.934	22253
846.07	22265
846.206	22291
846.342	22542
846.478	22226
846.614	22021
846.75	22006
846.886	21987
847.022	22147
847.158	22010
847.294	22135
847.429	22120
847.565	21945
847.701	22219
847.837	21732
847.972	21701
848.108	21831
848.244	21789
848.379	21591
848.515	21568
848.65	21530
848.786	21572
848.921	21637
849.057	21686
849.192	21720
849.328	21576
849.463	21637
849.598	21606
849.734	21549
849.869	21454
850.004	21370
850.14	21389
850.275	21420
850.41	21325
850.545	21317
850.68	21317
850.815	21500
850.95	21340
851.085	21504
851.22	21511
851.355	21370
851.49	21249
851.625	21378
851.76	21359
851.895	21348
852.03	21291
852.165	21439
852.299	21447
852.434	21370
852.569	21412
852.703	21340
852.838	21401
852.973	21580
853.107	21485
853.242	21382
853.376	21279
853.511	21093
853.645	21188
853.78	21287
853.914	21207
854.048	21093
854.183	21233
854.317	21256
854.451	21329
854.585	21203
854.72	21119
854.854	21287
854.988	21161
855.122	21142
855.256	20952
855.39	21188
855.524	21245
855.658	21294
855.792	21169
855.926	21252
856.06	21233
856.194	21306
856.327	21180
856.461	21150
856.595	21047
856.729	21173
856.862	21458
856.996	21169
857.13	21245
857.263	21291
857.397	21256
857.53	21272
857.664	21329
857.797	21260
857.931	21302
858.064	21188
858.197	21283
858.331	21146
858.464	21203
858.597	21188
858.731	21211
858.864	21135
858.997	21222
859.13	21199
859.263	21169
859.396	21310
859.529	21176
859.662	21207
859.795	21165
859.928	21207
860.061	21447
860.194	21435
860.327	21188
860.46	21310
860.592	21272
860.725	21428
860.858	21386
860.99	21135
861.123	21131
861.256	21096
861.388	21096
861.521	21835
861.653	21169
861.786	21066
861.918	21142
862.05	21096
862.183	21233
862.315	21154
862.447	21165
862.58	21146
862.712	21020
862.844	20872
862.976	20971
863.108	20933
863.24	21260
863.372	20960
863.504	21020
863.636	20906
863.768	21017
863.9	20933
864.032	20914
864.164	20944
864.296	20960
864.428	20963
864.559	20952
864.691	20857
864.823	20963
864.954	20952
865.086	20876
865.217	20899
865.349	20758
865.48	20689
865.612	20785
865.743	20948
865.875	20899
866.006	20762
866.137	20769
866.269	20758
866.4	20712
866.531	20819
866.662	20648
866.793	20731
866.924	20712
867.055	20758
867.186	20792
867.317	20613
867.448	20598
867.579	20678
867.71	20720
867.841	20674
867.972	20796
868.103	20720
868.233	20739
868.364	20735
868.495	20895
868.625	20925
868.756	21214
868.886	20948
869.017	20990
869.147	21036
869.278	21154
869.408	21013
869.539	21047
869.669	21085
869.799	21112
869.929	21173
870.06	21047
870.19	21275
870.32	21249
870.45	21283
870.58	21401
870.71	21545
870.84	21469
870.97	21386
871.1	21351
871.23	21538
871.36	21686
871.489	21496
871.619	21587
871.749	21648
871.879	21648
872.008	21774
872.138	21698
872.267	21523
872.397	21450
872.526	21374
872.656	21363
872.785	21321
872.915	21736
873.044	21762
873.173	21610
873.303	21705
873.432	21694
873.561	21789
873.69	21580
873.819	21667
873.948	21724
874.077	21720
874.206	21523
874.335	21663
874.464	21755
874.593	21892
874.722	21781
874.851	21926
874.979	21895
875.108	21941
875.237	21827
875.365	21739
875.494	21922
875.623	21922
875.751	21861
875.88	21911
876.008	22044
876.136	22048
876.265	22257
876.393	22352
876.521	22238
876.65	22318
876.778	22375
876.906	22188
877.034	22147
877.162	22223
877.29	22101
877.418	22238
877.546	22188
877.674	22166
877.802	22310
877.93	22318
878.058	22185
878.185	22070
878.313	22200
878.441	22124
878.568	22093
878.696	22295
878.824	22131
878.951	22382
879.079	22261
879.206	22436
879.333	22417
879.461	22268
879.588	22268
879.715	22409
879.842	22516
879.97	22272
880.097	22112
880.224	22025
880.351	22147
880.478	22040
880.605	21873
880.732	22040
880.859	22265
880.986	22097
881.112	22029
881.239	21911
881.366	21808
881.493	21705
881.619	21686
881.746	21679
881.872	21622
881.999	21534
882.125	21660
882.252	21648
882.378	21633
882.505	21698
882.631	21462
882.757	21389
882.883	21431
883.01	21393
883.136	21283
883.262	21142
883.388	21184
883.514	21302
883.64	21458
883.766	21157
883.892	21169
884.018	21199
884.143	21222
884.269	21264
884.395	21036
884.52	20967
884.646	21032
884.772	20819
884.897	21024
885.023	20944
885.148	21066
885.274	21135
885.399	21001
885.524	21005
885.65	20982
885.775	20982
885.9	20994
886.025	21047
886.15	21135
886.275	20990
886.4	20823
886.525	20944
886.65	20864
886.775	20918
886.9	20944
887.025	21157
887.149	20944
887.274	20819
887.399	20788
887.523	20682
887.648	20674
887.773	20689
887.897	20739
888.021	20811
888.146	20743
888.27	20819
888.395	20777
888.519	20800
888.643	20834
888.767	20769
888.891	20617
889.015	20568
889.139	20507
889.263	20526
889.387	20621
889.511	20826
889.635	20640
889.759	20469
889.883	20473
890.006	20469
890.13	20636
890.254	20434
890.377	20389
890.501	20259
890.624	20256
890.748	20309
890.871	20176
890.995	20164
891.118	20103
891.241	20092
891.364	20020
891.488	20244
891.611	20122
891.734	20115
891.857	20164
891.98	20149
892.103	20088
892.226	20024
892.349	20043
892.471	19898
892.594	20039
892.717	20031
892.839	20008
892.962	20039
893.085	20092
893.207	20046
893.33	19845
893.452	19963
893.575	20020
893.697	19989
893.819	20244
893.941	20134
894.064	20119
894.186	20012
894.308	19970
894.43	20111
894.552	20134
894.674	20115
894.796	19860
894.918	20005
895.04	19890
895.161	20092
895.283	20035
895.405	19814
895.526	19936
895.648	20008
895.769	20122
895.891	20001
896.012	20183
896.134	20092
896.255	19989
896.376	20005
896.498	19967
896.619	20050
896.74	20008
896.861	20073
896.982	20221
897.103	20434
897.224	20275
897.345	20187
897.466	20153
897.587	20172
897.708	20225
897.828	20191
897.949	20286
898.07	20035
898.19	20111
898.311	20237
898.431	20122
898.552	20195
898.672	20389
898.792	20278
898.913	20119
899.033	20115
899.153	20081
899.273	19932
899.393	19982
899.513	20069
899.633	20008
899.753	19989
899.873	19883
899.993	20001
900.113	20012
900.232	19879
900.352	19959
900.472	19765
900.591	19734
900.711	19655
900.83	19639
900.95	19784
901.069	19784
901.189	19655
901.308	19422
901.427	19426
901.546	19426
901.665	19339
901.784	19392
901.904	19069
902.023	19099
902.141	18878
902.26	18867
902.379	19099
902.498	18989
902.617	18749
902.735	18901
902.854	18791
902.973	18772
903.091	18517
903.21	18544
903.328	18578
903.446	18471
903.565	18380
903.683	18388
903.801	18251
903.919	18315
904.038	18243
904.156	18083
904.274	18155
904.392	18171
904.51	17935
904.627	18034
904.745	18091
904.863	18247
904.981	17885
905.098	17859
905.216	17798
905.334	17798
905.451	17710
905.569	17802
905.686	17695
905.803	17684
905.921	17672
906.038	17680
906.155	17668
906.272	17417
906.389	17459
906.506	17345
906.623	17159
906.74	17330
906.857	17147
906.974	17212
907.091	17318
907.208	17440
907.324	17303
907.441	17204
907.557	17045
907.674	16949
907.79	16980
907.907	16999
908.023	16911
908.139	17045
908.256	17029
908.372	16869
908.488	16854
908.604	16930
908.72	16748
908.836	16862
908.952	16649
909.068	16679
909.184	16801
909.3	16717
909.415	16790
909.531	16664
909.647	16493
909.762	16413
909.878	16497
909.993	16497
910.108	16405
910.224	16455
910.339	16485
910.454	16303
910.57	16261
910.685	16181
910.8	16516
910.915	16398
911.03	16257
911.145	16109
911.259	16044
911.374	16010
911.489	15895
911.604	15945
911.718	15854
911.833	15778
911.947	15701
912.062	15587
912.176	15713
912.291	15785
912.405	15709
912.519	15953
912.633	15975
912.748	15789
912.862	15743
912.976	15682
913.09	15507
913.204	15622
913.318	15701
913.431	15667
913.545	15728
913.659	15622
913.772	15542
913.886	15450
914	15397
914.113	15454
914.226	15435
914.34	15504
914.453	15291
914.566	15435
914.68	15279
914.793	15252
914.906	15074
915.019	15024
915.132	14887
915.245	14910
915.358	15020
915.47	15028
915.583	15028
915.696	14971
915.809	15077
915.921	15089
916.034	14971
916.146	14838
916.259	14883
916.371	15058
916.483	14960
916.595	14906
916.708	14819
916.82	14864
916.932	14762
917.044	14880
917.156	14731
917.268	14686
917.38	14769
917.491	14613
917.603	14735
917.715	14720
917.826	14712
917.938	14636
918.049	14526
918.161	14629
918.272	14857
918.384	14834
918.495	14602
918.606	14492
918.717	14396
918.828	14400
918.939	14442
919.05	14324
919.161	14404
919.272	14240
919.383	14309
919.494	14530
919.604	14579
919.715	14473
919.826	14218
919.936	14332
920.047	14465
920.157	14522
920.267	14594
920.378	14419
920.488	14317
920.598	14552
920.708	14743
920.818	14438
920.928	14446
921.038	14697
921.148	14632
921.258	14358
921.368	14301
921.477	14168
921.587	14050
921.697	14020
921.806	14130
921.916	14008
922.025	13837
922.134	13818
922.244	13719
922.353	13769
922.462	13731
922.571	13559
922.68	13438
922.789	13373
922.898	13559
923.007	13346
923.116	13350
923.224	13419
923.333	13373
923.442	13244
923.55	13301
923.659	13209
923.767	13320
923.876	13282
923.984	13312
924.092	13183
924.201	13156
924.309	13228
924.417	13190
924.525	13057
924.633	13122
924.741	13947
924.849	12932
924.956	12985
925.064	12798
925.172	12810
925.279	12886
925.387	12897
925.494	12920
925.602	12928
925.709	12970
925.816	12764
925.924	12802
926.031	12791
926.138	12798
926.245	12806
926.352	12673
926.459	12779
926.566	12810
926.673	12734
926.779	12623
926.886	12631
926.993	12376
927.099	12456
927.206	12391
927.312	12342
927.419	12471
927.525	12319
927.631	12475
927.737	12254
927.843	12235
927.95	12144
928.056	12224
928.162	12232
928.267	12205
928.373	12730
928.479	12285
928.585	12091
928.69	12182
928.796	12144
928.901	12152
929.007	11999
929.112	12087
929.218	11980
929.323	11923
929.428	11931
929.533	12083
929.638	11916
929.743	11882
929.848	11927
929.953	11893
930.058	11802
930.163	11642
930.267	11672
930.372	11824
930.477	11573
930.581	11760
930.685	11653
930.79	11482
930.894	11581
930.998	11581
931.103	11573
931.207	11265
931.311	11189
931.415	11113
931.519	10908
931.623	10915
