Data from test_V78500241_3414.txt Node
Date: Fri Mar 25 15:33:38 CST 2022
User: usil
Spectrometer: V785-0024
Trigger mode: 0
Integration Time (sec): 4.000000E-1
Scans to average: 1
Nonlinearity correction enabled: false
Boxcar width: 0
Storing dark spectrum: false
XAxis mode: Wavelengths
Number of Pixels in Spectrum: 1024
>>>>>Begin Spectral Data<<<<<
801.071	27374
801.214	27119
801.356	27036
801.499	26895
801.641	26823
801.783	26830
801.926	26750
802.068	26845
802.211	26826
802.353	26678
802.496	26530
802.638	26598
802.78	26324
802.923	26259
803.065	26259
803.208	26298
803.35	26385
803.492	26503
803.635	26571
803.777	26305
803.919	26514
804.061	26758
804.204	26674
804.346	26625
804.488	26511
804.63	26765
804.773	26507
804.915	26644
805.057	26651
805.199	26469
805.341	26705
805.483	26590
805.626	26571
805.768	26651
805.91	26648
806.052	26712
806.194	26560
806.336	26804
806.478	26720
806.62	26556
806.762	26746
806.904	27009
807.046	27237
807.188	27055
807.33	27089
807.472	27214
807.614	27070
807.756	27150
807.898	26902
808.04	26823
808.182	26765
808.324	27017
808.465	26967
808.607	27275
808.749	27279
808.891	27264
809.033	27492
809.174	27431
809.316	27291
809.458	27184
809.6	27226
809.741	27401
809.883	27473
810.025	27572
810.166	27538
810.308	27595
810.45	27553
810.591	27545
810.733	27317
810.875	27386
811.016	27123
811.158	27214
811.299	27355
811.441	27370
811.582	27439
811.724	27230
811.865	27275
812.007	27165
812.148	27150
812.29	27351
812.431	27530
812.573	27576
812.714	27652
812.855	27785
812.997	27838
813.138	28063
813.279	27808
813.421	27713
813.562	27762
813.703	27599
813.845	27534
813.986	27135
814.127	26990
814.268	26960
814.41	26979
814.551	27024
814.692	27024
814.833	26826
814.974	26906
815.115	26933
815.256	26807
815.397	26845
815.539	26773
815.68	26762
815.821	26552
815.962	26792
816.103	26659
816.244	26640
816.385	26530
816.526	26488
816.666	26419
816.807	26145
816.948	26218
817.089	26248
817.23	26161
817.371	26195
817.512	26240
817.653	26267
817.793	26077
817.934	26195
818.075	26180
818.216	26187
818.356	26168
818.497	25963
818.638	25822
818.778	25917
818.919	25879
819.06	25951
819.2	26088
819.341	26138
819.481	26259
819.622	26259
819.762	26457
819.903	26332
820.043	26419
820.184	26240
820.324	26313
820.465	26362
820.605	26252
820.746	26221
820.886	26073
821.026	26210
821.167	26229
821.307	26199
821.447	26176
821.588	26180
821.728	25887
821.868	25822
822.008	25734
822.149	25548
822.289	25628
822.429	25392
822.569	25259
822.709	25392
822.849	25217
822.99	25240
823.13	25228
823.27	25114
823.41	25080
823.55	24833
823.69	24886
823.83	24985
823.97	24795
824.11	24753
824.25	24768
824.389	24814
824.529	24871
824.669	24821
824.809	24817
824.949	24894
825.089	24859
825.228	24875
825.368	24745
825.508	24669
825.648	24608
825.787	24677
825.927	24875
826.067	24684
826.206	24635
826.346	24631
826.485	24715
826.625	24650
826.765	24798
826.904	24639
827.044	24441
827.183	24437
827.323	24372
827.462	24441
827.601	24471
827.741	24327
827.88	24251
828.02	24213
828.159	24350
828.298	24342
828.437	24536
828.577	24380
828.716	24353
828.855	24228
828.994	24106
829.134	24041
829.273	24102
829.412	24015
829.551	24068
829.69	24136
829.829	24038
829.968	24224
830.107	24114
830.246	24117
830.385	24068
830.524	23958
830.663	23897
830.802	23870
830.941	23710
831.08	23718
831.219	23805
831.357	23710
831.496	23973
831.635	23642
831.774	23551
831.913	23619
832.051	23543
832.19	23448
832.329	23547
832.467	23372
832.606	23311
832.744	23315
832.883	23490
833.022	23372
833.16	23303
833.299	23459
833.437	23455
833.576	23509
833.714	23417
833.852	23398
833.991	23539
834.129	23566
834.267	23581
834.406	23436
834.544	23490
834.682	23452
834.821	23440
834.959	23661
835.097	23303
835.235	23531
835.373	23562
835.511	23387
835.65	23250
835.788	23284
835.926	23242
836.064	23280
836.202	23079
836.34	23254
836.478	23459
836.615	23239
836.753	23299
836.891	23425
837.029	23296
837.167	23212
837.305	23162
837.443	23216
837.58	23117
837.718	23212
837.856	23265
837.993	23170
838.131	23166
838.269	23056
838.406	23067
838.544	23006
838.681	22767
838.819	22740
838.956	22706
839.094	22649
839.231	22691
839.369	22885
839.506	23064
839.643	22847
839.781	22767
839.918	22398
840.055	22584
840.193	22672
840.33	22626
840.467	22538
840.604	22569
840.742	22873
840.879	22333
841.016	22527
841.153	22474
841.29	22675
841.427	22527
841.564	22523
841.701	22508
841.838	22512
841.975	22474
842.112	22474
842.249	22443
842.385	22447
842.522	22592
842.659	22409
842.796	22226
842.933	22303
843.069	22253
843.206	22230
843.343	22436
843.479	22303
843.616	22386
843.752	22154
843.889	22097
844.025	22253
844.162	22090
844.298	22154
844.435	22067
844.571	22051
844.708	22162
844.844	22249
844.98	22234
845.117	22226
845.253	21964
845.389	21960
845.525	21930
845.661	22051
845.798	21918
845.934	21880
846.07	21808
846.206	21724
846.342	21899
846.478	21884
846.614	21637
846.75	21492
846.886	21614
847.022	21648
847.158	21599
847.294	21587
847.429	21679
847.565	21663
847.701	21804
847.837	21329
847.972	21214
848.108	21302
848.244	21340
848.379	21260
848.515	21161
848.65	21222
848.786	21195
848.921	21142
849.057	21222
849.192	21283
849.328	21256
849.463	21184
849.598	21138
849.734	21077
849.869	21058
850.004	20933
850.14	21055
850.275	20994
850.41	20720
850.545	20902
850.68	20815
850.815	20937
850.95	21043
851.085	21074
851.22	21028
851.355	21032
851.49	20906
851.625	20918
851.76	20967
851.895	20994
852.03	20918
852.165	21020
852.299	20986
852.434	20967
852.569	20948
852.703	20918
852.838	20861
852.973	20914
853.107	21017
853.242	20906
853.376	20857
853.511	20682
853.645	20785
853.78	20891
853.914	20701
854.048	20712
854.183	20689
854.317	20800
854.451	20883
854.585	20746
854.72	20746
854.854	20902
854.988	20613
855.122	20689
855.256	20594
855.39	20746
855.524	20731
855.658	20689
855.792	20731
855.926	20773
856.06	20731
856.194	20838
856.327	20819
856.461	20781
856.595	20617
856.729	20731
856.862	20921
856.996	20739
857.13	20838
857.263	20823
857.397	20815
857.53	20705
857.664	20826
857.797	20739
857.931	20937
858.064	20845
858.197	20925
858.331	20724
858.464	20693
858.597	20651
858.731	20902
858.864	20705
858.997	20739
859.13	20925
859.263	20765
859.396	20845
859.529	20712
859.662	20826
859.795	20788
859.928	20777
860.061	20979
860.194	21009
860.327	20887
860.46	20746
860.592	20842
860.725	20861
860.858	20902
860.99	20762
861.123	20670
861.256	20781
861.388	20697
861.521	21458
861.653	20686
861.786	20522
861.918	20609
862.05	20693
862.183	20716
862.315	20727
862.447	20731
862.58	20579
862.712	20423
862.844	20423
862.976	20488
863.108	20476
863.24	20960
863.372	20434
863.504	20514
863.636	20438
863.768	20450
863.9	20415
864.032	20427
864.164	20473
864.296	20499
864.428	20587
864.559	20598
864.691	20484
864.823	20492
864.954	20454
865.086	20465
865.217	20442
865.349	20233
865.48	20446
865.612	20480
865.743	20480
865.875	20358
866.006	20366
866.137	20419
866.269	20301
866.4	20370
866.531	20324
866.662	20366
866.793	20271
866.924	20358
867.055	20355
867.186	20256
867.317	20317
867.448	20130
867.579	20298
867.71	20157
867.841	20256
867.972	20339
868.103	20324
868.233	20324
868.364	20218
868.495	20393
868.625	20495
868.756	20598
868.886	20446
869.017	20461
869.147	20526
869.278	20640
869.408	20454
869.539	20560
869.669	20590
869.799	20602
869.929	20777
870.06	20796
870.19	20849
870.32	20758
870.45	20872
870.58	20906
870.71	20960
870.84	20975
870.97	20994
871.1	20967
871.23	21138
871.36	21142
871.489	21058
871.619	21116
871.749	21226
871.879	21218
872.008	21294
872.138	21176
872.267	21176
872.397	21020
872.526	20941
872.656	20937
872.785	21058
872.915	21070
873.044	21283
873.173	21081
873.303	21180
873.432	21165
873.561	21264
873.69	21264
873.819	21123
873.948	21268
874.077	21283
874.206	21119
874.335	21226
874.464	21291
874.593	21359
874.722	21272
874.851	21405
874.979	21321
875.108	21355
875.237	21450
875.365	21405
875.494	21435
875.623	21549
875.751	21488
875.88	21496
876.008	21580
876.136	21553
876.265	21793
876.393	21979
876.521	21934
876.65	21854
876.778	21694
876.906	21641
877.034	21880
877.162	21781
877.29	21759
877.418	21766
877.546	21793
877.674	21789
877.802	21903
877.93	21701
878.058	21785
878.185	21827
878.313	21682
878.441	21717
878.568	21644
878.696	21778
878.824	21884
878.951	21850
879.079	22059
879.206	22055
879.333	21892
879.461	21850
879.588	21812
879.715	21994
879.842	22067
879.97	21846
880.097	21606
880.224	21618
880.351	21622
880.478	21644
880.605	21549
880.732	21610
880.859	21850
880.986	21504
881.112	21568
881.239	21606
881.366	21367
881.493	21268
881.619	21302
881.746	21199
881.872	21336
881.999	21062
882.125	21211
882.252	21272
882.378	21100
882.505	21249
882.631	20994
882.757	20921
882.883	20952
883.01	20918
883.136	20830
883.262	20800
883.388	20819
883.514	20986
883.64	21062
883.766	20895
883.892	20785
884.018	20724
884.143	20960
884.269	20994
884.395	20598
884.52	20594
884.646	20602
884.772	20469
884.897	20629
885.023	20617
885.148	20724
885.274	20849
885.399	20655
885.524	20560
885.65	20632
885.775	20469
885.9	20514
886.025	20712
886.15	20644
886.275	20488
886.4	20396
886.525	20530
886.65	20492
886.775	20454
886.9	20720
887.025	20727
887.149	20594
887.274	20339
887.399	20381
887.523	20332
887.648	20271
887.773	20339
887.897	20374
888.021	20305
888.146	20290
888.27	20343
888.395	20442
888.519	20286
888.643	20419
888.767	20298
888.891	20259
889.015	20100
889.139	20180
889.263	20081
889.387	20313
889.511	20366
889.635	20199
889.759	20195
889.883	20256
890.006	20164
890.13	20157
890.254	20092
890.377	20039
890.501	19890
890.624	19928
890.748	19887
890.871	19772
890.995	19685
891.118	19647
891.241	19795
891.364	19772
891.488	19761
891.611	19731
891.734	19780
891.857	19677
891.98	19734
892.103	19719
892.226	19719
892.349	19677
892.471	19613
892.594	19635
892.717	19632
892.839	19624
892.962	19670
893.085	19696
893.207	19643
893.33	19521
893.452	19480
893.575	19776
893.697	19651
893.819	19715
893.941	19769
894.064	19693
894.186	19506
894.308	19708
894.43	19784
894.552	19746
894.674	19772
894.796	19590
894.918	19655
895.04	19651
895.161	19830
895.283	19700
895.405	19563
895.526	19597
895.648	19571
895.769	19635
895.891	19597
896.012	19708
896.134	19738
896.255	19632
896.376	19647
896.498	19601
896.619	19712
896.74	19689
896.861	19620
896.982	19978
897.103	20111
897.224	19955
897.345	19883
897.466	19856
897.587	19738
897.708	19986
897.828	19951
897.949	19753
898.07	19597
898.19	19822
898.311	19909
898.431	19818
898.552	19830
898.672	19982
898.792	19997
898.913	19864
899.033	19830
899.153	19772
899.273	19643
899.393	19552
899.513	19643
899.633	19639
899.753	19635
899.873	19525
899.993	19571
900.113	19613
900.232	19601
900.352	19613
900.472	19422
900.591	19327
900.711	19460
900.83	19346
900.95	19540
901.069	19464
901.189	19308
901.308	19080
901.427	18928
901.546	18928
901.665	18951
901.784	19046
901.904	18844
902.023	18703
902.141	18471
902.26	18429
902.379	18578
902.498	18597
902.617	18418
902.735	18593
902.854	18448
902.973	18296
903.091	18285
903.21	18133
903.328	18254
903.446	18117
903.565	18011
903.683	18053
903.801	17946
903.919	17893
904.038	17920
904.156	17733
904.274	17821
904.392	17680
904.51	17832
904.627	17813
904.745	17805
904.863	17775
904.981	17497
905.098	17376
905.216	17402
905.334	17501
905.451	17493
905.569	17414
905.686	17459
905.803	17433
905.921	17178
906.038	17326
906.155	17307
906.272	17113
906.389	17102
906.506	17033
906.623	16957
906.74	16927
906.857	16881
906.974	16809
907.091	17048
907.208	17086
907.324	17010
907.441	16866
907.557	16774
907.674	16767
907.79	16729
907.907	16755
908.023	16706
908.139	16691
908.256	16626
908.372	16622
908.488	16531
908.604	16554
908.72	16489
908.836	16333
908.952	16470
909.068	16504
909.184	16596
909.3	16455
909.415	16497
909.531	16360
909.647	16295
909.762	15994
909.878	15934
909.993	16173
910.108	16109
910.224	16044
910.339	16181
910.454	15987
910.57	15880
910.685	15975
910.8	16154
910.915	16090
911.03	15842
911.145	15850
911.259	15755
911.374	15713
911.489	15667
911.604	15584
911.718	15557
911.833	15507
911.947	15401
912.062	15447
912.176	15511
912.291	15530
912.405	15450
912.519	15622
912.633	15633
912.748	15519
912.862	15523
912.976	15378
913.09	15138
913.204	15195
913.318	15397
913.431	15397
913.545	15386
913.659	15340
913.772	15169
913.886	15233
914	15100
914.113	15108
914.226	15260
914.34	15264
914.453	14956
914.566	15138
914.68	14986
914.793	14982
914.906	14796
915.019	14705
915.132	14663
915.245	14716
915.358	14773
915.47	14731
915.583	14720
915.696	14689
915.809	14815
915.921	14815
916.034	14693
916.146	14648
916.259	14602
916.371	14765
916.483	14674
916.595	14598
916.708	14503
916.82	14533
916.932	14507
917.044	14606
917.156	14549
917.268	14476
917.38	14358
917.491	14355
917.603	14374
917.715	14492
917.826	14465
917.938	14389
918.049	14263
918.161	14275
918.272	14499
918.384	14507
918.495	14396
918.606	14149
918.717	14210
918.828	14229
918.939	14229
919.05	14008
919.161	14142
919.272	13890
919.383	14020
919.494	14176
919.604	14423
919.715	14145
919.826	14149
919.936	14027
920.047	14164
920.157	14187
920.267	14313
920.378	14168
920.488	14081
920.598	14347
920.708	14476
920.818	14298
920.928	14256
921.038	14476
921.148	14431
921.258	14039
921.368	14088
921.477	13849
921.587	13856
921.697	13670
921.806	13852
921.916	13788
922.025	13559
922.134	13578
922.244	13468
922.353	13594
922.462	13434
922.571	13274
922.68	13236
922.789	13213
922.898	13149
923.007	13149
923.116	13152
923.224	13091
923.333	13118
923.442	13099
923.55	12916
923.659	13004
923.767	13038
923.876	13015
923.984	13012
924.092	12924
924.201	12878
924.309	12977
924.417	12996
924.525	12863
924.633	12859
924.741	13856
924.849	12700
924.956	12760
925.064	12654
925.172	12517
925.279	12654
925.387	12646
925.494	12616
925.602	12673
925.709	12627
925.816	12593
925.924	12479
926.031	12623
926.138	12585
926.245	12582
926.352	12498
926.459	12544
926.566	12582
926.673	12471
926.779	12350
926.886	12380
926.993	12201
927.099	12144
927.206	12140
927.312	12152
927.419	12251
927.525	12235
927.631	12213
927.737	12026
927.843	11996
927.95	11958
928.056	12053
928.162	11942
928.267	12030
928.373	12506
928.479	12110
928.585	11809
928.69	12068
928.796	12064
928.901	11866
929.007	11760
929.112	11927
929.218	11813
929.323	11832
929.428	11794
929.533	11863
929.638	11726
929.743	11729
929.848	11775
929.953	11752
930.058	11543
930.163	11406
930.267	11520
930.372	11630
930.477	11395
930.581	11634
930.685	11543
930.79	11292
930.894	11429
930.998	11261
931.103	11528
931.207	11037
931.311	11086
931.415	10976
931.519	10687
931.623	10793
