Data from test_V78500241_3352.txt Node
Date: Fri Mar 25 15:33:12 CST 2022
User: usil
Spectrometer: V785-0024
Trigger mode: 0
Integration Time (sec): 4.000000E-1
Scans to average: 1
Nonlinearity correction enabled: false
Boxcar width: 0
Storing dark spectrum: false
XAxis mode: Wavelengths
Number of Pixels in Spectrum: 1024
>>>>>Begin Spectral Data<<<<<
801.071	27154
801.214	27112
801.356	26906
801.499	26773
801.641	26720
801.783	26781
801.926	26724
802.068	26762
802.211	26514
802.353	26484
802.496	26453
802.638	26305
802.78	26237
802.923	26115
803.065	26054
803.208	26259
803.35	26324
803.492	26332
803.635	26423
803.777	26294
803.919	26530
804.061	26689
804.204	26480
804.346	26347
804.488	26488
804.63	26431
804.773	26313
804.915	26453
805.057	26590
805.199	26301
805.341	26400
805.483	26518
805.626	26457
805.768	26408
805.91	26488
806.052	26461
806.194	26370
806.336	26708
806.478	26526
806.62	26499
806.762	26530
806.904	26731
807.046	26971
807.188	26895
807.33	26929
807.472	26998
807.614	26807
807.756	26849
807.898	26861
808.04	26750
808.182	26731
808.324	26727
808.465	26811
808.607	26933
808.749	27074
808.891	27279
809.033	27454
809.174	27146
809.316	27066
809.458	26990
809.6	26990
809.741	27123
809.883	27176
810.025	27321
810.166	27401
810.308	27511
810.45	27408
810.591	27363
810.733	27146
810.875	27077
811.016	26994
811.158	27077
811.299	27249
811.441	27241
811.582	27302
811.724	27009
811.865	26971
812.007	27043
812.148	27093
812.29	27138
812.431	27150
812.573	27424
812.714	27462
812.855	27416
812.997	27515
813.138	27698
813.279	27690
813.421	27557
813.562	27408
813.703	27473
813.845	27222
813.986	26929
814.127	26781
814.268	26712
814.41	26648
814.551	26712
814.692	26792
814.833	26609
814.974	26834
815.115	26689
815.256	26697
815.397	26629
815.539	26632
815.68	26602
815.821	26503
815.962	26705
816.103	26446
816.244	26320
816.385	26142
816.526	26172
816.666	26240
816.807	25982
816.948	26035
817.089	26199
817.23	26202
817.371	26046
817.512	26031
817.653	26001
817.793	25879
817.934	26050
818.075	25993
818.216	26084
818.356	26039
818.497	25795
818.638	25837
818.778	25647
818.919	25833
819.06	25750
819.2	25982
819.341	25913
819.481	26073
819.622	26122
819.762	26431
819.903	26324
820.043	26195
820.184	26096
820.324	26043
820.465	26176
820.605	26195
820.746	26115
820.886	25955
821.026	26046
821.167	26035
821.307	26084
821.447	26012
821.588	26005
821.728	25791
821.868	25681
822.008	25487
822.149	25479
822.289	25476
822.429	25171
822.569	25187
822.709	25046
822.849	24932
822.99	24977
823.13	25023
823.27	24875
823.41	24749
823.55	24715
823.69	24787
823.83	24764
823.97	24738
824.11	24623
824.25	24593
824.389	24639
824.529	24745
824.669	24574
824.809	24639
824.949	24692
825.089	24563
825.228	24589
825.368	24399
825.508	24369
825.648	24460
825.787	24422
825.927	24540
826.067	24418
826.206	24311
826.346	24414
826.485	24467
826.625	24521
826.765	24563
826.904	24502
827.044	24277
827.183	24346
827.323	24083
827.462	24266
827.601	24224
827.741	24159
827.88	24155
828.02	24106
828.159	24053
828.298	24209
828.437	24262
828.577	24095
828.716	24216
828.855	24057
828.994	23908
829.134	23855
829.273	23923
829.412	23840
829.551	23843
829.69	23889
829.829	23973
829.968	23908
830.107	23961
830.246	24045
830.385	23729
830.524	23859
830.663	23779
830.802	23619
830.941	23558
831.08	23402
831.219	23695
831.357	23680
831.496	23748
831.635	23524
831.774	23345
831.913	23421
832.051	23303
832.19	23143
832.329	23223
832.467	23204
832.606	23208
832.744	23197
832.883	23140
833.022	23109
833.16	23155
833.299	23197
833.437	23277
833.576	23273
833.714	23326
833.852	23315
833.991	23208
834.129	23467
834.267	23231
834.406	23269
834.544	23288
834.682	23273
834.821	23311
834.959	23455
835.097	23189
835.235	23258
835.373	23372
835.511	23265
835.65	23113
835.788	23052
835.926	22999
836.064	22923
836.202	22839
836.34	23170
836.478	23231
836.615	23124
836.753	22984
836.891	23166
837.029	23189
837.167	22984
837.305	23056
837.443	22949
837.58	23117
837.718	23010
837.856	22991
837.993	22965
838.131	23018
838.269	22763
838.406	22915
838.544	22809
838.681	22592
838.819	22622
838.956	22402
839.094	22577
839.231	22512
839.369	22649
839.506	22900
839.643	22653
839.781	22440
839.918	22409
840.055	22516
840.193	22394
840.33	22535
840.467	22371
840.604	22504
840.742	22531
840.879	22253
841.016	22223
841.153	22230
841.29	22554
841.427	22265
841.564	22417
841.701	22337
841.838	22322
841.975	22154
842.112	22333
842.249	22261
842.385	22230
842.522	22478
842.659	22268
842.796	22166
842.933	22078
843.069	22147
843.206	22055
843.343	22211
843.479	22158
843.616	22188
843.752	21956
843.889	21972
844.025	21880
844.162	21895
844.298	22017
844.435	21793
844.571	21854
844.708	21926
844.844	22002
844.98	22109
845.117	22032
845.253	21686
845.389	21743
845.525	21827
845.661	21755
845.798	21667
845.934	21690
846.07	21606
846.206	21701
846.342	21690
846.478	21625
846.614	21466
846.75	21405
846.886	21397
847.022	21416
847.158	21389
847.294	21389
847.429	21401
847.565	21325
847.701	21641
847.837	21230
847.972	21066
848.108	21226
848.244	21249
848.379	20975
848.515	21032
848.65	20971
848.786	21100
848.921	21066
849.057	21058
849.192	20990
849.328	20971
849.463	20925
849.598	20906
849.734	20796
849.869	20918
850.004	20750
850.14	20819
850.275	20701
850.41	20693
850.545	20644
850.68	20686
850.815	20735
850.95	20758
851.085	20937
851.22	20891
851.355	20773
851.49	20788
851.625	20663
851.76	20651
851.895	20750
852.03	20651
852.165	20792
852.299	20853
852.434	20830
852.569	20864
852.703	20792
852.838	20800
852.973	20883
853.107	20826
853.242	20746
853.376	20564
853.511	20522
853.645	20484
853.78	20724
853.914	20625
854.048	20476
854.183	20598
854.317	20613
854.451	20845
854.585	20613
854.72	20686
854.854	20651
854.988	20526
855.122	20644
855.256	20533
855.39	20579
855.524	20804
855.658	20625
855.792	20594
855.926	20609
856.06	20560
856.194	20674
856.327	20629
856.461	20438
856.595	20476
856.729	20450
856.862	20735
856.996	20598
857.13	20739
857.263	20636
857.397	20670
857.53	20625
857.664	20609
857.797	20735
857.931	20636
858.064	20602
858.197	20613
858.331	20503
858.464	20526
858.597	20442
858.731	20518
858.864	20526
858.997	20495
859.13	20571
859.263	20499
859.396	20701
859.529	20701
859.662	20712
859.795	20530
859.928	20560
860.061	20773
860.194	20800
860.327	20640
860.46	20583
860.592	20670
860.725	20739
860.858	20788
860.99	20632
861.123	20564
861.256	20564
861.388	20629
861.521	21310
861.653	20355
861.786	20484
861.918	20381
862.05	20636
862.183	20560
862.315	20590
862.447	20625
862.58	20503
862.712	20370
862.844	20248
862.976	20438
863.108	20347
863.24	20819
863.372	20267
863.504	20332
863.636	20298
863.768	20358
863.9	20415
864.032	20168
864.164	20313
864.296	20355
864.428	20457
864.559	20450
864.691	20339
864.823	20309
864.954	20225
865.086	20282
865.217	20233
865.349	20145
865.48	20233
865.612	20195
865.743	20393
865.875	20187
866.006	20298
866.137	20320
866.269	20164
866.4	20282
866.531	20180
866.662	20157
866.793	20103
866.924	20164
867.055	20122
867.186	20187
867.317	20119
867.448	20016
867.579	20119
867.71	20142
867.841	20164
867.972	20130
868.103	20195
868.233	20157
868.364	20134
868.495	20218
868.625	20358
868.756	20537
868.886	20400
869.017	20336
869.147	20469
869.278	20533
869.408	20488
869.539	20393
869.669	20423
869.799	20419
869.929	20621
870.06	20427
870.19	20674
870.32	20594
870.45	20678
870.58	20819
870.71	20792
870.84	20883
870.97	20899
871.1	20724
871.23	21009
871.36	20952
871.489	20918
871.619	20986
871.749	20929
871.879	21135
872.008	21039
872.138	21085
872.267	20990
872.397	20906
872.526	20971
872.656	20830
872.785	20792
872.915	20990
873.044	21089
873.173	20986
873.303	21154
873.432	21108
873.561	21138
873.69	21020
873.819	20952
873.948	21081
874.077	21001
874.206	20952
874.335	21077
874.464	21157
874.593	21291
874.722	21245
874.851	21344
874.979	21268
875.108	21378
875.237	21211
875.365	21222
875.494	21256
875.623	21405
875.751	21222
875.88	21313
876.008	21447
876.136	21367
876.265	21671
876.393	21789
876.521	21736
876.65	21736
876.778	21656
876.906	21625
877.034	21622
877.162	21652
877.29	21583
877.418	21633
877.546	21732
877.674	21694
877.802	21618
877.93	21652
878.058	21686
878.185	21545
878.313	21622
878.441	21720
878.568	21511
878.696	21481
878.824	21724
878.951	21759
879.079	21892
879.206	21854
879.333	21728
879.461	21739
879.588	21751
879.715	21812
879.842	21926
879.97	21660
880.097	21496
880.224	21435
880.351	21435
880.478	21462
880.605	21443
880.732	21545
880.859	21709
880.986	21386
881.112	21443
881.239	21344
881.366	21169
881.493	21093
881.619	21070
881.746	21062
881.872	21039
881.999	21085
882.125	20952
882.252	21047
882.378	20952
882.505	21161
882.631	20956
882.757	20682
882.883	20830
883.01	20705
883.136	20727
883.262	20693
883.388	20549
883.514	20807
883.64	20651
883.766	20708
883.892	20408
884.018	20530
884.143	20674
884.269	20720
884.395	20499
884.52	20442
884.646	20442
884.772	20358
884.897	20271
885.023	20454
885.148	20530
885.274	20617
885.399	20511
885.524	20374
885.65	20434
885.775	20503
885.9	20366
886.025	20476
886.15	20492
886.275	20465
886.4	20336
886.525	20423
886.65	20374
886.775	20355
886.9	20434
887.025	20522
887.149	20400
887.274	20111
887.399	20058
887.523	20180
887.648	20145
887.773	20054
887.897	20221
888.021	20233
888.146	20088
888.27	20301
888.395	20267
888.519	20225
888.643	20256
888.767	20263
888.891	20092
889.015	19989
889.139	20111
889.263	20027
889.387	20050
889.511	20111
889.635	20001
889.759	20012
889.883	19974
890.006	19963
890.13	20115
890.254	19883
890.377	19864
890.501	19799
890.624	19715
890.748	19784
890.871	19521
890.995	19586
891.118	19502
891.241	19525
891.364	19597
891.488	19582
891.611	19594
891.734	19575
891.857	19799
891.98	19597
892.103	19605
892.226	19468
892.349	19495
892.471	19244
892.594	19445
892.717	19491
892.839	19499
892.962	19438
893.085	19567
893.207	19346
893.33	19419
893.452	19293
893.575	19480
893.697	19449
893.819	19655
893.941	19635
894.064	19639
894.186	19343
894.308	19430
894.43	19601
894.552	19628
894.674	19575
894.796	19464
894.918	19441
895.04	19445
895.161	19597
895.283	19460
895.405	19419
895.526	19476
895.648	19518
895.769	19537
895.891	19487
896.012	19460
896.134	19491
896.255	19453
896.376	19468
896.498	19502
896.619	19457
896.74	19430
896.861	19491
896.982	19772
897.103	19887
897.224	19662
897.345	19635
897.466	19681
897.587	19791
897.708	19757
897.828	19799
897.949	19742
898.07	19476
898.19	19624
898.311	19841
898.431	19601
898.552	19727
898.672	19742
898.792	19647
898.913	19753
899.033	19590
899.153	19472
899.273	19472
899.393	19468
899.513	19525
899.633	19415
899.753	19537
899.873	19419
899.993	19415
900.113	19521
900.232	19518
900.352	19426
900.472	19301
900.591	19312
900.711	19327
900.83	19244
900.95	19346
901.069	19354
901.189	19122
901.308	18867
901.427	18894
901.546	18840
901.665	18817
901.784	18856
901.904	18772
902.023	18681
902.141	18479
902.26	18334
902.379	18441
902.498	18414
902.617	18353
902.735	18437
902.854	18258
902.973	18330
903.091	18102
903.21	18106
903.328	18007
903.446	17961
903.565	17866
903.683	17908
903.801	17840
903.919	17752
904.038	17809
904.156	17668
904.274	17653
904.392	17562
904.51	17577
904.627	17646
904.745	17764
904.863	17687
904.981	17448
905.098	17334
905.216	17277
905.334	17334
905.451	17341
905.569	17242
905.686	17353
905.803	17292
905.921	17178
906.038	17147
906.155	17086
906.272	17022
906.389	17014
906.506	16889
906.623	16873
906.74	16801
906.857	16820
906.974	16706
907.091	17003
907.208	16862
907.324	16843
907.441	16656
907.557	16637
907.674	16558
907.79	16466
907.907	16519
908.023	16599
908.139	16679
908.256	16523
908.372	16485
908.488	16417
908.604	16447
908.72	16299
908.836	16428
908.952	16280
909.068	16276
909.184	16337
909.3	16284
909.415	16356
909.531	16284
909.647	16124
909.762	15975
909.878	15949
909.993	16025
910.108	15953
910.224	16032
910.339	16002
910.454	15698
910.57	15797
910.685	15800
910.8	16036
910.915	15983
911.03	15831
911.145	15614
911.259	15644
911.374	15580
911.489	15477
911.604	15500
911.718	15374
911.833	15294
911.947	15287
912.062	15043
912.176	15287
912.291	15386
912.405	15298
912.519	15591
912.633	15450
912.748	15424
912.862	15435
912.976	15214
913.09	15104
913.204	15085
913.318	15211
913.431	15317
913.545	15279
913.659	15283
913.772	15199
913.886	15020
914	14956
914.113	15097
914.226	15097
914.34	15009
914.453	14910
914.566	14952
914.68	14880
914.793	14804
914.906	14678
915.019	14667
915.132	14579
915.245	14571
915.358	14617
915.47	14621
915.583	14518
915.696	14682
915.809	14754
915.921	14716
916.034	14533
916.146	14518
916.259	14648
916.371	14613
916.483	14549
916.595	14434
916.708	14568
916.82	14492
916.932	14404
917.044	14328
917.156	14366
917.268	14305
917.38	14336
917.491	14221
917.603	14332
917.715	14301
917.826	14374
917.938	14259
918.049	14081
918.161	14191
918.272	14438
918.384	14244
918.495	14221
918.606	14123
918.717	14008
918.828	14088
918.939	14054
919.05	14050
919.161	14062
919.272	13833
919.383	13997
919.494	14088
919.604	14263
919.715	14115
919.826	13959
919.936	14001
920.047	14020
920.157	13951
920.267	14237
920.378	14046
920.488	14008
920.598	14195
920.708	14275
920.818	14176
920.928	14195
921.038	14259
921.148	14210
921.258	14012
921.368	13791
921.477	13841
921.587	13750
921.697	13632
921.806	13837
921.916	13632
922.025	13468
922.134	13384
922.244	13327
922.353	13495
922.462	13441
922.571	13293
922.68	13080
922.789	13046
922.898	13095
923.007	13000
923.116	12970
923.224	13061
923.333	12989
923.442	12924
923.55	12894
923.659	13004
923.767	13000
923.876	12795
923.984	12913
924.092	12764
924.201	12863
924.309	12833
924.417	12753
924.525	12745
924.633	12806
924.741	13753
924.849	12574
924.956	12616
925.064	12627
925.172	12494
925.279	12513
925.387	12498
925.494	12551
925.602	12563
925.709	12486
925.816	12372
925.924	12467
926.031	12559
926.138	12448
926.245	12544
926.352	12441
926.459	12502
926.566	12559
926.673	12471
926.779	12395
926.886	12178
926.993	12064
927.099	12045
927.206	12072
927.312	12060
927.419	12087
927.525	12026
927.631	12121
927.737	11931
927.843	11916
927.95	11786
928.056	11901
928.162	12015
928.267	11958
928.373	12418
928.479	11954
928.585	11748
928.69	11859
928.796	11901
928.901	11805
929.007	11615
929.112	11828
929.218	11714
929.323	11665
929.428	11642
929.533	11745
929.638	11554
929.743	11665
929.848	11688
929.953	11585
930.058	11486
930.163	11303
930.267	11345
930.372	11509
930.477	11292
930.581	11482
930.685	11360
930.79	11220
930.894	11269
930.998	11208
931.103	11345
931.207	11037
931.311	10923
931.415	10831
931.519	10736
931.623	10653
