Data from test_V78500241_1619.txt Node
Date: Fri Mar 25 15:21:07 CST 2022
User: usil
Spectrometer: V785-0024
Trigger mode: 0
Integration Time (sec): 4.000000E-1
Scans to average: 1
Nonlinearity correction enabled: false
Boxcar width: 0
Storing dark spectrum: false
XAxis mode: Wavelengths
Number of Pixels in Spectrum: 1024
>>>>>Begin Spectral Data<<<<<
801.071	27991
801.214	27812
801.356	27641
801.499	27622
801.641	27359
801.783	27363
801.926	27561
802.068	27431
802.211	27268
802.353	27355
802.496	27119
802.638	27066
802.78	27127
802.923	27028
803.065	27043
803.208	27051
803.35	26963
803.492	27180
803.635	27180
803.777	26956
803.919	27203
804.061	27644
804.204	27321
804.346	27176
804.488	27268
804.63	27161
804.773	27150
804.915	27340
805.057	27207
805.199	27161
805.341	27275
805.483	27370
805.626	27405
805.768	27351
805.91	27359
806.052	27359
806.194	27154
806.336	27599
806.478	27515
806.62	27507
806.762	27599
806.904	27595
807.046	27884
807.188	27774
807.33	27930
807.472	27903
807.614	27842
807.756	27701
807.898	27713
808.04	27762
808.182	27698
808.324	27705
808.465	27694
808.607	27994
808.749	28036
808.891	28029
809.033	28082
809.174	28086
809.316	27972
809.458	28044
809.6	27945
809.741	28105
809.883	28006
810.025	28363
810.166	28257
810.308	28379
810.45	28379
810.591	28051
810.733	28131
810.875	27945
811.016	27979
811.158	27865
811.299	28086
811.441	28059
811.582	28207
811.724	28044
811.865	28013
812.007	28006
812.148	27911
812.29	28074
812.431	28196
812.573	28367
812.714	28455
812.855	28592
812.997	28656
813.138	28805
813.279	28736
813.421	28786
813.562	28489
813.703	28375
813.845	28234
813.986	28032
814.127	27766
814.268	27781
814.41	27713
814.551	27587
814.692	27690
814.833	27743
814.974	27766
815.115	27694
815.256	27656
815.397	27595
815.539	27629
815.68	27526
815.821	27481
815.962	27523
816.103	27519
816.244	27469
816.385	27306
816.526	27424
816.666	27093
816.807	26918
816.948	27112
817.089	27001
817.23	26940
817.371	27047
817.512	26982
817.653	27036
817.793	26918
817.934	26994
818.075	27047
818.216	27077
818.356	26940
818.497	26845
818.638	26686
818.778	26815
818.919	26758
819.06	26826
819.2	26826
819.341	27013
819.481	26880
819.622	27138
819.762	27306
819.903	27214
820.043	27260
820.184	27081
820.324	27135
820.465	27169
820.605	27135
820.746	27100
820.886	26891
821.026	27017
821.167	27176
821.307	27058
821.447	27085
821.588	26952
821.728	26754
821.868	26663
822.008	26442
822.149	26476
822.289	26598
822.429	26199
822.569	26145
822.709	26073
822.849	26008
822.99	25955
823.13	25970
823.27	26035
823.41	25776
823.55	25719
823.69	25780
823.83	25947
823.97	25788
824.11	25575
824.25	25521
824.389	25578
824.529	25723
824.669	25544
824.809	25868
824.949	25769
825.089	25639
825.228	25689
825.368	25510
825.508	25548
825.648	25483
825.787	25438
825.927	25575
826.067	25635
826.206	25434
826.346	25647
826.485	25521
826.625	25533
826.765	25559
826.904	25487
827.044	25232
827.183	25225
827.323	25228
827.462	25297
827.601	25217
827.741	25061
827.88	25228
828.02	25156
828.159	25110
828.298	25133
828.437	25282
828.577	25148
828.716	25217
828.855	25206
828.994	25008
829.134	24844
829.273	24992
829.412	24859
829.551	24779
829.69	24890
829.829	24973
829.968	24939
830.107	24943
830.246	24825
830.385	24829
830.524	24791
830.663	24620
830.802	24589
830.941	24452
831.08	24536
831.219	24589
831.357	24563
831.496	24734
831.635	24521
831.774	24441
831.913	24414
832.051	24319
832.19	24372
832.329	24437
832.467	24270
832.606	24102
832.744	24159
832.883	24205
833.022	24038
833.16	24277
833.299	24190
833.437	24319
833.576	24277
833.714	24285
833.852	24311
833.991	24251
834.129	24353
834.267	24327
834.406	24330
834.544	24403
834.682	24228
834.821	24201
834.959	24311
835.097	24197
835.235	24102
835.373	24163
835.511	24224
835.65	24015
835.788	24197
835.926	24087
836.064	23897
836.202	23992
836.34	24072
836.478	24110
836.615	23977
836.753	24015
836.891	24072
837.029	24007
837.167	23950
837.305	23977
837.443	23939
837.58	23961
837.718	23836
837.856	23916
837.993	23897
838.131	23931
838.269	23775
838.406	23889
838.544	23783
838.681	23554
838.819	23634
838.956	23490
839.094	23284
839.231	23474
839.369	23543
839.506	23737
839.643	23627
839.781	23524
839.918	23307
840.055	23376
840.193	23349
840.33	23307
840.467	23379
840.604	23307
840.742	23440
840.879	23235
841.016	23223
841.153	23254
841.29	23436
841.427	23284
841.564	23280
841.701	23315
841.838	23204
841.975	23189
842.112	23132
842.249	23147
842.385	23056
842.522	23140
842.659	23132
842.796	22965
842.933	23105
843.069	22980
843.206	23014
843.343	22934
843.479	23052
843.616	23056
843.752	22774
843.889	22790
844.025	22957
844.162	22881
844.298	22946
844.435	22748
844.571	22904
844.708	22927
844.844	23022
844.98	22942
845.117	22900
845.253	22805
845.389	22782
845.525	22809
845.661	22725
845.798	22733
845.934	22660
846.07	22603
846.206	22596
846.342	22691
846.478	22500
846.614	22192
846.75	22257
846.886	22207
847.022	22459
847.158	22272
847.294	22363
847.429	22356
847.565	22185
847.701	22519
847.837	21953
847.972	21907
848.108	22215
848.244	21972
848.379	21934
848.515	21861
848.65	21835
848.786	21926
848.921	21880
849.057	22032
849.192	21808
849.328	21899
849.463	21930
849.598	21816
849.734	21774
849.869	21747
850.004	21644
850.14	21808
850.275	21675
850.41	21663
850.545	21576
850.68	21679
850.815	21766
850.95	21713
851.085	21682
851.22	21762
851.355	21648
851.49	21614
851.625	21583
851.76	21648
851.895	21667
852.03	21667
852.165	21648
852.299	21682
852.434	21701
852.569	21629
852.703	21717
852.838	21675
852.973	21827
853.107	21724
853.242	21572
853.376	21389
853.511	21359
853.645	21363
853.78	21568
853.914	21405
854.048	21504
854.183	21405
854.317	21420
854.451	21713
854.585	21614
854.72	21587
854.854	21496
854.988	21325
855.122	21610
855.256	21447
855.39	21374
855.524	21648
855.658	21492
855.792	21447
855.926	21629
856.06	21515
856.194	21587
856.327	21523
856.461	21386
856.595	21431
856.729	21424
856.862	21557
856.996	21488
857.13	21386
857.263	21648
857.397	21656
857.53	21488
857.664	21534
857.797	21629
857.931	21496
858.064	21431
858.197	21549
858.331	21401
858.464	21408
858.597	21408
858.731	21435
858.864	21386
858.997	21386
859.13	21485
859.263	21473
859.396	21583
859.529	21424
859.662	21534
859.795	21355
859.928	21416
860.061	21591
860.194	21690
860.327	21439
860.46	21458
860.592	21576
860.725	21812
860.858	21622
860.99	21405
861.123	21363
861.256	21386
861.388	21363
861.521	22116
861.653	21363
861.786	21294
861.918	21363
862.05	21298
862.183	21435
862.315	21428
862.447	21443
862.58	21363
862.712	21123
862.844	21188
862.976	21264
863.108	21310
863.24	21504
863.372	21108
863.504	21245
863.636	21207
863.768	21260
863.9	21047
864.032	21017
864.164	21074
864.296	21131
864.428	21260
864.559	21298
864.691	21131
864.823	21222
864.954	21264
865.086	21165
865.217	21169
865.349	20971
865.48	21081
865.612	21138
865.743	21157
865.875	21051
866.006	21020
866.137	21039
866.269	21070
866.4	21104
866.531	20963
866.662	20929
866.793	20971
866.924	21024
867.055	21055
867.186	21062
867.317	21028
867.448	20845
867.579	20921
867.71	20933
867.841	20864
867.972	21157
868.103	20941
868.233	21047
868.364	20883
868.495	21066
868.625	21245
868.756	21336
868.886	21245
869.017	21245
869.147	21325
869.278	21336
869.408	21180
869.539	21180
869.669	21298
869.799	21313
869.929	21351
870.06	21374
870.19	21622
870.32	21477
870.45	21515
870.58	21462
870.71	21713
870.84	21720
870.97	21625
871.1	21610
871.23	21694
871.36	22021
871.489	21797
871.619	21911
871.749	21835
871.879	21808
872.008	21953
872.138	21899
872.267	21804
872.397	21774
872.526	21656
872.656	21690
872.785	21713
872.915	21930
873.044	21842
873.173	21831
873.303	21880
873.432	21884
873.561	22051
873.69	21808
873.819	21774
873.948	21880
874.077	21842
874.206	21842
874.335	21789
874.464	22013
874.593	22109
874.722	22055
874.851	22147
874.979	22169
875.108	22059
875.237	22017
875.365	21998
875.494	22200
875.623	22261
875.751	22082
875.88	22169
876.008	22162
876.136	22303
876.265	22592
876.393	22641
876.521	22637
876.65	22580
876.778	22398
876.906	22409
877.034	22481
877.162	22417
877.29	22459
877.418	22557
877.546	22455
877.674	22474
877.802	22348
877.93	22519
878.058	22424
878.185	22432
878.313	22246
878.441	22398
878.568	22253
878.696	22360
878.824	22447
878.951	22569
879.079	22557
879.206	22679
879.333	22546
879.461	22474
879.588	22489
879.715	22588
879.842	22744
879.97	22455
880.097	22242
880.224	22299
880.351	22310
880.478	22215
880.605	22135
880.732	22192
880.859	22577
880.986	22139
881.112	22314
881.239	22272
881.366	22010
881.493	21949
881.619	21835
881.746	21846
881.872	21899
881.999	21816
882.125	21705
882.252	21857
882.378	21835
882.505	21857
882.631	21682
882.757	21633
882.883	21561
883.01	21492
883.136	21416
883.262	21485
883.388	21378
883.514	21663
883.64	21538
883.766	21469
883.892	21313
884.018	21344
884.143	21477
884.269	21591
884.395	21169
884.52	21089
884.646	21077
884.772	21157
884.897	21036
885.023	21192
885.148	21237
885.274	21230
885.399	21249
885.524	21203
885.65	21127
885.775	21192
885.9	21123
886.025	21241
886.15	21214
886.275	21180
886.4	21055
886.525	21062
886.65	21028
886.775	21112
886.9	21310
887.025	21412
887.149	21150
887.274	21009
887.399	20883
887.523	20880
887.648	20819
887.773	20826
887.897	20982
888.021	21024
888.146	20765
888.27	21020
888.395	21077
888.519	20986
888.643	20948
888.767	20971
888.891	20792
889.015	20785
889.139	20720
889.263	20632
889.387	20727
889.511	20891
889.635	20777
889.759	20735
889.883	20708
890.006	20682
890.13	20899
890.254	20689
890.377	20682
890.501	20625
890.624	20465
890.748	20507
890.871	20408
890.995	20214
891.118	20275
891.241	20389
891.364	20393
891.488	20438
891.611	20271
891.734	20343
891.857	20381
891.98	20324
892.103	20229
892.226	20324
892.349	20149
892.471	20039
892.594	20187
892.717	20275
892.839	20195
892.962	20142
893.085	20332
893.207	20187
893.33	20168
893.452	20081
893.575	20157
893.697	20176
893.819	20415
893.941	20408
894.064	20252
894.186	20252
894.308	20145
894.43	20275
894.552	20324
894.674	20328
894.796	20107
894.918	20259
895.04	20240
895.161	20301
895.283	20214
895.405	20183
895.526	20244
895.648	20119
895.769	20313
895.891	20389
896.012	20301
896.134	20259
896.255	20298
896.376	20142
896.498	20161
896.619	20225
896.74	20248
896.861	20290
896.982	20484
897.103	20469
897.224	20522
897.345	20415
897.466	20381
897.587	20469
897.708	20575
897.828	20476
897.949	20461
898.07	20381
898.19	20415
898.311	20480
898.431	20324
898.552	20446
898.672	20450
898.792	20427
898.913	20469
899.033	20256
899.153	20301
899.273	20142
899.393	20122
899.513	20275
899.633	20225
899.753	20275
899.873	20202
899.993	20122
900.113	20020
900.232	20180
900.352	20073
900.472	20031
900.591	19925
900.711	20058
900.83	19982
900.95	20161
901.069	20035
901.189	19818
901.308	19586
901.427	19567
901.546	19544
901.665	19502
901.784	19559
901.904	19400
902.023	19289
902.141	19053
902.26	19103
902.379	19107
902.498	19065
902.617	19015
902.735	19099
902.854	19023
902.973	18981
903.091	18772
903.21	18776
903.328	18726
903.446	18646
903.565	18513
903.683	18582
903.801	18456
903.919	18323
904.038	18407
904.156	18296
904.274	18308
904.392	18342
904.51	18426
904.627	18323
904.745	18304
904.863	18414
904.981	18262
905.098	17927
905.216	17988
905.334	18015
905.451	18076
905.569	17885
905.686	17927
905.803	17912
905.921	17779
906.038	17775
906.155	17878
906.272	17805
906.389	17646
906.506	17543
906.623	17501
906.74	17326
906.857	17372
906.974	17414
907.091	17543
907.208	17570
907.324	17509
907.441	17490
907.557	17212
907.674	17296
907.79	17239
907.907	17147
908.023	17246
908.139	17200
908.256	17155
908.372	17102
908.488	16976
908.604	16869
908.72	16881
908.836	17033
908.952	16835
909.068	16911
909.184	17048
909.3	17006
909.415	16919
909.531	16850
909.647	16702
909.762	16668
909.878	16641
909.993	16630
910.108	16687
910.224	16656
910.339	16630
910.454	16466
910.57	16402
910.685	16363
910.8	16675
910.915	16622
911.03	16367
911.145	16325
911.259	16249
911.374	16234
911.489	16051
911.604	16139
911.718	16002
911.833	16093
911.947	15869
912.062	15903
912.176	15972
912.291	15991
912.405	15899
912.519	16128
912.633	16086
912.748	16029
912.862	15930
912.976	15816
913.09	15644
913.204	15717
913.318	15789
913.431	15895
913.545	15876
913.659	15835
913.772	15709
913.886	15580
914	15530
914.113	15633
914.226	15610
914.34	15622
914.453	15370
914.566	15519
914.68	15382
914.793	15447
914.906	15317
915.019	15199
915.132	15214
915.245	15233
915.358	15291
915.47	15192
915.583	15169
915.696	15199
915.809	15275
915.921	15329
916.034	15024
916.146	15047
916.259	15123
916.371	15135
916.483	15161
916.595	14990
916.708	15020
916.82	14960
916.932	15039
917.044	14990
917.156	14918
917.268	14807
917.38	14895
917.491	14872
917.603	14777
917.715	14986
917.826	14994
917.938	14826
918.049	14705
918.161	14754
918.272	14834
918.384	14861
918.495	14769
918.606	14556
918.717	14526
918.828	14598
918.939	14629
919.05	14545
919.161	14503
919.272	14427
919.383	14541
919.494	14621
919.604	14868
919.715	14613
919.826	14518
919.936	14526
920.047	14564
920.157	14564
920.267	14682
920.378	14568
920.488	14533
920.598	14697
920.708	14811
920.818	14750
920.928	14701
921.038	14895
921.148	14758
921.258	14552
921.368	14381
921.477	14309
921.587	14259
921.697	14065
921.806	14301
921.916	14157
922.025	14088
922.134	14012
922.244	13925
922.353	13928
922.462	13879
922.571	13719
922.68	13597
922.789	13609
922.898	13556
923.007	13567
923.116	13537
923.224	13658
923.333	13597
923.442	13518
923.55	13381
923.659	13373
923.767	13480
923.876	13232
923.984	13411
924.092	13346
924.201	13384
924.309	13289
924.417	13316
924.525	13259
924.633	13297
924.741	14024
924.849	13023
924.956	13266
925.064	13084
925.172	12939
925.279	12966
925.387	12943
925.494	13034
925.602	13190
925.709	13023
925.816	12916
925.924	12920
926.031	12981
926.138	12989
926.245	13000
926.352	12833
926.459	12943
926.566	13061
926.673	12894
926.779	12722
926.886	12757
926.993	12589
927.099	12597
927.206	12525
927.312	12464
927.419	12612
927.525	12486
927.631	12578
927.737	12464
927.843	12342
927.95	12277
928.056	12376
928.162	12361
928.267	12391
928.373	13065
928.479	12502
928.585	12232
928.69	12296
928.796	12372
928.901	12247
929.007	12129
929.112	12178
929.218	12140
929.323	12076
929.428	12053
929.533	12243
929.638	12091
929.743	11992
929.848	12129
929.953	12026
930.058	11927
930.163	11748
930.267	11897
930.372	11950
930.477	11710
930.581	12026
930.685	11805
930.79	11680
930.894	11714
930.998	11649
931.103	11897
931.207	11395
931.311	11349
931.415	11265
931.519	11079
931.623	11048
