Data from test_V78500241_3396.txt Node
Date: Fri Mar 25 15:33:30 CST 2022
User: usil
Spectrometer: V785-0024
Trigger mode: 0
Integration Time (sec): 4.000000E-1
Scans to average: 1
Nonlinearity correction enabled: false
Boxcar width: 0
Storing dark spectrum: false
XAxis mode: Wavelengths
Number of Pixels in Spectrum: 1024
>>>>>Begin Spectral Data<<<<<
801.071	27302
801.214	27142
801.356	27089
801.499	27024
801.641	26876
801.783	26792
801.926	26914
802.068	26815
802.211	26697
802.353	26651
802.496	26621
802.638	26518
802.78	26518
802.923	26442
803.065	26332
803.208	26294
803.35	26476
803.492	26667
803.635	26667
803.777	26507
803.919	26636
804.061	26940
804.204	26609
804.346	26549
804.488	26461
804.63	26518
804.773	26442
804.915	26552
805.057	26735
805.199	26564
805.341	26727
805.483	26716
805.626	26724
805.768	26594
805.91	26724
806.052	26682
806.194	26568
806.336	26823
806.478	26670
806.62	26796
806.762	26921
806.904	26956
807.046	27252
807.188	27036
807.33	27142
807.472	27154
807.614	27222
807.756	27108
807.898	26914
808.04	26963
808.182	26925
808.324	27013
808.465	27017
808.607	27241
808.749	27401
808.891	27492
809.033	27473
809.174	27302
809.316	27252
809.458	27382
809.6	27317
809.741	27378
809.883	27496
810.025	27568
810.166	27538
810.308	27580
810.45	27504
810.591	27530
810.733	27306
810.875	27226
811.016	27131
811.158	27039
811.299	27264
811.441	27420
811.582	27507
811.724	27370
811.865	27180
812.007	27283
812.148	27321
812.29	27245
812.431	27458
812.573	27583
812.714	27690
812.855	27656
812.997	27770
813.138	27956
813.279	27819
813.421	27835
813.562	27774
813.703	27671
813.845	27325
813.986	27249
814.127	27020
814.268	27020
814.41	26937
814.551	26849
814.692	26925
814.833	26868
814.974	26925
815.115	26910
815.256	26872
815.397	26819
815.539	26929
815.68	26773
815.821	26705
815.962	26804
816.103	26670
816.244	26693
816.385	26442
816.526	26552
816.666	26332
816.807	26202
816.948	26271
817.089	26282
817.23	26172
817.371	26153
817.512	26084
817.653	26240
817.793	26149
817.934	26183
818.075	26191
818.216	26180
818.356	26031
818.497	26084
818.638	25955
818.778	25970
818.919	25932
819.06	26020
819.2	26046
819.341	26065
819.481	26130
819.622	26339
819.762	26644
819.903	26511
820.043	26412
820.184	26415
820.324	26427
820.465	26453
820.605	26252
820.746	26244
820.886	26054
821.026	26355
821.167	26218
821.307	26248
821.447	26248
821.588	26092
821.728	26008
821.868	25757
822.008	25590
822.149	25715
822.289	25635
822.429	25434
822.569	25407
822.709	25335
822.849	25194
822.99	25053
823.13	25206
823.27	25126
823.41	24992
823.55	24863
823.69	25095
823.83	24954
823.97	24970
824.11	24817
824.25	24734
824.389	24711
824.529	24867
824.669	24863
824.809	24928
824.949	24916
825.089	24928
825.228	24909
825.368	24878
825.508	24700
825.648	24677
825.787	24700
825.927	24741
826.067	24688
826.206	24688
826.346	24631
826.485	24798
826.625	24749
826.765	24734
826.904	24722
827.044	24578
827.183	24498
827.323	24407
827.462	24437
827.601	24376
827.741	24437
827.88	24422
828.02	24342
828.159	24403
828.298	24426
828.437	24456
828.577	24369
828.716	24563
828.855	24311
828.994	24152
829.134	24144
829.273	24152
829.412	24152
829.551	24038
829.69	24167
829.829	24152
829.968	24205
830.107	24243
830.246	24216
830.385	24197
830.524	23984
830.663	23980
830.802	23870
830.941	23707
831.08	23608
831.219	23843
831.357	23897
831.496	24083
831.635	23790
831.774	23802
831.913	23665
832.051	23634
832.19	23600
832.329	23676
832.467	23471
832.606	23421
832.744	23410
832.883	23391
833.022	23490
833.16	23459
833.299	23493
833.437	23528
833.576	23516
833.714	23596
833.852	23570
833.991	23589
834.129	23775
834.267	23573
834.406	23581
834.544	23474
834.682	23410
834.821	23638
834.959	23592
835.097	23615
835.235	23570
835.373	23482
835.511	23467
835.65	23315
835.788	23337
835.926	23185
836.064	23147
836.202	23220
836.34	23474
836.478	23383
836.615	23307
836.753	23299
836.891	23459
837.029	23360
837.167	23353
837.305	23113
837.443	23220
837.58	23227
837.718	23178
837.856	23181
837.993	23162
838.131	23239
838.269	23132
838.406	23098
838.544	23124
838.681	22961
838.819	22831
838.956	22660
839.094	22687
839.231	22797
839.369	22805
839.506	23151
839.643	22976
839.781	22649
839.918	22653
840.055	22603
840.193	22729
840.33	22611
840.467	22599
840.604	22793
840.742	22889
840.879	22497
841.016	22569
841.153	22443
841.29	22752
841.427	22668
841.564	22622
841.701	22687
841.838	22527
841.975	22561
842.112	22512
842.249	22497
842.385	22382
842.522	22622
842.659	22527
842.796	22386
842.933	22325
843.069	22379
843.206	22325
843.343	22337
843.479	22508
843.616	22474
843.752	22124
843.889	22128
844.025	22417
844.162	22226
844.298	22287
844.435	22063
844.571	22150
844.708	22177
844.844	22284
844.98	22181
845.117	22185
845.253	22135
845.389	22032
845.525	22120
845.661	22044
845.798	21838
845.934	21903
846.07	21949
846.206	22013
846.342	22078
846.478	21884
846.614	21713
846.75	21660
846.886	21542
847.022	21618
847.158	21686
847.294	21652
847.429	21679
847.565	21595
847.701	21827
847.837	21416
847.972	21173
848.108	21428
848.244	21477
848.379	21348
848.515	21245
848.65	21142
848.786	21123
848.921	21264
849.057	21412
849.192	21340
849.328	21218
849.463	21313
849.598	21150
849.734	21116
849.869	21009
850.004	21077
850.14	21112
850.275	20967
850.41	20880
850.545	20891
850.68	21127
850.815	20979
850.95	20933
851.085	21169
851.22	21135
851.355	20982
851.49	20937
851.625	20952
851.76	21017
851.895	20937
852.03	20872
852.165	20944
852.299	20982
852.434	21188
852.569	21123
852.703	21070
852.838	21047
852.973	21081
853.107	21055
853.242	20956
853.376	20849
853.511	20648
853.645	20693
853.78	20967
853.914	20773
854.048	20830
854.183	20868
854.317	20876
854.451	21013
854.585	20796
854.72	20807
854.854	20956
854.988	20720
855.122	20845
855.256	20777
855.39	20754
855.524	20952
855.658	20960
855.792	20868
855.926	20899
856.06	20746
856.194	20834
856.327	20724
856.461	20792
856.595	20864
856.729	20693
856.862	21009
856.996	20944
857.13	20979
857.263	20857
857.397	20967
857.53	20701
857.664	20838
857.797	20788
857.931	20758
858.064	20819
858.197	20929
858.331	20838
858.464	20697
858.597	20659
858.731	20807
858.864	20796
858.997	20804
859.13	20834
859.263	20815
859.396	20872
859.529	20849
859.662	20739
859.795	20754
859.928	20819
860.061	20975
860.194	21001
860.327	20880
860.46	20857
860.592	20944
860.725	20902
860.858	20887
860.99	20842
861.123	20705
861.256	20777
861.388	20807
861.521	21648
861.653	20678
861.786	20537
861.918	20731
862.05	20739
862.183	20678
862.315	20758
862.447	20872
862.58	20644
862.712	20575
862.844	20503
862.976	20613
863.108	20518
863.24	20994
863.372	20465
863.504	20389
863.636	20415
863.768	20575
863.9	20609
864.032	20473
864.164	20560
864.296	20579
864.428	20648
864.559	20701
864.691	20465
864.823	20560
864.954	20583
865.086	20579
865.217	20511
865.349	20343
865.48	20484
865.612	20598
865.743	20503
865.875	20431
866.006	20598
866.137	20434
866.269	20499
866.4	20404
866.531	20275
866.662	20278
866.793	20434
866.924	20339
867.055	20404
867.186	20320
867.317	20442
867.448	20347
867.579	20336
867.71	20320
867.841	20317
867.972	20278
868.103	20286
868.233	20408
868.364	20347
868.495	20495
868.625	20655
868.756	20765
868.886	20511
869.017	20590
869.147	20678
869.278	20754
869.408	20640
869.539	20552
869.669	20579
869.799	20579
869.929	20651
870.06	20682
870.19	20937
870.32	20902
870.45	20902
870.58	20986
870.71	21157
870.84	21195
870.97	20990
871.1	21116
871.23	21218
871.36	21214
871.489	21222
871.619	21252
871.749	21203
871.879	21279
872.008	21302
872.138	21279
872.267	21298
872.397	21058
872.526	21024
872.656	21108
872.785	21005
872.915	21294
873.044	21389
873.173	21279
873.303	21302
873.432	21222
873.561	21370
873.69	21298
873.819	21287
873.948	21157
874.077	21359
874.206	21222
874.335	21180
874.464	21329
874.593	21477
874.722	21382
874.851	21538
874.979	21439
875.108	21500
875.237	21492
875.365	21450
875.494	21424
875.623	21538
875.751	21485
875.88	21454
876.008	21561
876.136	21717
876.265	21823
876.393	22032
876.521	21934
876.65	21968
876.778	21911
876.906	21873
877.034	21724
877.162	21850
877.29	21850
877.418	21926
877.546	21808
877.674	21751
877.802	21846
877.93	21960
878.058	21778
878.185	21694
878.313	21774
878.441	21770
878.568	21599
878.696	21812
878.824	21930
878.951	21861
879.079	21926
879.206	22120
879.333	21960
879.461	21922
879.588	21922
879.715	21926
879.842	22162
879.97	21869
880.097	21690
880.224	21675
880.351	21572
880.478	21652
880.605	21629
880.732	21698
880.859	21854
880.986	21690
881.112	21663
881.239	21705
881.366	21435
881.493	21367
881.619	21310
881.746	21252
881.872	21222
881.999	21233
882.125	21161
882.252	21332
882.378	21184
882.505	21405
882.631	21077
882.757	20838
882.883	21017
883.01	21036
883.136	20796
883.262	20883
883.388	20693
883.514	20982
883.64	21005
883.766	20910
883.892	20667
884.018	20853
884.143	20872
884.269	21013
884.395	20701
884.52	20530
884.646	20594
884.772	20705
884.897	20442
885.023	20674
885.148	20667
885.274	20720
885.399	20686
885.524	20598
885.65	20495
885.775	20659
885.9	20556
886.025	20731
886.15	20727
886.275	20404
886.4	20541
886.525	20552
886.65	20552
886.775	20564
886.9	20682
887.025	20853
887.149	20533
887.274	20480
887.399	20427
887.523	20381
887.648	20317
887.773	20233
887.897	20427
888.021	20488
888.146	20298
888.27	20442
888.395	20396
888.519	20339
888.643	20370
888.767	20404
888.891	20355
889.015	20157
889.139	20271
889.263	20199
889.387	20202
889.511	20450
889.635	20233
889.759	20172
889.883	20058
890.006	20233
890.13	20195
890.254	20077
890.377	20088
890.501	19963
890.624	19944
890.748	19944
890.871	19845
890.995	19727
891.118	19693
891.241	19689
891.364	19799
891.488	19761
891.611	19708
891.734	19677
891.857	19814
891.98	19734
892.103	19769
892.226	19765
892.349	19757
892.471	19518
892.594	19693
892.717	19613
892.839	19696
892.962	19681
893.085	19750
893.207	19693
893.33	19616
893.452	19620
893.575	19757
893.697	19540
893.819	19811
893.941	19932
894.064	19826
894.186	19514
894.308	19567
894.43	19750
894.552	19772
894.674	19811
894.796	19487
894.918	19597
895.04	19628
895.161	19693
895.283	19753
895.405	19655
895.526	19723
895.648	19616
895.769	19727
895.891	19628
896.012	19666
896.134	19666
896.255	19727
896.376	19590
896.498	19772
896.619	19674
896.74	19601
896.861	19738
896.982	20069
897.103	20126
897.224	19959
897.345	19883
897.466	19909
897.587	19864
897.708	19959
897.828	19936
897.949	19890
898.07	19811
898.19	19807
898.311	19974
898.431	19898
898.552	19940
898.672	19925
898.792	19913
898.913	19818
899.033	19738
899.153	19727
899.273	19563
899.393	19681
899.513	19708
899.633	19651
899.753	19620
899.873	19651
899.993	19712
900.113	19502
900.232	19609
900.352	19556
900.472	19464
900.591	19396
900.711	19434
900.83	19343
900.95	19533
901.069	19533
901.189	19278
901.308	19072
901.427	18981
901.546	19004
901.665	18916
901.784	19046
901.904	18882
902.023	18776
902.141	18639
902.26	18559
902.379	18658
902.498	18479
902.617	18502
902.735	18639
902.854	18509
902.973	18506
903.091	18197
903.21	18152
903.328	18194
903.446	18144
903.565	18041
903.683	18072
903.801	17836
903.919	17965
904.038	17935
904.156	17939
904.274	17870
904.392	17855
904.51	17767
904.627	17882
904.745	17798
904.863	17771
904.981	17596
905.098	17471
905.216	17395
905.334	17516
905.451	17391
905.569	17455
905.686	17417
905.803	17482
905.921	17307
906.038	17349
906.155	17364
906.272	17151
906.389	17250
906.506	17022
906.623	17025
906.74	17037
906.857	16862
906.974	16904
907.091	16984
907.208	17166
907.324	17109
907.441	16927
907.557	16809
907.674	16698
907.79	16641
907.907	16740
908.023	16683
908.139	16767
908.256	16687
908.372	16618
908.488	16683
908.604	16519
908.72	16447
908.836	16546
908.952	16371
909.068	16405
909.184	16615
909.3	16371
909.415	16474
909.531	16512
909.647	16192
909.762	16181
909.878	16124
909.993	16181
910.108	16048
910.224	16109
910.339	16082
910.454	16010
910.57	16010
910.685	15922
910.8	16055
910.915	16120
911.03	16040
911.145	15747
911.259	15770
911.374	15728
911.489	15606
911.604	15606
911.718	15553
911.833	15496
911.947	15389
912.062	15370
912.176	15469
912.291	15466
912.405	15439
912.519	15717
912.633	15808
912.748	15500
912.862	15507
912.976	15355
913.09	15268
913.204	15241
913.318	15359
913.431	15344
913.545	15435
913.659	15526
913.772	15230
913.886	15142
914	15150
914.113	15245
914.226	15272
914.34	15226
914.453	15047
914.566	15165
914.68	15036
914.793	15005
914.906	14845
915.019	14762
915.132	14636
915.245	14773
915.358	14743
915.47	14785
915.583	14800
915.696	14781
915.809	14929
915.921	14750
916.034	14727
916.146	14697
916.259	14587
916.371	14781
916.483	14724
916.595	14663
916.708	14568
916.82	14629
916.932	14632
917.044	14583
917.156	14556
917.268	14317
917.38	14457
917.491	14457
917.603	14427
917.715	14454
917.826	14469
917.938	14377
918.049	14275
918.161	14309
918.272	14438
918.384	14431
918.495	14370
918.606	14229
918.717	14176
918.828	14202
918.939	14259
919.05	14153
919.161	14176
919.272	13989
919.383	14039
919.494	14183
919.604	14347
919.715	14142
919.826	14145
919.936	14183
920.047	14191
920.157	14092
920.267	14339
920.378	14191
920.488	14176
920.598	14317
920.708	14457
920.818	14252
920.928	14290
921.038	14408
921.148	14393
921.258	14107
921.368	14012
921.477	13993
921.587	13807
921.697	13814
921.806	13890
921.916	13830
922.025	13643
922.134	13518
922.244	13552
922.353	13586
922.462	13487
922.571	13377
922.68	13240
922.789	13187
922.898	13403
923.007	13053
923.116	13202
923.224	13202
923.333	13236
923.442	13168
923.55	12993
923.659	12958
923.767	13137
923.876	12989
923.984	13012
924.092	12939
924.201	13046
924.309	13027
924.417	12928
924.525	12856
924.633	12951
924.741	13765
924.849	12658
924.956	12840
925.064	12654
925.172	12585
925.279	12631
925.387	12559
925.494	12540
925.602	12787
925.709	12642
925.816	12540
925.924	12597
926.031	12642
926.138	12608
926.245	12570
926.352	12452
926.459	12623
926.566	12650
926.673	12490
926.779	12506
926.886	12418
926.993	12315
927.099	12213
927.206	12209
927.312	12178
927.419	12220
927.525	12243
927.631	12228
927.737	12095
927.843	12019
927.95	11988
928.056	11946
928.162	11969
928.267	12106
928.373	12623
928.479	12026
928.585	11824
928.69	11939
928.796	11923
928.901	11908
929.007	11779
929.112	11969
929.218	11840
929.323	11798
929.428	11733
929.533	11832
929.638	11684
929.743	11741
929.848	11798
929.953	11729
930.058	11688
930.163	11429
930.267	11414
930.372	11577
930.477	11436
930.581	11665
930.685	11539
930.79	11330
930.894	11391
930.998	11391
931.103	11478
931.207	11090
931.311	11052
931.415	11014
931.519	10767
931.623	10721
