Data from test_V78500241_3107.txt Node
Date: Fri Mar 25 15:31:29 CST 2022
User: usil
Spectrometer: V785-0024
Trigger mode: 0
Integration Time (sec): 4.000000E-1
Scans to average: 1
Nonlinearity correction enabled: false
Boxcar width: 0
Storing dark spectrum: false
XAxis mode: Wavelengths
Number of Pixels in Spectrum: 1024
>>>>>Begin Spectral Data<<<<<
801.071	26606
801.214	26393
801.356	26362
801.499	26134
801.641	26115
801.783	26088
801.926	26054
802.068	26107
802.211	26122
802.353	25849
802.496	25883
802.638	25765
802.78	25769
802.923	25677
803.065	25537
803.208	25594
803.35	25696
803.492	25693
803.635	25822
803.777	25708
803.919	25738
804.061	26073
804.204	25879
804.346	25712
804.488	25761
804.63	25795
804.773	25704
804.915	25742
805.057	25837
805.199	25799
805.341	25860
805.483	25921
805.626	25940
805.768	25875
805.91	25917
806.052	25830
806.194	25674
806.336	26043
806.478	25982
806.62	25860
806.762	26008
806.904	26233
807.046	26233
807.188	26309
807.33	26332
807.472	26412
807.614	26355
807.756	26362
807.898	26081
808.04	26103
808.182	26024
808.324	26115
808.465	26183
808.607	26370
808.749	26453
808.891	26514
809.033	26552
809.174	26438
809.316	26366
809.458	26377
809.6	26453
809.741	26552
809.883	26640
810.025	26735
810.166	26629
810.308	26629
810.45	26667
810.591	26583
810.733	26423
810.875	26446
811.016	26362
811.158	26377
811.299	26358
811.441	26511
811.582	26507
811.724	26362
811.865	26385
812.007	26320
812.148	26412
812.29	26240
812.431	26518
812.573	26571
812.714	26716
812.855	26792
812.997	26998
813.138	27169
813.279	27001
813.421	26952
813.562	26899
813.703	26773
813.845	26640
813.986	26256
814.127	26172
814.268	26263
814.41	26092
814.551	26054
814.692	26043
814.833	25875
814.974	25989
815.115	26065
815.256	25932
815.397	25928
815.539	25887
815.68	25928
815.821	25719
815.962	25887
816.103	25932
816.244	25632
816.385	25658
816.526	25597
816.666	25438
816.807	25377
816.948	25430
817.089	25400
817.23	25426
817.371	25297
817.512	25301
817.653	25164
817.793	25301
817.934	25217
818.075	25225
818.216	25365
818.356	25312
818.497	25221
818.638	24996
818.778	25012
818.919	25015
819.06	25031
819.2	25156
819.341	25324
819.481	25270
819.622	25282
819.762	25537
819.903	25468
820.043	25655
820.184	25419
820.324	25426
820.465	25556
820.605	25396
820.746	25316
820.886	25255
821.026	25331
821.167	25339
821.307	25377
821.447	25354
821.588	25148
821.728	25110
821.868	24901
822.008	24764
822.149	24677
822.289	24760
822.429	24460
822.569	24369
822.709	24433
822.849	24251
822.99	24308
823.13	24319
823.27	24194
823.41	24022
823.55	24018
823.69	24076
823.83	23996
823.97	23859
824.11	23828
824.25	23885
824.389	23984
824.529	23882
824.669	23901
824.809	24015
824.949	23923
825.089	23916
825.228	23775
825.368	23737
825.508	23764
825.648	23714
825.787	23783
825.927	23745
826.067	23665
826.206	23634
826.346	23790
826.485	23786
826.625	23798
826.765	23832
826.904	23767
827.044	23452
827.183	23535
827.323	23246
827.462	23474
827.601	23592
827.741	23288
827.88	23505
828.02	23307
828.159	23284
828.298	23520
828.437	23535
828.577	23307
828.716	23516
828.855	23360
828.994	23109
829.134	23136
829.273	23143
829.412	23048
829.551	23064
829.69	23105
829.829	23189
829.968	23334
830.107	23239
830.246	23121
830.385	23098
830.524	23075
830.663	23083
830.802	22774
830.941	22687
831.08	22653
831.219	22733
831.357	22771
831.496	22991
831.635	22740
831.774	22615
831.913	22626
832.051	22512
832.19	22523
832.329	22508
832.467	22386
832.606	22382
832.744	22398
832.883	22500
833.022	22386
833.16	22341
833.299	22478
833.437	22409
833.576	22554
833.714	22382
833.852	22599
833.991	22554
834.129	22546
834.267	22538
834.406	22493
834.544	22523
834.682	22440
834.821	22508
834.959	22561
835.097	22443
835.235	22546
835.373	22466
835.511	22596
835.65	22405
835.788	22436
835.926	22303
836.064	22048
836.202	22265
836.34	22238
836.478	22474
836.615	22276
836.753	22329
836.891	22356
837.029	22322
837.167	22265
837.305	22150
837.443	22238
837.58	22284
837.718	22356
837.856	22090
837.993	22063
838.131	22139
838.269	21979
838.406	22291
838.544	22013
838.681	21869
838.819	21953
838.956	21709
839.094	21652
839.231	21743
839.369	21838
839.506	22116
839.643	22036
839.781	21679
839.918	21599
840.055	21766
840.193	21709
840.33	21698
840.467	21663
840.604	21583
840.742	21945
840.879	21583
841.016	21523
841.153	21519
841.29	21728
841.427	21599
841.564	21576
841.701	21511
841.838	21523
841.975	21633
842.112	21534
842.249	21504
842.385	21469
842.522	21633
842.659	21412
842.796	21428
842.933	21504
843.069	21317
843.206	21382
843.343	21492
843.479	21382
843.616	21428
843.752	21176
843.889	21108
844.025	21332
844.162	21093
844.298	21233
844.435	21199
844.571	21233
844.708	21332
844.844	21184
844.98	21336
845.117	21222
845.253	21241
845.389	21036
845.525	21032
845.661	20986
845.798	21081
845.934	20929
846.07	20765
846.206	20864
846.342	20971
846.478	20956
846.614	20712
846.75	20655
846.886	20663
847.022	20758
847.158	20606
847.294	20689
847.429	20705
847.565	20522
847.701	20880
847.837	20476
847.972	20286
848.108	20389
848.244	20419
848.379	20225
848.515	20298
848.65	20256
848.786	20225
848.921	20313
849.057	20389
849.192	20187
849.328	20263
849.463	20278
849.598	20225
849.734	20214
849.869	20096
850.004	20024
850.14	20077
850.275	19883
850.41	20001
850.545	19883
850.68	19913
850.815	20088
850.95	19963
851.085	20161
851.22	20100
851.355	19986
851.49	19959
851.625	19963
851.76	19978
851.895	19967
852.03	19902
852.165	20050
852.299	19925
852.434	20122
852.569	20016
852.703	20027
852.838	20069
852.973	20077
853.107	20103
853.242	19913
853.376	19807
853.511	19776
853.645	19788
853.78	20005
853.914	19894
854.048	19708
854.183	19890
854.317	19925
854.451	19928
854.585	19818
854.72	19776
854.854	19898
854.988	19715
855.122	19947
855.256	19715
855.39	19841
855.524	19925
855.658	19894
855.792	19856
855.926	19913
856.06	19803
856.194	19955
856.327	19807
856.461	19750
856.595	19803
856.729	19860
856.862	19894
856.996	19986
857.13	19917
857.263	20035
857.397	19852
857.53	19856
857.664	19807
857.797	19921
857.931	19963
858.064	19784
858.197	19970
858.331	19845
858.464	19814
858.597	19670
858.731	19860
858.864	19833
858.997	19807
859.13	19841
859.263	19841
859.396	19978
859.529	19890
859.662	19814
859.795	19738
859.928	19860
860.061	19925
860.194	20027
860.327	19898
860.46	19818
860.592	19856
860.725	19959
860.858	20103
860.99	19860
861.123	19803
861.256	19803
861.388	19814
861.521	20419
861.653	19670
861.786	19506
861.918	19609
862.05	19780
862.183	19734
862.315	19769
862.447	19791
862.58	19788
862.712	19647
862.844	19438
862.976	19742
863.108	19651
863.24	19963
863.372	19510
863.504	19544
863.636	19548
863.768	19571
863.9	19559
864.032	19369
864.164	19499
864.296	19597
864.428	19677
864.559	19651
864.691	19609
864.823	19480
864.954	19548
865.086	19419
865.217	19495
865.349	19438
865.48	19480
865.612	19335
865.743	19674
865.875	19483
866.006	19502
866.137	19468
866.269	19392
866.4	19502
866.531	19369
866.662	19289
866.793	19304
866.924	19457
867.055	19499
867.186	19419
867.317	19320
867.448	19270
867.579	19438
867.71	19381
867.841	19266
867.972	19464
868.103	19499
868.233	19415
868.364	19407
868.495	19521
868.625	19715
868.756	19791
868.886	19605
869.017	19518
869.147	19780
869.278	19822
869.408	19666
869.539	19666
869.669	19715
869.799	19795
869.929	19837
870.06	19738
870.19	19887
870.32	19963
870.45	20016
870.58	20142
870.71	20210
870.84	20168
870.97	20077
871.1	20183
871.23	20202
871.36	20130
871.489	20100
871.619	20317
871.749	20225
871.879	20210
872.008	20377
872.138	20256
872.267	20324
872.397	20077
872.526	20001
872.656	20088
872.785	20130
872.915	20317
873.044	20381
873.173	20377
873.303	20298
873.432	20301
873.561	20271
873.69	20355
873.819	20374
873.948	20328
874.077	20320
874.206	20309
874.335	20408
874.464	20404
874.593	20602
874.722	20514
874.851	20533
874.979	20640
875.108	20716
875.237	20488
875.365	20457
875.494	20533
875.623	20598
875.751	20434
875.88	20454
876.008	20659
876.136	20667
876.265	20830
876.393	21058
876.521	20986
876.65	20990
876.778	20929
876.906	20876
877.034	20967
877.162	20918
877.29	20792
877.418	20864
877.546	20986
877.674	20921
877.802	20921
877.93	20925
878.058	20777
878.185	20845
878.313	20800
878.441	20895
878.568	20781
878.696	20800
878.824	20914
878.951	20853
879.079	21108
879.206	21252
879.333	21131
879.461	20956
879.588	21017
879.715	21062
879.842	21081
879.97	21005
880.097	20777
880.224	20781
880.351	20796
880.478	20792
880.605	20594
880.732	20743
880.859	20952
880.986	20781
881.112	20708
881.239	20636
881.366	20408
881.493	20385
881.619	20286
881.746	20404
881.872	20442
881.999	20240
882.125	20218
882.252	20339
882.378	20309
882.505	20351
882.631	20248
882.757	20073
882.883	20172
883.01	19993
883.136	19982
883.262	19894
883.388	19921
883.514	20081
883.64	20088
883.766	20046
883.892	19742
884.018	19887
884.143	20008
884.269	20081
884.395	19731
884.52	19719
884.646	19689
884.772	19597
884.897	19609
885.023	19746
885.148	19784
885.274	19784
885.399	19837
885.524	19696
885.65	19613
885.775	19738
885.9	19693
886.025	19681
886.15	19662
886.275	19666
886.4	19658
886.525	19639
886.65	19586
886.775	19643
886.9	19712
887.025	19845
887.149	19712
887.274	19571
887.399	19605
887.523	19430
887.648	19392
887.773	19339
887.897	19518
888.021	19521
888.146	19464
888.27	19434
888.395	19506
888.519	19537
888.643	19491
888.767	19609
888.891	19434
889.015	19228
889.139	19320
889.263	19289
889.387	19445
889.511	19525
889.635	19468
889.759	19308
889.883	19312
890.006	19274
890.13	19320
890.254	19175
890.377	19278
890.501	19118
890.624	19080
890.748	19042
890.871	18920
890.995	18829
891.118	18814
891.241	18863
891.364	18951
891.488	18977
891.611	18829
891.734	18833
891.857	18951
891.98	18848
892.103	18958
892.226	18939
892.349	18890
892.471	18642
892.594	18760
892.717	18814
892.839	18897
892.962	18875
893.085	18947
893.207	18719
893.33	18684
893.452	18760
893.575	18882
893.697	18768
893.819	19000
893.941	19031
894.064	18886
894.186	18783
894.308	18798
894.43	18920
894.552	18966
894.674	18970
894.796	18814
894.918	18787
895.04	18760
895.161	18996
895.283	19015
895.405	18802
895.526	18745
895.648	18905
895.769	18840
895.891	18871
896.012	18905
896.134	18852
896.255	19019
896.376	18867
896.498	18821
896.619	18867
896.74	18764
896.861	18928
896.982	19244
897.103	19297
897.224	19046
897.345	19122
897.466	19012
897.587	18996
897.708	19148
897.828	19069
897.949	19137
898.07	18954
898.19	19053
898.311	19091
898.431	19023
898.552	19053
898.672	19232
898.792	19175
898.913	19160
899.033	19069
899.153	18882
899.273	18791
899.393	18909
899.513	18840
899.633	18985
899.753	18738
899.873	18821
899.993	18897
900.113	18814
900.232	18791
900.352	18814
900.472	18703
900.591	18654
900.711	18642
900.83	18597
900.95	18783
901.069	18776
901.189	18517
901.308	18323
901.427	18197
901.546	18304
901.665	18308
901.784	18361
901.904	18178
902.023	18072
902.141	17965
902.26	17874
902.379	17889
902.498	17832
902.617	17802
902.735	17939
902.854	17878
902.973	17653
903.091	17512
903.21	17376
903.328	17497
903.446	17345
903.565	17284
903.683	17326
903.801	17143
903.919	17223
904.038	17288
904.156	17197
904.274	17181
904.392	17124
904.51	17102
904.627	17014
904.745	17147
904.863	17094
904.981	16809
905.098	16687
905.216	16786
905.334	16702
905.451	16710
905.569	16797
905.686	16820
905.803	16698
905.921	16527
906.038	16729
906.155	16596
906.272	16436
906.389	16481
906.506	16344
906.623	16223
906.74	16303
906.857	16135
906.974	16181
907.091	16436
907.208	16333
907.324	16192
907.441	16207
907.557	16032
907.674	16173
907.79	15945
907.907	15884
908.023	16147
908.139	16128
908.256	15983
908.372	15926
908.488	15857
908.604	15728
908.72	15713
908.836	15759
908.952	15682
909.068	15812
909.184	15831
909.3	15774
909.415	15755
909.531	15698
909.647	15515
909.762	15492
909.878	15428
909.993	15466
910.108	15462
910.224	15374
910.339	15401
910.454	15340
910.57	15222
910.685	15256
910.8	15519
910.915	15534
911.03	15355
911.145	15112
911.259	15131
911.374	15039
911.489	15062
911.604	15005
911.718	14849
911.833	14929
911.947	14765
912.062	14712
912.176	14804
912.291	15001
912.405	14941
912.519	15024
912.633	15051
912.748	14895
912.862	14849
912.976	14667
913.09	14473
913.204	14594
913.318	14686
913.431	14705
913.545	14746
913.659	14769
913.772	14594
913.886	14454
914	14476
914.113	14556
914.226	14495
914.34	14556
914.453	14427
914.566	14514
914.68	14351
914.793	14336
914.906	14153
915.019	14084
915.132	14058
915.245	13978
915.358	14130
915.47	14103
915.583	14077
915.696	14248
915.809	14320
915.921	14149
916.034	13982
916.146	14073
916.259	13947
916.371	14176
916.483	13982
916.595	13932
916.708	14027
916.82	14024
916.932	13906
917.044	13928
917.156	13940
917.268	13837
917.38	13868
917.491	13746
917.603	13784
917.715	13913
917.826	13887
917.938	13799
918.049	13647
918.161	13769
918.272	13883
918.384	13826
918.495	13700
918.606	13563
918.717	13491
918.828	13620
918.939	13620
919.05	13495
919.161	13578
919.272	13346
919.383	13525
919.494	13571
919.604	13746
919.715	13502
919.826	13521
919.936	13556
920.047	13696
920.157	13563
920.267	13765
920.378	13571
920.488	13540
920.598	13807
920.708	13826
920.818	13658
920.928	13704
921.038	13936
921.148	13780
921.258	13510
921.368	13369
921.477	13369
921.587	13225
921.697	13152
921.806	13388
921.916	13156
922.025	13012
922.134	12985
922.244	12867
922.353	13042
922.462	12875
922.571	12806
922.68	12745
922.789	12631
922.898	12703
923.007	12627
923.116	12654
923.224	12555
923.333	12707
923.442	12555
923.55	12433
923.659	12467
923.767	12475
923.876	12395
923.984	12612
924.092	12323
924.201	12407
924.309	12391
924.417	12388
924.525	12357
924.633	12422
924.741	13285
924.849	12133
924.956	12296
925.064	12114
925.172	12022
925.279	12049
925.387	12125
925.494	12038
925.602	12190
925.709	12197
925.816	12011
925.924	12117
926.031	12148
926.138	11935
926.245	12129
926.352	11980
926.459	12045
926.566	12182
926.673	11984
926.779	11920
926.886	11870
926.993	11771
927.099	11707
927.206	11619
927.312	11589
927.419	11767
927.525	11680
927.631	11783
927.737	11634
927.843	11543
927.95	11387
928.056	11535
928.162	11623
928.267	11448
928.373	12228
928.479	11611
928.585	11337
928.69	11516
928.796	11482
928.901	11497
929.007	11277
929.112	11440
929.218	11368
929.323	11341
929.428	11216
929.533	11379
929.638	11201
929.743	11223
929.848	11254
929.953	11273
930.058	11155
930.163	10949
930.267	11052
930.372	11201
930.477	10999
930.581	11220
930.685	11086
930.79	10839
930.894	10881
930.998	10820
931.103	10900
931.207	10675
931.311	10546
931.415	10500
931.519	10284
931.623	10272
