Data from test_V78500241_1508.txt Node
Date: Fri Mar 25 15:20:21 CST 2022
User: usil
Spectrometer: V785-0024
Trigger mode: 0
Integration Time (sec): 4.000000E-1
Scans to average: 1
Nonlinearity correction enabled: false
Boxcar width: 0
Storing dark spectrum: false
XAxis mode: Wavelengths
Number of Pixels in Spectrum: 1024
>>>>>Begin Spectral Data<<<<<
801.071	28074
801.214	28154
801.356	27713
801.499	27679
801.641	27542
801.783	27504
801.926	27591
802.068	27656
802.211	27534
802.353	27530
802.496	27386
802.638	27348
802.78	27260
802.923	27199
803.065	27192
803.208	27211
803.35	27344
803.492	27424
803.635	27302
803.777	27382
803.919	27507
804.061	27770
804.204	27504
804.346	27431
804.488	27302
804.63	27367
804.773	27408
804.915	27587
805.057	27587
805.199	27412
805.341	27485
805.483	27671
805.626	27488
805.768	27545
805.91	27542
806.052	27534
806.194	27424
806.336	27774
806.478	27648
806.62	27553
806.762	27713
806.904	27732
807.046	27960
807.188	27979
807.33	28040
807.472	28188
807.614	28097
807.756	28032
807.898	27899
808.04	27838
808.182	27922
808.324	27819
808.465	27888
808.607	28090
808.749	28185
808.891	28363
809.033	28481
809.174	28265
809.316	28268
809.458	28230
809.6	28223
809.741	28348
809.883	28440
810.025	28615
810.166	28580
810.308	28622
810.45	28512
810.591	28462
810.733	28223
810.875	28219
811.016	28169
811.158	28246
811.299	28356
811.441	28401
811.582	28261
811.724	28242
811.865	28204
812.007	28097
812.148	28265
812.29	28344
812.431	28440
812.573	28603
812.714	28694
812.855	28736
812.997	28774
813.138	29006
813.279	28919
813.421	28835
813.562	28672
813.703	28763
813.845	28649
813.986	28090
814.127	27987
814.268	28002
814.41	27956
814.551	27903
814.692	27975
814.833	27895
814.974	27838
815.115	27838
815.256	27819
815.397	27785
815.539	27778
815.68	27690
815.821	27682
815.962	27694
816.103	27690
816.244	27694
816.385	27466
816.526	27519
816.666	27382
816.807	27195
816.948	27325
817.089	27310
817.23	27370
817.371	27306
817.512	27420
817.653	27146
817.793	27051
817.934	27100
818.075	27081
818.216	27203
818.356	27173
818.497	27036
818.638	27104
818.778	27001
818.919	26960
819.06	27093
819.2	27127
819.341	27192
819.481	27283
819.622	27443
819.762	27656
819.903	27492
820.043	27416
820.184	27370
820.324	27256
820.465	27355
820.605	27332
820.746	27370
820.886	27123
821.026	27302
821.167	27241
821.307	27397
821.447	27329
821.588	27249
821.728	27032
821.868	26796
822.008	26587
822.149	26632
822.289	26701
822.429	26278
822.569	26438
822.709	26377
822.849	26240
822.99	26183
823.13	26229
823.27	26126
823.41	26077
823.55	25906
823.69	26035
823.83	26031
823.97	26153
824.11	25936
824.25	25841
824.389	25795
824.529	25974
824.669	25890
824.809	25902
824.949	26077
825.089	25909
825.228	25856
825.368	25662
825.508	25788
825.648	25746
825.787	25776
825.927	25769
826.067	25655
826.206	25628
826.346	25845
826.485	25750
826.625	25616
826.765	25811
826.904	25712
827.044	25563
827.183	25521
827.323	25422
827.462	25575
827.601	25464
827.741	25464
827.88	25624
828.02	25244
828.159	25339
828.298	25400
828.437	25479
828.577	25476
828.716	25438
828.855	25228
828.994	25198
829.134	25088
829.273	25244
829.412	25050
829.551	25023
829.69	24958
829.829	25095
829.968	25255
830.107	25114
830.246	25038
830.385	25091
830.524	25038
830.663	25008
830.802	24753
830.941	24779
831.08	24669
831.219	24757
831.357	24783
831.496	24966
831.635	24867
831.774	24620
831.913	24711
832.051	24570
832.19	24521
832.329	24642
832.467	24388
832.606	24437
832.744	24365
832.883	24429
833.022	24429
833.16	24399
833.299	24464
833.437	24422
833.576	24612
833.714	24410
833.852	24566
833.991	24604
834.129	24658
834.267	24547
834.406	24570
834.544	24509
834.682	24532
834.821	24422
834.959	24688
835.097	24342
835.235	24418
835.373	24460
835.511	24388
835.65	24308
835.788	24327
835.926	24110
836.064	24102
836.202	24114
836.34	24407
836.478	24304
836.615	24213
836.753	24346
836.891	24372
837.029	24350
837.167	24224
837.305	24102
837.443	24148
837.58	24129
837.718	24346
837.856	24243
837.993	24072
838.131	24129
838.269	24026
838.406	24110
838.544	23942
838.681	23809
838.819	23821
838.956	23562
839.094	23573
839.231	23611
839.369	23687
839.506	23984
839.643	23813
839.781	23573
839.918	23505
840.055	23577
840.193	23665
840.33	23528
840.467	23627
840.604	23589
840.742	23767
840.879	23398
841.016	23474
841.153	23288
841.29	23531
841.427	23436
841.564	23638
841.701	23509
841.838	23512
841.975	23455
842.112	23516
842.249	23345
842.385	23250
842.522	23296
842.659	23307
842.796	23227
842.933	23292
843.069	23284
843.206	23223
843.343	23326
843.479	23444
843.616	23307
843.752	23075
843.889	23258
844.025	23140
844.162	22987
844.298	23136
844.435	22976
844.571	23170
844.708	23064
844.844	23197
844.98	23090
845.117	23060
845.253	22991
845.389	22877
845.525	22942
845.661	22858
845.798	22771
845.934	22778
846.07	22702
846.206	22854
846.342	22889
846.478	22767
846.614	22569
846.75	22504
846.886	22455
847.022	22546
847.158	22565
847.294	22527
847.429	22565
847.565	22481
847.701	22611
847.837	22181
847.972	22067
848.108	22284
848.244	22325
848.379	22074
848.515	22120
848.65	22135
848.786	22128
848.921	22162
849.057	22181
849.192	22162
849.328	22051
849.463	22154
849.598	22010
849.734	21972
849.869	22013
850.004	21964
850.14	21888
850.275	21873
850.41	21751
850.545	21785
850.68	21781
850.815	21930
850.95	21812
851.085	22078
851.22	21956
851.355	21956
851.49	21907
851.625	21831
851.76	21930
851.895	21785
852.03	21736
852.165	21819
852.299	21899
852.434	21888
852.569	21804
852.703	21854
852.838	21895
852.973	21888
853.107	21956
853.242	21713
853.376	21652
853.511	21599
853.645	21663
853.78	21701
853.914	21770
854.048	21625
854.183	21614
854.317	21660
854.451	21823
854.585	21717
854.72	21720
854.854	21854
854.988	21561
855.122	21705
855.256	21439
855.39	21561
855.524	21679
855.658	21724
855.792	21652
855.926	21797
856.06	21736
856.194	21831
856.327	21686
856.461	21564
856.595	21519
856.729	21686
856.862	21785
856.996	21732
857.13	21698
857.263	21778
857.397	21698
857.53	21660
857.664	21713
857.797	21701
857.931	21739
858.064	21686
858.197	21679
858.331	21614
858.464	21591
858.597	21557
858.731	21705
858.864	21705
858.997	21637
859.13	21599
859.263	21603
859.396	21797
859.529	21652
859.662	21694
859.795	21561
859.928	21656
860.061	21660
860.194	21880
860.327	21762
860.46	21720
860.592	21698
860.725	21816
860.858	21804
860.99	21755
861.123	21629
861.256	21614
861.388	21732
861.521	22211
861.653	21648
861.786	21393
861.918	21580
862.05	21469
862.183	21553
862.315	21564
862.447	21644
862.58	21625
862.712	21351
862.844	21355
862.976	21553
863.108	21344
863.24	21895
863.372	21218
863.504	21348
863.636	21447
863.768	21370
863.9	21382
864.032	21348
864.164	21313
864.296	21447
864.428	21549
864.559	21435
864.691	21496
864.823	21447
864.954	21340
865.086	21336
865.217	21264
865.349	21214
865.48	21237
865.612	21386
865.743	21344
865.875	21313
866.006	21275
866.137	21279
866.269	21252
866.4	21176
866.531	21336
866.662	21142
866.793	21157
866.924	21195
867.055	21207
867.186	21074
867.317	21211
867.448	21112
867.579	21077
867.71	21051
867.841	21192
867.972	21237
868.103	21096
868.233	21116
868.364	21237
868.495	21264
868.625	21557
868.756	21485
868.886	21401
869.017	21492
869.147	21637
869.278	21545
869.408	21450
869.539	21363
869.669	21481
869.799	21481
869.929	21561
870.06	21538
870.19	21800
870.32	21629
870.45	21823
870.58	21652
870.71	21850
870.84	22044
870.97	21823
871.1	21827
871.23	21937
871.36	22044
871.489	21880
871.619	21934
871.749	21972
871.879	22162
872.008	22154
872.138	22006
872.267	22040
872.397	21819
872.526	21827
872.656	21930
872.785	21816
872.915	22055
873.044	22063
873.173	22021
873.303	22139
873.432	22166
873.561	22112
873.69	22040
873.819	22044
873.948	22067
874.077	22059
874.206	21964
874.335	22078
874.464	22204
874.593	22261
874.722	22249
874.851	22344
874.979	22314
875.108	22299
875.237	22230
875.365	22032
875.494	22070
875.623	22325
875.751	22219
875.88	22344
876.008	22394
876.136	22398
876.265	22626
876.393	22664
876.521	22691
876.65	22653
876.778	22778
876.906	22554
877.034	22538
877.162	22542
877.29	22584
877.418	22729
877.546	22656
877.674	22683
877.802	22679
877.93	22538
878.058	22535
878.185	22466
878.313	22554
878.441	22577
878.568	22485
878.696	22653
878.824	22687
878.951	22702
879.079	22694
879.206	22885
879.333	22839
879.461	22672
879.588	22687
879.715	22752
879.842	22782
879.97	22660
880.097	22405
880.224	22375
880.351	22504
880.478	22390
880.605	22375
880.732	22447
880.859	22577
880.986	22398
881.112	22478
881.239	22413
881.366	22166
881.493	22086
881.619	22017
881.746	22101
881.872	22093
881.999	22059
882.125	21937
882.252	22006
882.378	21934
882.505	22055
882.631	21739
882.757	21789
882.883	21865
883.01	21717
883.136	21603
883.262	21485
883.388	21633
883.514	21679
883.64	21637
883.766	21622
883.892	21450
884.018	21492
884.143	21686
884.269	21663
884.395	21393
884.52	21428
884.646	21424
884.772	21363
884.897	21226
885.023	21412
885.148	21466
885.274	21511
885.399	21504
885.524	21336
885.65	21370
885.775	21348
885.9	21222
886.025	21424
886.15	21355
886.275	21302
886.4	21211
886.525	21283
886.65	21222
886.775	21306
886.9	21496
887.025	21523
887.149	21188
887.274	21005
887.399	21108
887.523	21013
887.648	20971
887.773	20910
887.897	21051
888.021	21146
888.146	21066
888.27	21165
888.395	21180
888.519	21062
888.643	21154
888.767	21074
888.891	20887
889.015	20849
889.139	20929
889.263	20830
889.387	20910
889.511	21066
889.635	20971
889.759	20891
889.883	20819
890.006	20872
890.13	20918
890.254	20785
890.377	20868
890.501	20648
890.624	20590
890.748	20644
890.871	20613
890.995	20404
891.118	20278
891.241	20385
891.364	20450
891.488	20446
891.611	20537
891.734	20427
891.857	20552
891.98	20492
892.103	20343
892.226	20438
892.349	20469
892.471	20237
892.594	20278
892.717	20434
892.839	20317
892.962	20366
893.085	20313
893.207	20267
893.33	20336
893.452	20263
893.575	20492
893.697	20244
893.819	20473
893.941	20499
894.064	20537
894.186	20248
894.308	20191
894.43	20476
894.552	20476
894.674	20522
894.796	20248
894.918	20362
895.04	20157
895.161	20309
895.283	20339
895.405	20294
895.526	20320
895.648	20423
895.769	20313
895.891	20465
896.012	20442
896.134	20355
896.255	20415
896.376	20355
896.498	20355
896.619	20339
896.74	20339
896.861	20473
896.982	20686
897.103	20735
897.224	20670
897.345	20560
897.466	20625
897.587	20492
897.708	20575
897.828	20537
897.949	20560
898.07	20438
898.19	20362
898.311	20712
898.431	20434
898.552	20621
898.672	20518
898.792	20678
898.913	20602
899.033	20488
899.153	20343
899.273	20206
899.393	20294
899.513	20282
899.633	20286
899.753	20317
899.873	20195
899.993	20328
900.113	20240
900.232	20267
900.352	20263
900.472	20149
900.591	20039
900.711	19997
900.83	19989
900.95	20202
901.069	20046
901.189	20001
901.308	19696
901.427	19647
901.546	19590
901.665	19700
901.784	19601
901.904	19514
902.023	19453
902.141	19198
902.26	19156
902.379	19232
902.498	19164
902.617	19088
902.735	19148
902.854	19179
902.973	18996
903.091	18905
903.21	18916
903.328	18779
903.446	18684
903.565	18722
903.683	18601
903.801	18574
903.919	18574
904.038	18578
904.156	18429
904.274	18479
904.392	18410
904.51	18456
904.627	18475
904.745	18388
904.863	18372
904.981	18102
905.098	18148
905.216	18041
905.334	18095
905.451	18117
905.569	18102
905.686	18167
905.803	18129
905.921	17901
906.038	17973
906.155	17802
906.272	17760
906.389	17847
906.506	17653
906.623	17642
906.74	17695
906.857	17512
906.974	17570
907.091	17604
907.208	17786
907.324	17592
907.441	17474
907.557	17360
907.674	17387
907.79	17372
907.907	17288
908.023	17436
908.139	17322
908.256	17337
908.372	17429
908.488	17136
908.604	17067
908.72	17025
908.836	17071
908.952	17083
909.068	17064
909.184	17086
909.3	17140
909.415	17079
909.531	17155
909.647	16850
909.762	16873
909.878	16774
909.993	16801
910.108	16824
910.224	16805
910.339	16778
910.454	16660
910.57	16546
910.685	16451
910.8	16786
910.915	16710
911.03	16519
911.145	16398
911.259	16348
911.374	16310
911.489	16211
911.604	16242
911.718	16090
911.833	16021
911.947	15991
912.062	15895
912.176	16013
912.291	16021
912.405	16139
912.519	16333
912.633	16276
912.748	16063
912.862	16051
912.976	15861
913.09	15724
913.204	15854
913.318	15953
913.431	15953
913.545	15945
913.659	15972
913.772	15880
913.886	15755
914	15781
914.113	15781
914.226	15804
914.34	15808
914.453	15610
914.566	15819
914.68	15656
914.793	15504
914.906	15488
915.019	15245
915.132	15298
915.245	15355
915.358	15454
915.47	15351
915.583	15355
915.696	15287
915.809	15355
915.921	15458
916.034	15283
916.146	15195
916.259	15150
916.371	15317
916.483	15272
916.595	15142
916.708	15161
916.82	15097
916.932	15077
917.044	15039
917.156	15062
917.268	14979
917.38	15051
917.491	14941
917.603	14933
917.715	14990
917.826	15028
917.938	14857
918.049	14826
918.161	14857
918.272	14960
918.384	15100
918.495	14796
918.606	14731
918.717	14697
918.828	14731
918.939	14746
919.05	14613
919.161	14701
919.272	14450
919.383	14560
919.494	14739
919.604	14785
919.715	14632
919.826	14632
919.936	14632
920.047	14720
920.157	14712
920.267	14872
920.378	14655
920.488	14621
920.598	14838
920.708	14914
920.818	14876
920.928	14899
921.038	14849
921.148	14838
921.258	14640
921.368	14530
921.477	14408
921.587	14469
921.697	14191
921.806	14419
921.916	14187
922.025	14130
922.134	14058
922.244	14092
922.353	13986
922.462	13902
922.571	13803
922.68	13624
922.789	13616
922.898	13753
923.007	13643
923.116	13708
923.224	13723
923.333	13563
923.442	13495
923.55	13537
923.659	13537
923.767	13613
923.876	13491
923.984	13529
924.092	13362
924.201	13407
924.309	13491
924.417	13449
924.525	13297
924.633	13335
924.741	14180
924.849	13164
924.956	13312
925.064	13145
925.172	13042
925.279	13080
925.387	13034
925.494	13126
925.602	13247
925.709	13099
925.816	13019
925.924	13179
926.031	13129
926.138	13000
926.245	13034
926.352	12901
926.459	13110
926.566	13031
926.673	12973
926.779	12821
926.886	12852
926.993	12658
927.099	12627
927.206	12669
927.312	12646
927.419	12669
927.525	12684
927.631	12612
927.737	12608
927.843	12517
927.95	12422
928.056	12513
928.162	12536
928.267	12528
928.373	13095
928.479	12566
928.585	12338
928.69	12426
928.796	12513
928.901	12380
929.007	12239
929.112	12220
929.218	12330
929.323	12194
929.428	12209
929.533	12327
929.638	12182
929.743	12121
929.848	12235
929.953	12121
930.058	11992
930.163	11836
930.267	11958
930.372	12117
930.477	11809
930.581	12121
930.685	11901
930.79	11756
930.894	11790
930.998	11832
931.103	11889
931.207	11524
931.311	11490
931.415	11360
931.519	11128
931.623	11143
