Data from test_V78500241_1752.txt Node
Date: Fri Mar 25 15:22:03 CST 2022
User: usil
Spectrometer: V785-0024
Trigger mode: 0
Integration Time (sec): 4.000000E-1
Scans to average: 1
Nonlinearity correction enabled: false
Boxcar width: 0
Storing dark spectrum: false
XAxis mode: Wavelengths
Number of Pixels in Spectrum: 1024
>>>>>Begin Spectral Data<<<<<
801.071	27873
801.214	27804
801.356	27408
801.499	27633
801.641	27511
801.783	27401
801.926	27473
802.068	27355
802.211	27291
802.353	27230
802.496	27154
802.638	27005
802.78	27165
802.923	26952
803.065	26967
803.208	27001
803.35	26948
803.492	27085
803.635	27252
803.777	27123
803.919	27096
804.061	27439
804.204	27359
804.346	27233
804.488	27154
804.63	27154
804.773	27135
804.915	27321
805.057	27199
805.199	27077
805.341	27355
805.483	27351
805.626	27401
805.768	27245
805.91	27397
806.052	27370
806.194	27150
806.336	27477
806.478	27230
806.62	27431
806.762	27614
806.904	27564
807.046	27884
807.188	27778
807.33	27766
807.472	27865
807.614	27808
807.756	27682
807.898	27568
808.04	27568
808.182	27698
808.324	27717
808.465	27629
808.607	27865
808.749	27991
808.891	28097
809.033	28048
809.174	28097
809.316	27941
809.458	27979
809.6	27979
809.741	28032
809.883	28219
810.025	28295
810.166	28215
810.308	28268
810.45	28291
810.591	28078
810.733	27991
810.875	27922
811.016	27922
811.158	27914
811.299	27991
811.441	28192
811.582	28070
811.724	27873
811.865	27922
812.007	28002
812.148	27964
812.29	27998
812.431	28055
812.573	28348
812.714	28535
812.855	28519
812.997	28596
813.138	28748
813.279	28634
813.421	28542
813.562	28428
813.703	28261
813.845	28188
813.986	27857
814.127	27831
814.268	27625
814.41	27641
814.551	27629
814.692	27656
814.833	27637
814.974	27717
815.115	27770
815.256	27534
815.397	27576
815.539	27549
815.68	27504
815.821	27397
815.962	27378
816.103	27443
816.244	27306
816.385	27226
816.526	27313
816.666	27096
816.807	26982
816.948	27089
817.089	27036
817.23	26948
817.371	26990
817.512	26963
817.653	27070
817.793	26868
817.934	27024
818.075	26994
818.216	26883
818.356	26975
818.497	26788
818.638	26511
818.778	26739
818.919	26838
819.06	26587
819.2	26883
819.341	26994
819.481	26967
819.622	27077
819.762	27260
819.903	27108
820.043	27032
820.184	27074
820.324	27123
820.465	27005
820.605	26933
820.746	27009
820.886	26925
821.026	27058
821.167	26933
821.307	27005
821.447	27017
821.588	26819
821.728	26705
821.868	26583
822.008	26450
822.149	26366
822.289	26480
822.429	26134
822.569	26130
822.709	26069
822.849	25803
822.99	25993
823.13	25868
823.27	25814
823.41	25814
823.55	25670
823.69	25811
823.83	25715
823.97	25704
824.11	25601
824.25	25491
824.389	25700
824.529	25704
824.669	25552
824.809	25727
824.949	25700
825.089	25666
825.228	25609
825.368	25426
825.508	25373
825.648	25472
825.787	25533
825.927	25464
826.067	25327
826.206	25419
826.346	25441
826.485	25605
826.625	25396
826.765	25563
826.904	25369
827.044	25331
827.183	25293
827.323	25236
827.462	25297
827.601	25297
827.741	25050
827.88	25232
828.02	25072
828.159	25084
828.298	25213
828.437	25350
828.577	25088
828.716	25240
828.855	25015
828.994	24958
829.134	24768
829.273	24932
829.412	24962
829.551	24894
829.69	24886
829.829	24837
829.968	24935
830.107	24924
830.246	24916
830.385	24787
830.524	24753
830.663	24757
830.802	24795
830.941	24498
831.08	24490
831.219	24490
831.357	24582
831.496	24722
831.635	24582
831.774	24540
831.913	24490
832.051	24281
832.19	24285
832.329	24174
832.467	24209
832.606	24186
832.744	24148
832.883	24266
833.022	24178
833.16	24194
833.299	24060
833.437	24159
833.576	24186
833.714	24254
833.852	24251
833.991	24289
834.129	24251
834.267	24296
834.406	24167
834.544	24243
834.682	24292
834.821	24216
834.959	24460
835.097	24251
835.235	24251
835.373	24342
835.511	24334
835.65	24232
835.788	24228
835.926	23965
836.064	23893
836.202	23828
836.34	24057
836.478	24155
836.615	24045
836.753	24136
836.891	24148
837.029	24213
837.167	24064
837.305	24155
837.443	24030
837.58	23958
837.718	23996
837.856	23935
837.993	23707
838.131	23935
838.269	23756
838.406	23950
838.544	23691
838.681	23608
838.819	23516
838.956	23341
839.094	23364
839.231	23452
839.369	23547
839.506	23817
839.643	23718
839.781	23337
839.918	23296
840.055	23372
840.193	23376
840.33	23220
840.467	23288
840.604	23391
840.742	23638
840.879	23250
841.016	23269
841.153	23254
841.29	23414
841.427	23292
841.564	23356
841.701	23288
841.838	23231
841.975	23258
842.112	23315
842.249	23189
842.385	23121
842.522	23284
842.659	23003
842.796	23155
842.933	23121
843.069	23064
843.206	23075
843.343	23067
843.479	23044
843.616	23128
843.752	22801
843.889	22869
844.025	22957
844.162	22820
844.298	22885
844.435	22965
844.571	22763
844.708	23048
844.844	23048
844.98	23014
845.117	22881
845.253	22820
845.389	22759
845.525	22843
845.661	22725
845.798	22542
845.934	22637
846.07	22523
846.206	22538
846.342	22637
846.478	22668
846.614	22363
846.75	22295
846.886	22398
847.022	22481
847.158	22382
847.294	22284
847.429	22367
847.565	22314
847.701	22489
847.837	22006
847.972	22101
848.108	22090
848.244	22074
848.379	22055
848.515	22021
848.65	21964
848.786	21907
848.921	21987
849.057	22131
849.192	22029
849.328	21991
849.463	21895
849.598	21918
849.734	21755
849.869	21857
850.004	21675
850.14	21717
850.275	21778
850.41	21496
850.545	21682
850.68	21698
850.815	21686
850.95	21747
851.085	21972
851.22	21880
851.355	21629
851.49	21614
851.625	21800
851.76	21713
851.895	21606
852.03	21641
852.165	21629
852.299	21656
852.434	21800
852.569	21656
852.703	21568
852.838	21797
852.973	21804
853.107	21846
853.242	21633
853.376	21599
853.511	21401
853.645	21507
853.78	21545
853.914	21526
854.048	21466
854.183	21511
854.317	21515
854.451	21549
854.585	21572
854.72	21492
854.854	21568
854.988	21408
855.122	21622
855.256	21386
855.39	21370
855.524	21523
855.658	21534
855.792	21545
855.926	21568
856.06	21545
856.194	21549
856.327	21481
856.461	21500
856.595	21431
856.729	21511
856.862	21542
856.996	21511
857.13	21523
857.263	21625
857.397	21606
857.53	21572
857.664	21492
857.797	21591
857.931	21660
858.064	21542
858.197	21622
858.331	21538
858.464	21504
858.597	21420
858.731	21443
858.864	21458
858.997	21481
859.13	21466
859.263	21515
859.396	21614
859.529	21485
859.662	21378
859.795	21367
859.928	21576
860.061	21720
860.194	21679
860.327	21500
860.46	21542
860.592	21572
860.725	21656
860.858	21580
860.99	21378
861.123	21473
861.256	21401
861.388	21466
861.521	21994
861.653	21321
861.786	21287
861.918	21260
862.05	21401
862.183	21462
862.315	21500
862.447	21526
862.58	21393
862.712	21310
862.844	21138
862.976	21294
863.108	21256
863.24	21633
863.372	21055
863.504	21192
863.636	21222
863.768	21332
863.9	21230
864.032	21287
864.164	21188
864.296	21252
864.428	21351
864.559	21203
864.691	21287
864.823	21264
864.954	21123
865.086	21176
865.217	21135
865.349	21024
865.48	21135
865.612	21028
865.743	21211
865.875	21085
866.006	21020
866.137	21089
866.269	21142
866.4	21024
866.531	20990
866.662	20979
866.793	21024
866.924	20998
867.055	21081
867.186	21043
867.317	21024
867.448	20872
867.579	21005
867.71	21020
867.841	21070
867.972	21096
868.103	21051
868.233	21070
868.364	21112
868.495	21199
868.625	21249
868.756	21321
868.886	21085
869.017	21294
869.147	21405
869.278	21340
869.408	21199
869.539	21279
869.669	21310
869.799	21332
869.929	21416
870.06	21443
870.19	21530
870.32	21549
870.45	21500
870.58	21496
870.71	21751
870.84	21774
870.97	21690
871.1	21728
871.23	21762
871.36	21953
871.489	21903
871.619	21816
871.749	21705
871.879	21873
872.008	21983
872.138	22021
872.267	21804
872.397	21781
872.526	21614
872.656	21736
872.785	21762
872.915	22013
873.044	21850
873.173	21945
873.303	21899
873.432	21793
873.561	22074
873.69	21865
873.819	21884
873.948	21972
874.077	21888
874.206	21983
874.335	21850
874.464	21937
874.593	22249
874.722	22063
874.851	22143
874.979	22139
875.108	22219
875.237	22173
875.365	22063
875.494	21994
875.623	22173
875.751	22093
875.88	22204
876.008	22303
876.136	22215
876.265	22474
876.393	22569
876.521	22561
876.65	22527
876.778	22554
876.906	22417
877.034	22436
877.162	22417
877.29	22432
877.418	22443
877.546	22447
877.674	22470
877.802	22413
877.93	22462
878.058	22421
878.185	22363
878.313	22447
878.441	22512
878.568	22363
878.696	22371
878.824	22284
878.951	22489
879.079	22713
879.206	22839
879.333	22569
879.461	22512
879.588	22546
879.715	22459
879.842	22778
879.97	22550
880.097	22306
880.224	22356
880.351	22261
880.478	22413
880.605	22211
880.732	22249
880.859	22405
880.986	22242
881.112	22261
881.239	22249
881.366	22067
881.493	22025
881.619	21888
881.746	21797
881.872	21926
881.999	21827
882.125	21751
882.252	21949
882.378	21789
882.505	21956
882.631	21747
882.757	21610
882.883	21690
883.01	21538
883.136	21545
883.262	21485
883.388	21492
883.514	21545
883.64	21614
883.766	21496
883.892	21401
884.018	21367
884.143	21412
884.269	21656
884.395	21207
884.52	21127
884.646	21237
884.772	21077
884.897	21074
885.023	21188
885.148	21351
885.274	21351
885.399	21199
885.524	21096
885.65	21268
885.775	21275
885.9	21184
886.025	21294
886.15	21325
886.275	21104
886.4	21207
886.525	21066
886.65	21173
886.775	21081
886.9	21233
887.025	21431
887.149	21195
887.274	20902
887.399	20899
887.523	21055
887.648	20845
887.773	20883
887.897	21024
888.021	21001
888.146	20899
888.27	21089
888.395	21043
888.519	20967
888.643	21001
888.767	21055
888.891	20979
889.015	20800
889.139	20781
889.263	20735
889.387	20868
889.511	20956
889.635	20887
889.759	20651
889.883	20720
890.006	20781
890.13	20883
890.254	20674
890.377	20686
890.501	20514
890.624	20431
890.748	20583
890.871	20457
890.995	20252
891.118	20214
891.241	20377
891.364	20393
891.488	20541
891.611	20495
891.734	20286
891.857	20431
891.98	20347
892.103	20275
892.226	20370
892.349	20267
892.471	20065
892.594	20244
892.717	20221
892.839	20172
892.962	20275
893.085	20244
893.207	20286
893.33	20138
893.452	20138
893.575	20313
893.697	20305
893.819	20286
893.941	20431
894.064	20400
894.186	20157
894.308	20248
894.43	20389
894.552	20358
894.674	20298
894.796	20256
894.918	20248
895.04	20282
895.161	20298
895.283	20218
895.405	20275
895.526	20225
895.648	20103
895.769	20168
895.891	20256
896.012	20275
896.134	20324
896.255	20328
896.376	20084
896.498	20202
896.619	20240
896.74	20126
896.861	20240
896.982	20419
897.103	20636
897.224	20400
897.345	20419
897.466	20393
897.587	20514
897.708	20590
897.828	20389
897.949	20377
898.07	20290
898.19	20339
898.311	20533
898.431	20324
898.552	20385
898.672	20476
898.792	20602
898.913	20526
899.033	20317
899.153	20122
899.273	20176
899.393	20161
899.513	20183
899.633	20138
899.753	20161
899.873	20081
899.993	20187
900.113	20081
900.232	19982
900.352	19986
900.472	19989
900.591	19883
900.711	19944
900.83	19856
900.95	20050
901.069	20012
901.189	19746
901.308	19525
901.427	19487
901.546	19480
901.665	19643
901.784	19609
901.904	19483
902.023	19304
902.141	19122
902.26	19046
902.379	19107
902.498	19072
902.617	18966
902.735	19129
902.854	19065
902.973	18977
903.091	18798
903.21	18730
903.328	18627
903.446	18604
903.565	18494
903.683	18452
903.801	18315
903.919	18483
904.038	18452
904.156	18346
904.274	18319
904.392	18346
904.51	18167
904.627	18190
904.745	18365
904.863	18441
904.981	18007
905.098	17912
905.216	17988
905.334	18038
905.451	17939
905.569	17950
905.686	18057
905.803	17847
905.921	17775
906.038	17840
906.155	17813
906.272	17570
906.389	17684
906.506	17589
906.623	17585
906.74	17532
906.857	17398
906.974	17440
907.091	17638
907.208	17604
907.324	17520
907.441	17379
907.557	17277
907.674	17349
907.79	17117
907.907	17269
908.023	17261
908.139	17159
908.256	17140
908.372	17079
908.488	17029
908.604	17048
908.72	16953
908.836	16965
908.952	16831
909.068	17003
909.184	17041
909.3	16957
909.415	16938
909.531	16908
909.647	16740
909.762	16569
909.878	16542
909.993	16588
910.108	16565
910.224	16375
910.339	16580
910.454	16470
910.57	16424
910.685	16352
910.8	16713
910.915	16504
911.03	16390
911.145	16325
911.259	16234
911.374	16253
911.489	16143
911.604	16101
911.718	15945
911.833	16021
911.947	15960
912.062	15743
912.176	15823
912.291	15987
912.405	15968
912.519	16219
912.633	16139
912.748	16010
912.862	15937
912.976	15755
913.09	15842
913.204	15728
913.318	15747
913.431	15785
913.545	15880
913.659	15876
913.772	15694
913.886	15663
914	15488
914.113	15580
914.226	15724
914.34	15610
914.453	15428
914.566	15591
914.68	15618
914.793	15412
914.906	15195
915.019	15173
915.132	15070
915.245	15176
915.358	15211
915.47	15192
915.583	15150
915.696	15222
915.809	15264
915.921	15237
916.034	15131
916.146	15055
916.259	15089
916.371	15180
916.483	15146
916.595	15032
916.708	14971
916.82	14960
916.932	15104
917.044	14960
917.156	14902
917.268	14823
917.38	14872
917.491	14895
917.603	14815
917.715	14883
917.826	14887
917.938	14788
918.049	14693
918.161	14785
918.272	14910
918.384	14826
918.495	14701
918.606	14625
918.717	14533
918.828	14617
918.939	14492
919.05	14495
919.161	14575
919.272	14377
919.383	14412
919.494	14655
919.604	14815
919.715	14568
919.826	14522
919.936	14503
920.047	14674
920.157	14644
920.267	14701
920.378	14461
920.488	14579
920.598	14716
920.708	14876
920.818	14655
920.928	14617
921.038	14868
921.148	14743
921.258	14476
921.368	14427
921.477	14339
921.587	14309
921.697	14187
921.806	14320
921.916	14111
922.025	13921
922.134	13967
922.244	13845
922.353	13909
922.462	13780
922.571	13765
922.68	13685
922.789	13647
922.898	13552
923.007	13567
923.116	13651
923.224	13594
923.333	13491
923.442	13377
923.55	13343
923.659	13533
923.767	13400
923.876	13320
923.984	13396
924.092	13251
924.201	13324
924.309	13331
924.417	13362
924.525	13247
924.633	13270
924.741	14073
924.849	13019
924.956	13145
925.064	13027
925.172	12932
925.279	13000
925.387	12970
925.494	13023
925.602	13015
925.709	13080
925.816	12817
925.924	12890
926.031	13050
926.138	12939
926.245	12924
926.352	12814
926.459	12939
926.566	13027
926.673	12791
926.779	12738
926.886	12772
926.993	12616
927.099	12563
927.206	12498
927.312	12559
927.419	12563
927.525	12494
927.631	12585
927.737	12448
927.843	12403
927.95	12243
928.056	12445
928.162	12369
928.267	12452
928.373	13034
928.479	12433
928.585	12213
928.69	12346
928.796	12311
928.901	12300
929.007	12125
929.112	12319
929.218	12102
929.323	12060
929.428	12136
929.533	12186
929.638	11954
929.743	12121
929.848	12148
929.953	12068
930.058	11866
930.163	11817
930.267	11866
930.372	11882
930.477	11733
930.581	11988
930.685	11764
930.79	11726
930.894	11596
930.998	11623
931.103	11783
931.207	11501
931.311	11345
931.415	11296
931.519	11109
931.623	10999
