Data from test_V78500241_121.txt Node
Date: Fri Mar 25 15:10:42 CST 2022
User: usil
Spectrometer: V785-0024
Trigger mode: 0
Integration Time (sec): 4.000000E-1
Scans to average: 1
Nonlinearity correction enabled: false
Boxcar width: 0
Storing dark spectrum: false
XAxis mode: Wavelengths
Number of Pixels in Spectrum: 1024
>>>>>Begin Spectral Data<<<<<
801.071	28169
801.214	27998
801.356	27759
801.499	27785
801.641	27591
801.783	27686
801.926	27625
802.068	27538
802.211	27370
802.353	27450
802.496	27424
802.638	27306
802.78	27154
802.923	27119
803.065	27005
803.208	27135
803.35	27283
803.492	27245
803.635	27378
803.777	27123
803.919	27405
804.061	27732
804.204	27553
804.346	27218
804.488	27203
804.63	27340
804.773	27214
804.915	27321
805.057	27393
805.199	27310
805.341	27306
805.483	27329
805.626	27317
805.768	27138
805.91	27397
806.052	27462
806.194	27237
806.336	27492
806.478	27504
806.62	27336
806.762	27393
806.904	27587
807.046	27831
807.188	27732
807.33	27713
807.472	27713
807.614	27785
807.756	27610
807.898	27625
808.04	27591
808.182	27481
808.324	27572
808.465	27561
808.607	27717
808.749	27850
808.891	27914
809.033	27975
809.174	28048
809.316	27945
809.458	27964
809.6	27789
809.741	27835
809.883	27983
810.025	28048
810.166	28078
810.308	28074
810.45	28006
810.591	28013
810.733	27778
810.875	27694
811.016	27770
811.158	27705
811.299	27762
811.441	27972
811.582	27846
811.724	27793
811.865	27743
812.007	27842
812.148	27808
812.29	27736
812.431	27873
812.573	28131
812.714	28219
812.855	28268
812.997	28226
813.138	28455
813.279	28512
813.421	28352
813.562	28211
813.703	28124
813.845	27899
813.986	27736
814.127	27576
814.268	27454
814.41	27515
814.551	27427
814.692	27462
814.833	27435
814.974	27389
815.115	27405
815.256	27249
815.397	27230
815.539	27260
815.68	26986
815.821	27146
815.962	27329
816.103	27275
816.244	27138
816.385	26861
816.526	27055
816.666	26678
816.807	26636
816.948	26564
817.089	26743
817.23	26655
817.371	26415
817.512	26564
817.653	26598
817.793	26488
817.934	26438
818.075	26625
818.216	26632
818.356	26594
818.497	26370
818.638	26229
818.778	26252
818.919	26176
819.06	26355
819.2	26366
819.341	26465
819.481	26476
819.622	26564
819.762	26804
819.903	26659
820.043	26545
820.184	26522
820.324	26712
820.465	26549
820.605	26484
820.746	26507
820.886	26415
821.026	26358
821.167	26499
821.307	26632
821.447	26530
821.588	26324
821.728	26267
821.868	26142
822.008	25951
822.149	25955
822.289	25917
822.429	25670
822.569	25575
822.709	25449
822.849	25457
822.99	25460
823.13	25430
823.27	25301
823.41	25171
823.55	25194
823.69	25141
823.83	25209
823.97	25209
824.11	25061
824.25	25000
824.389	25091
824.529	25095
824.669	25004
824.809	25072
824.949	25031
825.089	25042
825.228	24973
825.368	24844
825.508	24810
825.648	24772
825.787	24867
825.927	24821
826.067	24696
826.206	24810
826.346	24890
826.485	24806
826.625	24829
826.765	24951
826.904	24939
827.044	24486
827.183	24479
827.323	24346
827.462	24650
827.601	24509
827.741	24502
827.88	24403
828.02	24201
828.159	24494
828.298	24513
828.437	24574
828.577	24429
828.716	24544
828.855	24311
828.994	24178
829.134	24083
829.273	24311
829.412	24057
829.551	24129
829.69	24148
829.829	24201
829.968	24243
830.107	24095
830.246	24018
830.385	24026
830.524	24053
830.663	23923
830.802	23718
830.941	23760
831.08	23665
831.219	23779
831.357	23726
831.496	24030
831.635	23661
831.774	23627
831.913	23615
832.051	23410
832.19	23543
832.329	23395
832.467	23448
832.606	23395
832.744	23398
832.883	23326
833.022	23296
833.16	23341
833.299	23398
833.437	23353
833.576	23353
833.714	23387
833.852	23410
833.991	23364
834.129	23535
834.267	23459
834.406	23330
834.544	23269
834.682	23459
834.821	23296
834.959	23379
835.097	23364
835.235	23414
835.373	23296
835.511	23223
835.65	23254
835.788	23235
835.926	23006
836.064	23079
836.202	23086
836.34	23231
836.478	23216
836.615	23155
836.753	23200
836.891	23208
837.029	23098
837.167	23185
837.305	23178
837.443	23113
837.58	23143
837.718	23178
837.856	23060
837.993	22873
838.131	22976
838.269	22892
838.406	22991
838.544	22805
838.681	22592
838.819	22702
838.956	22344
839.094	22424
839.231	22500
839.369	22577
839.506	22801
839.643	22668
839.781	22470
839.918	22348
840.055	22390
840.193	22325
840.33	22291
840.467	22432
840.604	22455
840.742	22603
840.879	22204
841.016	22226
841.153	22265
841.29	22485
841.427	22386
841.564	22295
841.701	22341
841.838	22325
841.975	22287
842.112	22192
842.249	22226
842.385	22029
842.522	22265
842.659	22234
842.796	21987
842.933	22074
843.069	21972
843.206	21956
843.343	22040
843.479	22032
843.616	21994
843.752	21911
843.889	21675
844.025	22086
844.162	21800
844.298	21823
844.435	21819
844.571	21880
844.708	21835
844.844	21956
844.98	21987
845.117	21972
845.253	21857
845.389	21720
845.525	21728
845.661	21774
845.798	21599
845.934	21553
846.07	21530
846.206	21473
846.342	21698
846.478	21618
846.614	21302
846.75	21207
846.886	21389
847.022	21264
847.158	21294
847.294	21245
847.429	21298
847.565	21157
847.701	21428
847.837	21070
847.972	20769
848.108	21062
848.244	21070
848.379	20937
848.515	20758
848.65	20845
848.786	21032
848.921	20868
849.057	20994
849.192	21036
849.328	20880
849.463	20815
849.598	20663
849.734	20682
849.869	20716
850.004	20781
850.14	20644
850.275	20598
850.41	20503
850.545	20587
850.68	20552
850.815	20609
850.95	20522
851.085	20701
851.22	20697
851.355	20492
851.49	20583
851.625	20575
851.76	20514
851.895	20446
852.03	20446
852.165	20629
852.299	20473
852.434	20636
852.569	20606
852.703	20495
852.838	20545
852.973	20644
853.107	20686
853.242	20412
853.376	20427
853.511	20343
853.645	20309
853.78	20526
853.914	20355
854.048	20263
854.183	20271
854.317	20351
854.451	20549
854.585	20389
854.72	20324
854.854	20328
854.988	20248
855.122	20381
855.256	20336
855.39	20294
855.524	20545
855.658	20366
855.792	20385
855.926	20415
856.06	20393
856.194	20461
856.327	20336
856.461	20202
856.595	20332
856.729	20275
856.862	20431
856.996	20343
857.13	20377
857.263	20457
857.397	20484
857.53	20412
857.664	20358
857.797	20412
857.931	20469
858.064	20370
858.197	20412
858.331	20233
858.464	20305
858.597	20172
858.731	20298
858.864	20347
858.997	20305
859.13	20408
859.263	20294
859.396	20339
859.529	20161
859.662	20195
859.795	20229
859.928	20336
860.061	20434
860.194	20533
860.327	20328
860.46	20404
860.592	20298
860.725	20461
860.858	20454
860.99	20252
861.123	20126
861.256	20145
861.388	20278
861.521	21058
861.653	20218
861.786	20157
861.918	20126
862.05	20362
862.183	20339
862.315	20366
862.447	20404
862.58	20244
862.712	20138
862.844	20058
862.976	20012
863.108	20024
863.24	20526
863.372	19932
863.504	20065
863.636	19856
863.768	20058
863.9	19986
864.032	19830
864.164	19944
864.296	19955
864.428	20020
864.559	19951
864.691	20153
864.823	20046
864.954	20035
865.086	19974
865.217	19860
865.349	19913
865.48	19890
865.612	19864
865.743	20058
865.875	19890
866.006	19841
866.137	20008
866.269	19830
866.4	19944
866.531	19849
866.662	19776
866.793	19917
866.924	19826
867.055	19833
867.186	19852
867.317	19826
867.448	19742
867.579	19753
867.71	19746
867.841	19712
867.972	19902
868.103	19951
868.233	19936
868.364	19871
868.495	19837
868.625	20172
868.756	20191
868.886	19845
869.017	20142
869.147	20237
869.278	20134
869.408	20100
869.539	19974
869.669	20202
869.799	20077
869.929	20290
870.06	20176
870.19	20434
870.32	20282
870.45	20385
870.58	20442
870.71	20602
870.84	20575
870.97	20412
871.1	20549
871.23	20556
871.36	20762
871.489	20663
871.619	20617
871.749	20640
871.879	20583
872.008	20750
872.138	20609
872.267	20765
872.397	20625
872.526	20473
872.656	20492
872.785	20469
872.915	20678
873.044	20887
873.173	20617
873.303	20720
873.432	20606
873.561	20906
873.69	20731
873.819	20735
873.948	20659
874.077	20731
874.206	20667
874.335	20663
874.464	20781
874.593	20990
874.722	20906
874.851	21005
874.979	20960
875.108	21043
875.237	20925
875.365	20830
875.494	20902
875.623	21039
875.751	20826
875.88	21028
876.008	21116
876.136	21150
876.265	21222
876.393	21408
876.521	21397
876.65	21443
876.778	21378
876.906	21218
877.034	21207
877.162	21287
877.29	21230
877.418	21298
877.546	21340
877.674	21268
877.802	21176
877.93	21233
878.058	21294
878.185	21218
878.313	21412
878.441	21355
878.568	21135
878.696	21176
878.824	21332
878.951	21386
879.079	21374
879.206	21595
879.333	21523
879.461	21363
879.588	21488
879.715	21454
879.842	21557
879.97	21363
880.097	21195
880.224	21032
880.351	21165
880.478	21150
880.605	21218
880.732	21039
880.859	21424
880.986	21039
881.112	21188
881.239	20994
881.366	20956
881.493	20739
881.619	20724
881.746	20716
881.872	20758
881.999	20686
882.125	20663
882.252	20819
882.378	20655
882.505	20887
882.631	20739
882.757	20465
882.883	20686
883.01	20400
883.136	20347
883.262	20423
883.388	20244
883.514	20537
883.64	20522
883.766	20465
883.892	20263
884.018	20339
884.143	20450
884.269	20450
884.395	20172
884.52	20111
884.646	20115
884.772	19986
884.897	19993
885.023	20122
885.148	20210
885.274	20092
885.399	20259
885.524	20153
885.65	20043
885.775	20088
885.9	19970
886.025	20267
886.15	20157
886.275	20008
886.4	19925
886.525	20046
886.65	19993
886.775	20062
886.9	20256
887.025	20278
887.149	20103
887.274	19936
887.399	19868
887.523	19826
887.648	19833
887.773	19746
887.897	19963
888.021	19932
888.146	19852
888.27	20024
888.395	19925
888.519	19837
888.643	19947
888.767	19925
888.891	19849
889.015	19742
889.139	19784
889.263	19681
889.387	19761
889.511	19830
889.635	19769
889.759	19674
889.883	19594
890.006	19715
890.13	19715
890.254	19540
890.377	19480
890.501	19445
890.624	19335
890.748	19411
890.871	19198
890.995	19190
891.118	19107
891.241	19217
891.364	19114
891.488	19217
891.611	19240
891.734	19202
891.857	19274
891.98	19141
892.103	19282
892.226	19198
892.349	19168
892.471	19076
892.594	19152
892.717	19225
892.839	19152
892.962	19152
893.085	19213
893.207	19244
893.33	19004
893.452	19137
893.575	19187
893.697	19042
893.819	19407
893.941	19335
894.064	19327
894.186	19187
894.308	19069
894.43	19148
894.552	19278
894.674	19190
894.796	19031
894.918	19164
895.04	19259
895.161	19202
895.283	19228
895.405	19179
895.526	19190
895.648	19072
895.769	19251
895.891	19050
896.012	19343
896.134	19312
896.255	19225
896.376	19099
896.498	19175
896.619	19202
896.74	19247
896.861	19293
896.982	19590
897.103	19666
897.224	19449
897.345	19537
897.466	19396
897.587	19464
897.708	19582
897.828	19426
897.949	19350
898.07	19289
898.19	19419
898.311	19396
898.431	19339
898.552	19350
898.672	19400
898.792	19426
898.913	19445
899.033	19247
899.153	19236
899.273	19160
899.393	19152
899.513	19141
899.633	19099
899.753	19114
899.873	19107
899.993	19244
900.113	19023
900.232	19042
900.352	19057
900.472	18943
900.591	18897
900.711	18981
900.83	18901
900.95	19042
901.069	18985
901.189	18981
901.308	18669
901.427	18604
901.546	18612
901.665	18582
901.784	18597
901.904	18456
902.023	18285
902.141	18034
902.26	18057
902.379	18072
902.498	18034
902.617	18110
902.735	18064
902.854	18076
902.973	17889
903.091	17748
903.21	17665
903.328	17737
903.446	17665
903.565	17535
903.683	17562
903.801	17391
903.919	17570
904.038	17452
904.156	17356
904.274	17364
904.392	17197
904.51	17178
904.627	17398
904.745	17349
904.863	17402
904.981	17124
905.098	16919
905.216	16957
905.334	17010
905.451	16934
905.569	16953
905.686	16984
905.803	16900
905.921	16736
906.038	16778
906.155	16744
906.272	16717
906.389	16634
906.506	16519
906.623	16554
906.74	16512
906.857	16417
906.974	16325
907.091	16500
907.208	16523
907.324	16497
907.441	16413
907.557	16272
907.674	16287
907.79	16207
907.907	16246
908.023	16097
908.139	16272
908.256	16150
908.372	16013
908.488	16071
908.604	16002
908.72	15846
908.836	15869
908.952	15903
909.068	16032
909.184	16010
909.3	15888
909.415	15998
909.531	15895
909.647	15595
909.762	15667
909.878	15610
909.993	15652
910.108	15561
910.224	15515
910.339	15603
910.454	15431
910.57	15401
910.685	15348
910.8	15641
910.915	15622
911.03	15462
911.145	15184
911.259	15161
911.374	15256
911.489	15104
911.604	15051
911.718	14975
911.833	14902
911.947	14868
912.062	14716
912.176	14853
912.291	14956
912.405	14937
912.519	15131
912.633	15074
912.748	14994
912.862	14933
912.976	14842
913.09	14689
913.204	14739
913.318	14788
913.431	14853
913.545	14701
913.659	14906
913.772	14743
913.886	14602
914	14549
914.113	14629
914.226	14800
914.34	14636
914.453	14480
914.566	14598
914.68	14503
914.793	14461
914.906	14290
915.019	14290
915.132	14210
915.245	14282
915.358	14332
915.47	14164
915.583	14305
915.696	14240
915.809	14263
915.921	14389
916.034	14153
916.146	14081
916.259	14111
916.371	14157
916.483	14187
916.595	14054
916.708	14054
916.82	14092
916.932	14020
917.044	14058
917.156	13974
917.268	13917
917.38	13993
917.491	13849
917.603	13906
917.715	14008
917.826	14012
917.938	13909
918.049	13841
918.161	13807
918.272	13997
918.384	14054
918.495	13780
918.606	13715
918.717	13685
918.828	13837
918.939	13636
919.05	13613
919.161	13620
919.272	13510
919.383	13502
919.494	13624
919.604	13833
919.715	13662
919.826	13540
919.936	13632
920.047	13738
920.157	13655
920.267	13780
920.378	13575
920.488	13567
920.598	13761
920.708	13898
920.818	13772
920.928	13704
921.038	13921
921.148	13788
921.258	13537
921.368	13480
921.477	13434
921.587	13445
921.697	13247
921.806	13373
921.916	13324
922.025	13023
922.134	13023
922.244	13027
922.353	13057
922.462	12928
922.571	12848
922.68	12726
922.789	12662
922.898	12650
923.007	12642
923.116	12738
923.224	12654
923.333	12779
923.442	12483
923.55	12445
923.659	12525
923.767	12604
923.876	12483
923.984	12517
924.092	12414
924.201	12471
924.309	12456
924.417	12490
924.525	12410
924.633	12353
924.741	13149
924.849	12197
924.956	12334
925.064	12098
925.172	12068
925.279	12136
925.387	12110
925.494	12125
925.602	12289
925.709	12167
925.816	12053
925.924	12060
926.031	12159
926.138	12117
926.245	12175
926.352	11939
926.459	12129
926.566	12254
926.673	12038
926.779	11954
926.886	11889
926.993	11756
927.099	11779
927.206	11661
927.312	11729
927.419	11733
927.525	11714
927.631	11874
927.737	11668
927.843	11608
927.95	11493
928.056	11520
928.162	11543
928.267	11653
928.373	12155
928.479	11619
928.585	11376
928.69	11417
928.796	11543
928.901	11376
929.007	11273
929.112	11425
929.218	11421
929.323	11303
929.428	11368
929.533	11440
929.638	11185
929.743	11296
929.848	11345
929.953	11360
930.058	11204
930.163	10991
930.267	11025
930.372	11109
930.477	10999
930.581	11242
930.685	11006
930.79	10862
930.894	10862
930.998	10850
931.103	11010
931.207	10664
931.311	10694
931.415	10500
931.519	10329
931.623	10219
