Data from test_V78500241_3347.txt Node
Date: Fri Mar 25 15:33:10 CST 2022
User: usil
Spectrometer: V785-0024
Trigger mode: 0
Integration Time (sec): 4.000000E-1
Scans to average: 1
Nonlinearity correction enabled: false
Boxcar width: 0
Storing dark spectrum: false
XAxis mode: Wavelengths
Number of Pixels in Spectrum: 1024
>>>>>Begin Spectral Data<<<<<
801.071	27093
801.214	27142
801.356	26925
801.499	26811
801.641	26682
801.783	26792
801.926	26868
802.068	26727
802.211	26655
802.353	26541
802.496	26492
802.638	26347
802.78	26195
802.923	26347
803.065	26134
803.208	26176
803.35	26233
803.492	26450
803.635	26480
803.777	26347
803.919	26526
804.061	26750
804.204	26526
804.346	26328
804.488	26259
804.63	26442
804.773	26400
804.915	26545
805.057	26560
805.199	26469
805.341	26552
805.483	26712
805.626	26590
805.768	26469
805.91	26522
806.052	26693
806.194	26419
806.336	26689
806.478	26644
806.62	26583
806.762	26701
806.904	26823
807.046	27173
807.188	26914
807.33	27081
807.472	27077
807.614	26940
807.756	26887
807.898	26785
808.04	26800
808.182	26731
808.324	26750
808.465	26853
808.607	27017
808.749	27176
808.891	27260
809.033	27287
809.174	27192
809.316	27039
809.458	27108
809.6	27146
809.741	27157
809.883	27176
810.025	27538
810.166	27447
810.308	27481
810.45	27351
810.591	27279
810.733	27173
810.875	27154
811.016	27070
811.158	27127
811.299	27222
811.441	27329
811.582	27252
811.724	27108
811.865	27123
812.007	27093
812.148	27043
812.29	27169
812.431	27321
812.573	27378
812.714	27515
812.855	27526
812.997	27648
813.138	27717
813.279	27743
813.421	27679
813.562	27625
813.703	27431
813.845	27439
813.986	27161
814.127	26845
814.268	26807
814.41	26651
814.551	26864
814.692	26868
814.833	26762
814.974	26678
815.115	26826
815.256	26655
815.397	26632
815.539	26651
815.68	26632
815.821	26495
815.962	26469
816.103	26541
816.244	26377
816.385	26332
816.526	26339
816.666	26119
816.807	25989
816.948	26122
817.089	26031
817.23	26024
817.371	26153
817.512	25906
817.653	26008
817.793	25997
817.934	26039
818.075	25982
818.216	26107
818.356	26065
818.497	25894
818.638	25795
818.778	25875
818.919	25909
819.06	25955
819.2	25966
819.341	26107
819.481	25963
819.622	26096
819.762	26389
819.903	26275
820.043	26332
820.184	26199
820.324	26119
820.465	26259
820.605	26111
820.746	26164
820.886	26088
821.026	26016
821.167	26012
821.307	26290
821.447	26069
821.588	25898
821.728	25822
821.868	25727
822.008	25632
822.149	25594
822.289	25537
822.429	25331
822.569	25240
822.709	25137
822.849	24985
822.99	25057
823.13	24954
823.27	25004
823.41	24825
823.55	24677
823.69	24764
823.83	24882
823.97	24703
824.11	24563
824.25	24563
824.389	24646
824.529	24741
824.669	24658
824.809	24711
824.949	24760
825.089	24700
825.228	24806
825.368	24532
825.508	24494
825.648	24509
825.787	24574
825.927	24563
826.067	24525
826.206	24505
826.346	24551
826.485	24452
826.625	24631
826.765	24612
826.904	24563
827.044	24247
827.183	24247
827.323	24194
827.462	24292
827.601	24182
827.741	24414
827.88	24216
828.02	24167
828.159	24201
828.298	24174
828.437	24239
828.577	24171
828.716	24277
828.855	24140
828.994	23935
829.134	23950
829.273	23897
829.412	23923
829.551	23908
829.69	23920
829.829	23893
829.968	24110
830.107	24064
830.246	23996
830.385	23954
830.524	23866
830.663	23657
830.802	23714
830.941	23566
831.08	23642
831.219	23695
831.357	23672
831.496	23809
831.635	23512
831.774	23623
831.913	23459
832.051	23444
832.19	23330
832.329	23349
832.467	23155
832.606	23193
832.744	23189
832.883	23189
833.022	23315
833.16	23421
833.299	23242
833.437	23303
833.576	23284
833.714	23258
833.852	23398
833.991	23368
834.129	23429
834.267	23368
834.406	23372
834.544	23330
834.682	23254
834.821	23235
834.959	23554
835.097	23250
835.235	23509
835.373	23376
835.511	23345
835.65	23220
835.788	23166
835.926	23060
836.064	23003
836.202	22991
836.34	23239
836.478	23197
836.615	23067
836.753	23128
836.891	23193
837.029	23193
837.167	23193
837.305	23064
837.443	23079
837.58	22972
837.718	23128
837.856	23098
837.993	22904
838.131	22919
838.269	22790
838.406	22915
838.544	22816
838.681	22656
838.819	22683
838.956	22424
839.094	22592
839.231	22641
839.369	22774
839.506	23003
839.643	22713
839.781	22573
839.918	22466
840.055	22421
840.193	22417
840.33	22424
840.467	22474
840.604	22497
840.742	22675
840.879	22166
841.016	22329
841.153	22371
841.29	22436
841.427	22398
841.564	22497
841.701	22394
841.838	22413
841.975	22318
842.112	22344
842.249	22402
842.385	22478
842.522	22455
842.659	22124
842.796	22166
842.933	22143
843.069	22116
843.206	22177
843.343	22242
843.479	22253
843.616	22131
843.752	21823
843.889	22051
844.025	22070
844.162	21903
844.298	22036
844.435	21960
844.571	21930
844.708	21953
844.844	22211
844.98	22124
845.117	22044
845.253	21964
845.389	21759
845.525	21937
845.661	21888
845.798	21618
845.934	21720
846.07	21614
846.206	21739
846.342	21835
846.478	21739
846.614	21576
846.75	21424
846.886	21431
847.022	21526
847.158	21553
847.294	21439
847.429	21424
847.565	21435
847.701	21648
847.837	21089
847.972	21146
848.108	21329
848.244	21275
848.379	21081
848.515	20971
848.65	20979
848.786	21036
848.921	21093
849.057	21207
849.192	21096
849.328	21112
849.463	21074
849.598	20902
849.734	20914
849.869	20849
850.004	20876
850.14	20834
850.275	20853
850.41	20762
850.545	20651
850.68	20735
850.815	20819
850.95	20727
851.085	20975
851.22	20921
851.355	20811
851.49	20739
851.625	20754
851.76	20686
851.895	20746
852.03	20648
852.165	20830
852.299	20857
852.434	20868
852.569	20712
852.703	20727
852.838	20937
852.973	20941
853.107	20899
853.242	20727
853.376	20545
853.511	20454
853.645	20625
853.78	20811
853.914	20663
854.048	20560
854.183	20686
854.317	20693
854.451	20944
854.585	20564
854.72	20560
854.854	20632
854.988	20518
855.122	20560
855.256	20514
855.39	20651
855.524	20724
855.658	20678
855.792	20537
855.926	20476
856.06	20720
856.194	20735
856.327	20545
856.461	20518
856.595	20609
856.729	20526
856.862	20686
856.996	20731
857.13	20743
857.263	20739
857.397	20701
857.53	20587
857.664	20655
857.797	20773
857.931	20750
858.064	20640
858.197	20788
858.331	20716
858.464	20587
858.597	20640
858.731	20526
858.864	20625
858.997	20667
859.13	20651
859.263	20708
859.396	20686
859.529	20625
859.662	20503
859.795	20552
859.928	20556
860.061	20838
860.194	20800
860.327	20746
860.46	20644
860.592	20735
860.725	20727
860.858	20602
860.99	20564
861.123	20644
861.256	20613
861.388	20484
861.521	21397
861.653	20518
861.786	20526
861.918	20419
862.05	20465
862.183	20583
862.315	20598
862.447	20705
862.58	20537
862.712	20427
862.844	20271
862.976	20438
863.108	20328
863.24	20777
863.372	20252
863.504	20385
863.636	20328
863.768	20370
863.9	20419
864.032	20282
864.164	20278
864.296	20351
864.428	20366
864.559	20377
864.691	20423
864.823	20400
864.954	20252
865.086	20305
865.217	20294
865.349	20157
865.48	20305
865.612	20225
865.743	20469
865.875	20328
866.006	20252
866.137	20309
866.269	20271
866.4	20256
866.531	20202
866.662	20130
866.793	20187
866.924	20081
867.055	20195
867.186	20142
867.317	20111
867.448	19974
867.579	20145
867.71	20149
867.841	20134
867.972	20046
868.103	20195
868.233	20199
868.364	20301
868.495	20240
868.625	20499
868.756	20492
868.886	20454
869.017	20347
869.147	20541
869.278	20533
869.408	20366
869.539	20393
869.669	20556
869.799	20587
869.929	20568
870.06	20594
870.19	20785
870.32	20651
870.45	20773
870.58	20804
870.71	20975
870.84	20823
870.97	20891
871.1	20944
871.23	21062
871.36	21096
871.489	21089
871.619	21055
871.749	21020
871.879	21119
872.008	21211
872.138	21157
872.267	20956
872.397	20990
872.526	20876
872.656	20864
872.785	20933
872.915	21032
873.044	21218
873.173	21085
873.303	21135
873.432	21077
873.561	21275
873.69	21150
873.819	21096
873.948	21058
874.077	21150
874.206	21047
874.335	21047
874.464	21249
874.593	21317
874.722	21332
874.851	21348
874.979	21348
875.108	21408
875.237	21389
875.365	21199
875.494	21313
875.623	21325
875.751	21222
875.88	21386
876.008	21393
876.136	21389
876.265	21675
876.393	21766
876.521	21679
876.65	21835
876.778	21778
876.906	21515
877.034	21720
877.162	21652
877.29	21614
877.418	21800
877.546	21686
877.674	21622
877.802	21644
877.93	21610
878.058	21591
878.185	21561
878.313	21599
878.441	21656
878.568	21458
878.696	21648
878.824	21766
878.951	21751
879.079	21774
879.206	21983
879.333	21926
879.461	21652
879.588	21808
879.715	21739
879.842	21926
879.97	21774
880.097	21526
880.224	21431
880.351	21534
880.478	21458
880.605	21447
880.732	21405
880.859	21759
880.986	21511
881.112	21545
881.239	21382
881.366	21260
881.493	21116
881.619	21089
881.746	21203
881.872	21039
881.999	20941
882.125	21020
882.252	20960
882.378	21070
882.505	21024
882.631	20937
882.757	20750
882.883	20845
883.01	20796
883.136	20758
883.262	20731
883.388	20758
883.514	20735
883.64	20625
883.766	20674
883.892	20518
884.018	20648
884.143	20674
884.269	20811
884.395	20583
884.52	20389
884.646	20450
884.772	20511
884.897	20374
885.023	20423
885.148	20556
885.274	20556
885.399	20438
885.524	20408
885.65	20511
885.775	20324
885.9	20442
886.025	20457
886.15	20564
886.275	20347
886.4	20305
886.525	20415
886.65	20461
886.775	20294
886.9	20507
887.025	20644
887.149	20389
887.274	20252
887.399	20107
887.523	20138
887.648	20149
887.773	20138
887.897	20153
888.021	20301
888.146	20134
888.27	20244
888.395	20252
888.519	20187
888.643	20229
888.767	20301
888.891	20153
889.015	20065
889.139	20046
889.263	20020
889.387	20039
889.511	20180
889.635	20172
889.759	20062
889.883	20031
890.006	20016
890.13	20058
890.254	20031
890.377	19940
890.501	19795
890.624	19738
890.748	19757
890.871	19795
890.995	19567
891.118	19499
891.241	19658
891.364	19643
891.488	19772
891.611	19514
891.734	19594
891.857	19518
891.98	19632
892.103	19677
892.226	19567
892.349	19483
892.471	19396
892.594	19537
892.717	19559
892.839	19464
892.962	19483
893.085	19605
893.207	19529
893.33	19384
893.452	19491
893.575	19544
893.697	19499
893.819	19658
893.941	19578
894.064	19643
894.186	19434
894.308	19426
894.43	19575
894.552	19506
894.674	19578
894.796	19388
894.918	19460
895.04	19495
895.161	19518
895.283	19502
895.405	19495
895.526	19563
895.648	19571
895.769	19514
895.891	19616
896.012	19635
896.134	19552
896.255	19419
896.376	19495
896.498	19529
896.619	19518
896.74	19556
896.861	19567
896.982	19856
897.103	19951
897.224	19776
897.345	19803
897.466	19605
897.587	19685
897.708	19841
897.828	19772
897.949	19681
898.07	19628
898.19	19624
898.311	19776
898.431	19674
898.552	19795
898.672	19818
898.792	19818
898.913	19818
899.033	19677
899.153	19518
899.273	19358
899.393	19369
899.513	19559
899.633	19613
899.753	19639
899.873	19392
899.993	19491
900.113	19476
900.232	19422
900.352	19415
900.472	19301
900.591	19259
900.711	19259
900.83	19266
900.95	19354
901.069	19369
901.189	19194
901.308	18947
901.427	18840
901.546	18897
901.665	18928
901.784	18840
901.904	18681
902.023	18646
902.141	18418
902.26	18437
902.379	18437
902.498	18281
902.617	18239
902.735	18471
902.854	18342
902.973	18334
903.091	18026
903.21	18068
903.328	18110
903.446	17942
903.565	17874
903.683	17920
903.801	17809
903.919	17874
904.038	17821
904.156	17737
904.274	17672
904.392	17687
904.51	17615
904.627	17687
904.745	17604
904.863	17733
904.981	17452
905.098	17391
905.216	17200
905.334	17341
905.451	17360
905.569	17376
905.686	17280
905.803	17265
905.921	17083
906.038	17086
906.155	17117
906.272	17029
906.389	16995
906.506	16953
906.623	16892
906.74	16869
906.857	16698
906.974	16828
907.091	16889
907.208	16984
907.324	17029
907.441	16763
907.557	16603
907.674	16569
907.79	16538
907.907	16546
908.023	16637
908.139	16599
908.256	16527
908.372	16470
908.488	16531
908.604	16379
908.72	16371
908.836	16390
908.952	16322
909.068	16382
909.184	16413
909.3	16318
909.415	16318
909.531	16329
909.647	16055
909.762	15983
909.878	16002
909.993	16063
910.108	15960
910.224	15903
910.339	16044
910.454	15975
910.57	15869
910.685	15793
910.8	16040
910.915	16002
911.03	15865
911.145	15682
911.259	15652
911.374	15644
911.489	15458
911.604	15500
911.718	15469
911.833	15393
911.947	15306
912.062	15195
912.176	15370
912.291	15389
912.405	15332
912.519	15561
912.633	15587
912.748	15431
912.862	15218
912.976	15313
913.09	15123
913.204	15131
913.318	15116
913.431	15272
913.545	15443
913.659	15313
913.772	15195
913.886	15036
914	14956
914.113	15074
914.226	15077
914.34	15070
914.453	14891
914.566	15108
914.68	14895
914.793	14838
914.906	14655
915.019	14670
915.132	14556
915.245	14640
915.358	14610
915.47	14625
915.583	14655
915.696	14617
915.809	14667
915.921	14750
916.034	14518
916.146	14556
916.259	14556
916.371	14644
916.483	14541
916.595	14514
916.708	14457
916.82	14522
916.932	14450
917.044	14396
917.156	14389
917.268	14347
917.38	14278
917.491	14336
917.603	14252
917.715	14389
917.826	14431
917.938	14202
918.049	14142
918.161	14305
918.272	14343
918.384	14389
918.495	14286
918.606	14107
918.717	14043
918.828	14077
918.939	14195
919.05	13940
919.161	13997
919.272	13879
919.383	13883
919.494	14168
919.604	14286
919.715	14088
919.826	13940
919.936	13917
920.047	14107
920.157	14115
920.267	14168
920.378	14081
920.488	13993
920.598	14206
920.708	14309
920.818	14244
920.928	14164
921.038	14294
921.148	14313
921.258	14062
921.368	13875
921.477	13814
921.587	13788
921.697	13651
921.806	13757
921.916	13624
922.025	13419
922.134	13419
922.244	13396
922.353	13487
922.462	13270
922.571	13270
922.68	13209
922.789	13034
922.898	13122
923.007	13050
923.116	13152
923.224	13160
923.333	13141
923.442	12977
923.55	12890
923.659	13008
923.767	13015
923.876	12897
923.984	12890
924.092	12840
924.201	12878
924.309	12798
924.417	12802
924.525	12707
924.633	12768
924.741	13681
924.849	12555
924.956	12760
925.064	12593
925.172	12483
925.279	12517
925.387	12479
925.494	12547
925.602	12608
925.709	12486
925.816	12429
925.924	12593
926.031	12593
926.138	12467
926.245	12513
926.352	12433
926.459	12494
926.566	12540
926.673	12456
926.779	12251
926.886	12270
926.993	12186
927.099	12022
927.206	12022
927.312	11980
927.419	12144
927.525	12117
927.631	12106
927.737	12060
927.843	11999
927.95	11866
928.056	11939
928.162	11931
928.267	12003
928.373	12486
928.479	11923
928.585	11805
928.69	11916
928.796	11939
928.901	11855
929.007	11733
929.112	11775
929.218	11866
929.323	11649
929.428	11630
929.533	11779
929.638	11592
929.743	11699
929.848	11672
929.953	11665
930.058	11490
930.163	11395
930.267	11429
930.372	11471
930.477	11341
930.581	11509
930.685	11452
930.79	11292
930.894	11337
930.998	11269
931.103	11376
931.207	11041
931.311	11052
931.415	10873
931.519	10615
931.623	10710
