Data from test_V78500241_1297.txt Node
Date: Fri Mar 25 15:18:53 CST 2022
User: usil
Spectrometer: V785-0024
Trigger mode: 0
Integration Time (sec): 4.000000E-1
Scans to average: 1
Nonlinearity correction enabled: false
Boxcar width: 0
Storing dark spectrum: false
XAxis mode: Wavelengths
Number of Pixels in Spectrum: 1024
>>>>>Begin Spectral Data<<<<<
801.071	28147
801.214	28051
801.356	27804
801.499	27854
801.641	27656
801.783	27732
801.926	27694
802.068	27705
802.211	27549
802.353	27500
802.496	27336
802.638	27317
802.78	27370
802.923	27260
803.065	27226
803.208	27272
803.35	27348
803.492	27603
803.635	27450
803.777	27443
803.919	27504
804.061	27914
804.204	27603
804.346	27317
804.488	27538
804.63	27466
804.773	27492
804.915	27641
805.057	27656
805.199	27526
805.341	27614
805.483	27785
805.626	27705
805.768	27591
805.91	27660
806.052	27637
806.194	27610
806.336	27827
806.478	27717
806.62	27682
806.762	27774
806.904	27937
807.046	28055
807.188	28207
807.33	28051
807.472	28280
807.614	28063
807.756	28219
807.898	28021
808.04	28006
808.182	27793
808.324	28036
808.465	28063
808.607	28246
808.749	28375
808.891	28276
809.033	28554
809.174	28386
809.316	28272
809.458	28325
809.6	28371
809.741	28603
809.883	28386
810.025	28630
810.166	28584
810.308	28687
810.45	28367
810.591	28607
810.733	28443
810.875	28455
811.016	28249
811.158	28265
811.299	28413
811.441	28675
811.582	28592
811.724	28352
811.865	28360
812.007	28409
812.148	28478
812.29	28348
812.431	28542
812.573	28683
812.714	28698
812.855	28831
812.997	28908
813.138	29174
813.279	29075
813.421	28991
813.562	28900
813.703	28641
813.845	28637
813.986	28440
814.127	28223
814.268	28044
814.41	28124
814.551	28082
814.692	28173
814.833	27911
814.974	28048
815.115	28006
815.256	27922
815.397	27949
815.539	28044
815.68	27808
815.821	27778
815.962	27846
816.103	27835
816.244	27812
816.385	27663
816.526	27606
816.666	27496
816.807	27298
816.948	27416
817.089	27454
817.23	27454
817.371	27351
817.512	27408
817.653	27408
817.793	27329
817.934	27412
818.075	27355
818.216	27367
818.356	27412
818.497	27329
818.638	27051
818.778	27100
818.919	27146
819.06	27264
819.2	27272
819.341	27329
819.481	27351
819.622	27618
819.762	27732
819.903	27606
820.043	27591
820.184	27568
820.324	27359
820.465	27663
820.605	27583
820.746	27564
820.886	27302
821.026	27466
821.167	27477
821.307	27530
821.447	27420
821.588	27260
821.728	27165
821.868	27024
822.008	26872
822.149	26773
822.289	26838
822.429	26499
822.569	26526
822.709	26484
822.849	26400
822.99	26434
823.13	26301
823.27	26358
823.41	26172
823.55	26134
823.69	26210
823.83	26195
823.97	26218
824.11	26046
824.25	26008
824.389	26096
824.529	26142
824.669	26020
824.809	26107
824.949	26168
825.089	26103
825.228	26081
825.368	25913
825.508	25898
825.648	26039
825.787	26065
825.927	26024
826.067	25852
826.206	25917
826.346	25947
826.485	25826
826.625	25909
826.765	25917
826.904	25925
827.044	25635
827.183	25674
827.323	25620
827.462	25658
827.601	25624
827.741	25582
827.88	25693
828.02	25590
828.159	25552
828.298	25518
828.437	25510
828.577	25533
828.716	25666
828.855	25411
828.994	25434
829.134	25293
829.273	25312
829.412	25335
829.551	25183
829.69	25217
829.829	25285
829.968	25403
830.107	25373
830.246	25263
830.385	25339
830.524	25285
830.663	25168
830.802	24973
830.941	25050
831.08	24958
831.219	25015
831.357	24966
831.496	25255
831.635	24821
831.774	24806
831.913	24973
832.051	24852
832.19	24639
832.329	24696
832.467	24620
832.606	24532
832.744	24612
832.883	24673
833.022	24608
833.16	24551
833.299	24566
833.437	24646
833.576	24764
833.714	24684
833.852	24665
833.991	24620
834.129	24726
834.267	24654
834.406	24692
834.544	24681
834.682	24661
834.821	24532
834.959	24833
835.097	24601
835.235	24696
835.373	24593
835.511	24631
835.65	24563
835.788	24494
835.926	24429
836.064	24334
836.202	24456
836.34	24418
836.478	24635
836.615	24589
836.753	24532
836.891	24433
837.029	24502
837.167	24437
837.305	24403
837.443	24437
837.58	24228
837.718	24414
837.856	24380
837.993	24380
838.131	24311
838.269	24186
838.406	24239
838.544	24296
838.681	23988
838.819	23988
838.956	23832
839.094	23741
839.231	23817
839.369	24018
839.506	24232
839.643	23961
839.781	23718
839.918	23790
840.055	23798
840.193	23866
840.33	23611
840.467	23676
840.604	23775
840.742	23878
840.879	23577
841.016	23611
841.153	23691
841.29	23748
841.427	23733
841.564	23760
841.701	23718
841.838	23687
841.975	23589
842.112	23558
842.249	23577
842.385	23516
842.522	23604
842.659	23627
842.796	23444
842.933	23421
843.069	23368
843.206	23486
843.343	23455
843.479	23459
843.616	23497
843.752	23239
843.889	23326
844.025	23368
844.162	23147
844.298	23330
844.435	23155
844.571	23277
844.708	23398
844.844	23383
844.98	23406
845.117	23284
845.253	23143
845.389	23132
845.525	23193
845.661	23014
845.798	22961
845.934	23067
846.07	22900
846.206	22991
846.342	23121
846.478	22934
846.614	22744
846.75	22565
846.886	22809
847.022	22847
847.158	22752
847.294	22653
847.429	22748
847.565	22748
847.701	22873
847.837	22516
847.972	22417
848.108	22550
848.244	22519
848.379	22371
848.515	22382
848.65	22219
848.786	22295
848.921	22299
849.057	22417
849.192	22489
849.328	22306
849.463	22128
849.598	22082
849.734	22215
849.869	22097
850.004	22036
850.14	22261
850.275	22002
850.41	21968
850.545	21949
850.68	22059
850.815	22006
850.95	21941
851.085	22238
851.22	22036
851.355	22044
851.49	22067
851.625	21934
851.76	22013
851.895	21960
852.03	21979
852.165	21922
852.299	22143
852.434	22093
852.569	22032
852.703	22032
852.838	22120
852.973	22181
853.107	22120
853.242	22002
853.376	21880
853.511	21724
853.645	21751
853.78	21964
853.914	21880
854.048	21766
854.183	21956
854.317	21903
854.451	22169
854.585	21804
854.72	21869
854.854	21987
854.988	21743
855.122	21854
855.256	21751
855.39	21876
855.524	21998
855.658	21926
855.792	21880
855.926	21937
856.06	21895
856.194	22017
856.327	21873
856.461	21816
856.595	21778
856.729	21774
856.862	21968
856.996	21911
857.13	21949
857.263	21937
857.397	21892
857.53	21842
857.664	21907
857.797	21994
857.931	21926
858.064	21953
858.197	21941
858.331	21915
858.464	21778
858.597	21705
858.731	21816
858.864	21724
858.997	21827
859.13	21854
859.263	21823
859.396	21865
859.529	21846
859.662	21720
859.795	21709
859.928	22002
860.061	21991
860.194	22116
860.327	21968
860.46	21899
860.592	22063
860.725	22048
860.858	21991
860.99	21895
861.123	21774
861.256	21888
861.388	21766
861.521	22523
861.653	21652
861.786	21542
861.918	21709
862.05	21720
862.183	21793
862.315	21797
862.447	21838
862.58	21865
862.712	21485
862.844	21507
862.976	21595
863.108	21717
863.24	21922
863.372	21485
863.504	21675
863.636	21671
863.768	21591
863.9	21534
864.032	21416
864.164	21530
864.296	21591
864.428	21812
864.559	21549
864.691	21701
864.823	21534
864.954	21515
865.086	21580
865.217	21553
865.349	21302
865.48	21370
865.612	21515
865.743	21576
865.875	21447
866.006	21473
866.137	21523
866.269	21420
866.4	21511
866.531	21386
866.662	21405
866.793	21424
866.924	21439
867.055	21393
867.186	21325
867.317	21416
867.448	21332
867.579	21401
867.71	21332
867.841	21321
867.972	21351
868.103	21287
868.233	21359
868.364	21401
868.495	21492
868.625	21595
868.756	21671
868.886	21511
869.017	21610
869.147	21766
869.278	21755
869.408	21599
869.539	21625
869.669	21671
869.799	21656
869.929	21785
870.06	21755
870.19	21869
870.32	21850
870.45	21949
870.58	21934
870.71	22040
870.84	22010
870.97	22067
871.1	22109
871.23	22135
871.36	22131
871.489	22013
871.619	22215
871.749	22265
871.879	22181
872.008	22280
872.138	22242
872.267	22242
872.397	22192
872.526	22036
872.656	21979
872.785	22044
872.915	22303
873.044	22352
873.173	22363
873.303	22318
873.432	22265
873.561	22394
873.69	22169
873.819	22192
873.948	22375
874.077	22200
874.206	22166
874.335	22246
874.464	22337
874.593	22417
874.722	22470
874.851	22512
874.979	22474
875.108	22531
875.237	22421
875.365	22287
875.494	22386
875.623	22531
875.751	22466
875.88	22470
876.008	22596
876.136	22710
876.265	22831
876.393	22957
876.521	22999
876.65	22869
876.778	22835
876.906	22824
877.034	22782
877.162	22839
877.29	22759
877.418	22843
877.546	22774
877.674	22702
877.802	22801
877.93	22740
878.058	22622
878.185	22687
878.313	22626
878.441	22687
878.568	22630
878.696	22683
878.824	22885
878.951	22858
879.079	22881
879.206	23052
879.333	23033
879.461	22801
879.588	23003
879.715	22843
879.842	23083
879.97	22767
880.097	22611
880.224	22584
880.351	22706
880.478	22615
880.605	22481
880.732	22736
880.859	22774
880.986	22561
881.112	22729
881.239	22497
881.366	22516
881.493	22078
881.619	22261
881.746	22181
881.872	22238
881.999	22135
882.125	22143
882.252	22055
882.378	22173
882.505	22131
882.631	21911
882.757	21827
882.883	21907
883.01	21918
883.136	21816
883.262	21793
883.388	21713
883.514	21915
883.64	21846
883.766	21770
883.892	21606
884.018	21762
884.143	21937
884.269	21903
884.395	21701
884.52	21424
884.646	21454
884.772	21439
884.897	21477
885.023	21523
885.148	21698
885.274	21583
885.399	21606
885.524	21473
885.65	21450
885.775	21523
885.9	21302
886.025	21542
886.15	21485
886.275	21428
886.4	21416
886.525	21568
886.65	21545
886.775	21431
886.9	21542
887.025	21610
887.149	21420
887.274	21291
887.399	21275
887.523	21291
887.648	21283
887.773	21070
887.897	21332
888.021	21249
888.146	21264
888.27	21287
888.395	21367
888.519	21332
888.643	21241
888.767	21325
888.891	21211
889.015	21165
889.139	21214
889.263	21062
889.387	21104
889.511	21260
889.635	21131
889.759	21051
889.883	20921
890.006	21024
890.13	21161
890.254	21036
890.377	20899
890.501	20743
890.624	20743
890.748	20872
890.871	20796
890.995	20613
891.118	20530
891.241	20613
891.364	20617
891.488	20758
891.611	20682
891.734	20678
891.857	20689
891.98	20667
892.103	20708
892.226	20701
892.349	20545
892.471	20366
892.594	20450
892.717	20381
892.839	20632
892.962	20549
893.085	20568
893.207	20476
893.33	20423
893.452	20450
893.575	20530
893.697	20526
893.819	20617
893.941	20785
894.064	20655
894.186	20415
894.308	20415
894.43	20655
894.552	20659
894.674	20560
894.796	20400
894.918	20606
895.04	20446
895.161	20488
895.283	20480
895.405	20336
895.526	20537
895.648	20362
895.769	20636
895.891	20564
896.012	20636
896.134	20537
896.255	20579
896.376	20351
896.498	20461
896.619	20476
896.74	20469
896.861	20564
896.982	20910
897.103	20902
897.224	20823
897.345	20720
897.466	20670
897.587	20693
897.708	20727
897.828	20727
897.949	20621
898.07	20522
898.19	20590
898.311	20769
898.431	20598
898.552	20693
898.672	20804
898.792	20674
898.913	20724
899.033	20564
899.153	20533
899.273	20446
899.393	20507
899.513	20381
899.633	20408
899.753	20514
899.873	20320
899.993	20434
900.113	20438
900.232	20480
900.352	20408
900.472	20347
900.591	20286
900.711	20275
900.83	20248
900.95	20252
901.069	20259
901.189	20164
901.308	19875
901.427	19769
901.546	19795
901.665	19734
901.784	19769
901.904	19689
902.023	19422
902.141	19365
902.26	19297
902.379	19293
902.498	19255
902.617	19346
902.735	19324
902.854	19270
902.973	19202
903.091	18951
903.21	19050
903.328	18924
903.446	18890
903.565	18779
903.683	18726
903.801	18612
903.919	18734
904.038	18745
904.156	18566
904.274	18665
904.392	18551
904.51	18410
904.627	18547
904.745	18551
904.863	18536
904.981	18399
905.098	18209
905.216	18258
905.334	18384
905.451	18228
905.569	18152
905.686	18194
905.803	18194
905.921	18026
906.038	18144
906.155	17996
906.272	17893
906.389	17931
906.506	17756
906.623	17775
906.74	17741
906.857	17748
906.974	17760
907.091	17691
907.208	17843
907.324	17760
907.441	17642
907.557	17493
907.674	17532
907.79	17364
907.907	17417
908.023	17493
908.139	17516
908.256	17349
908.372	17383
908.488	17376
908.604	17288
908.72	17254
908.836	17254
908.952	17045
909.068	17197
909.184	17235
909.3	17235
909.415	17212
909.531	17261
909.647	16930
909.762	16793
909.878	16953
909.993	16961
910.108	16790
910.224	16877
910.339	16839
910.454	16801
910.57	16683
910.685	16645
910.8	16904
910.915	16725
911.03	16679
911.145	16512
911.259	16519
911.374	16485
911.489	16421
911.604	16333
911.718	16219
911.833	16204
911.947	16105
912.062	16013
912.176	16173
912.291	16253
912.405	16131
912.519	16371
912.633	16379
912.748	16325
912.862	16128
912.976	16067
913.09	15991
913.204	15968
913.318	16013
913.431	16048
913.545	16101
913.659	16093
913.772	15937
913.886	15816
914	15816
914.113	15964
914.226	15876
914.34	15960
914.453	15701
914.566	15854
914.68	15717
914.793	15591
914.906	15500
915.019	15519
915.132	15428
915.245	15428
915.358	15443
915.47	15378
915.583	15412
915.696	15443
915.809	15500
915.921	15500
916.034	15374
916.146	15378
916.259	15268
916.371	15469
916.483	15386
916.595	15241
916.708	15302
916.82	15184
916.932	15237
917.044	15165
917.156	15131
917.268	15112
917.38	15097
917.491	15051
917.603	15058
917.715	15138
917.826	15062
917.938	15093
918.049	14902
918.161	15001
918.272	15169
918.384	15116
918.495	15013
918.606	14853
918.717	14762
918.828	14842
918.939	14788
919.05	14663
919.161	14819
919.272	14583
919.383	14632
919.494	14754
919.604	14956
919.715	14682
919.826	14693
919.936	14739
920.047	14849
920.157	14804
920.267	14914
920.378	14758
920.488	14826
920.598	14944
920.708	15100
920.818	14861
920.928	14895
921.038	15039
921.148	15028
921.258	14689
921.368	14693
921.477	14552
921.587	14404
921.697	14366
921.806	14442
921.916	14385
922.025	14134
922.134	14092
922.244	14134
922.353	14123
922.462	14092
922.571	13856
922.68	13734
922.789	13791
922.898	13791
923.007	13639
923.116	13723
923.224	13727
923.333	13715
923.442	13613
923.55	13620
923.659	13636
923.767	13681
923.876	13651
923.984	13590
924.092	13518
924.201	13537
924.309	13472
924.417	13464
924.525	13350
924.633	13388
924.741	14381
924.849	13274
924.956	13343
925.064	13221
925.172	13110
925.279	13099
925.387	13183
925.494	13076
925.602	13259
925.709	13228
925.816	13179
925.924	13236
926.031	13209
926.138	13149
926.245	13175
926.352	12989
926.459	13168
926.566	13266
926.673	13069
926.779	12932
926.886	12802
926.993	12856
927.099	12722
927.206	12620
927.312	12681
927.419	12741
927.525	12707
927.631	12753
927.737	12509
927.843	12627
927.95	12464
928.056	12547
928.162	12544
928.267	12563
928.373	13289
928.479	12608
928.585	12395
928.69	12544
928.796	12464
928.901	12388
929.007	12228
929.112	12388
929.218	12391
929.323	12338
929.428	12247
929.533	12429
929.638	12182
929.743	12308
929.848	12243
929.953	12216
930.058	12152
930.163	11965
930.267	11988
930.372	12060
930.477	11866
930.581	12136
930.685	11954
930.79	11805
930.894	11859
930.998	11901
931.103	11950
931.207	11608
931.311	11543
931.415	11383
931.519	11181
931.623	11151
