Data from test_V78500241_11.txt Node
Date: Fri Mar 25 15:09:56 CST 2022
User: usil
Spectrometer: V785-0024
Trigger mode: 0
Integration Time (sec): 4.000000E-1
Scans to average: 1
Nonlinearity correction enabled: false
Boxcar width: 0
Storing dark spectrum: false
XAxis mode: Wavelengths
Number of Pixels in Spectrum: 1024
>>>>>Begin Spectral Data<<<<<
801.071	27576
801.214	27534
801.356	27268
801.499	27249
801.641	27245
801.783	27096
801.926	27108
802.068	26948
802.211	27036
802.353	26921
802.496	26727
802.638	26655
802.78	26781
802.923	26492
803.065	26552
803.208	26560
803.35	26609
803.492	26667
803.635	26811
803.777	26655
803.919	26743
804.061	27131
804.204	26777
804.346	26667
804.488	26583
804.63	26659
804.773	26476
804.915	26754
805.057	26644
805.199	26686
805.341	26750
805.483	26834
805.626	26670
805.768	26743
805.91	26769
806.052	26693
806.194	26693
806.336	26921
806.478	26781
806.62	26663
806.762	26674
806.904	26853
807.046	27230
807.188	27116
807.33	27020
807.472	27032
807.614	26948
807.756	26918
807.898	26682
808.04	26872
808.182	26891
808.324	26834
808.465	26838
808.607	27055
808.749	27009
808.891	27252
809.033	27355
809.174	27260
809.316	27096
809.458	27169
809.6	26998
809.741	27119
809.883	27245
810.025	27142
810.166	27359
810.308	27401
810.45	27374
810.591	27252
810.733	27157
810.875	27039
811.016	26940
811.158	26853
811.299	27127
811.441	27150
811.582	27108
811.724	26994
811.865	27036
812.007	26891
812.148	27043
812.29	27169
812.431	27332
812.573	27336
812.714	27492
812.855	27523
812.997	27576
813.138	27781
813.279	27717
813.421	27595
813.562	27496
813.703	27249
813.845	27096
813.986	26887
814.127	26792
814.268	26644
814.41	26712
814.551	26560
814.692	26781
814.833	26552
814.974	26670
815.115	26602
815.256	26419
815.397	26446
815.539	26469
815.68	26259
815.821	26248
815.962	26347
816.103	26256
816.244	26088
816.385	26081
816.526	25849
816.666	25791
816.807	25594
816.948	25791
817.089	25833
817.23	25750
817.371	25727
817.512	25670
817.653	25628
817.793	25624
817.934	25674
818.075	25620
818.216	25674
818.356	25586
818.497	25324
818.638	25388
818.778	25403
818.919	25392
819.06	25266
819.2	25468
819.341	25518
819.481	25616
819.622	25616
819.762	26084
819.903	25822
820.043	25635
820.184	25628
820.324	25537
820.465	25738
820.605	25601
820.746	25719
820.886	25483
821.026	25616
821.167	25613
821.307	25658
821.447	25434
821.588	25388
821.728	25312
821.868	25107
822.008	24894
822.149	24939
822.289	24996
822.429	24703
822.569	24597
822.709	24521
822.849	24407
822.99	24460
823.13	24365
823.27	24342
823.41	24277
823.55	24174
823.69	24289
823.83	24205
823.97	24102
824.11	23988
824.25	23969
824.389	23923
824.529	24102
824.669	23965
824.809	24152
824.949	23965
825.089	24136
825.228	23996
825.368	23824
825.508	23809
825.648	23752
825.787	23851
825.927	23840
826.067	23710
826.206	23775
826.346	23851
826.485	23790
826.625	23737
826.765	23832
826.904	23710
827.044	23474
827.183	23490
827.323	23425
827.462	23440
827.601	23341
827.741	23337
827.88	23486
828.02	23292
828.159	23360
828.298	23353
828.437	23398
828.577	23353
828.716	23493
828.855	23216
828.994	23181
829.134	23143
829.273	23212
829.412	23067
829.551	23128
829.69	23048
829.829	23094
829.968	23159
830.107	23136
830.246	23102
830.385	22835
830.524	23018
830.663	22873
830.802	22816
830.941	22672
831.08	22618
831.219	22573
831.357	22645
831.496	22896
831.635	22653
831.774	22424
831.913	22493
832.051	22344
832.19	22478
832.329	22519
832.467	22299
832.606	22318
832.744	22280
832.883	22219
833.022	22379
833.16	22257
833.299	22257
833.437	22188
833.576	22234
833.714	22291
833.852	22329
833.991	22333
834.129	22348
834.267	22329
834.406	22280
834.544	22280
834.682	22363
834.821	22253
834.959	22451
835.097	22322
835.235	22322
835.373	22337
835.511	22318
835.65	22139
835.788	21987
835.926	21911
836.064	21892
836.202	21812
836.34	22143
836.478	22177
836.615	22086
836.753	22063
836.891	22131
837.029	22082
837.167	22032
837.305	21915
837.443	21930
837.58	22063
837.718	22036
837.856	22036
837.993	21846
838.131	21941
838.269	21819
838.406	21884
838.544	21774
838.681	21610
838.819	21511
838.956	21416
839.094	21435
839.231	21272
839.369	21507
839.506	21762
839.643	21652
839.781	21374
839.918	21321
840.055	21466
840.193	21344
840.33	21317
840.467	21233
840.604	21233
840.742	21530
840.879	21039
841.016	21184
841.153	21150
841.29	21336
841.427	21317
841.564	21222
841.701	21291
841.838	21203
841.975	21203
842.112	21157
842.249	21081
842.385	21058
842.522	21135
842.659	20982
842.796	20899
842.933	21001
843.069	20857
843.206	20975
843.343	21001
843.479	20941
843.616	20956
843.752	20777
843.889	20720
844.025	20914
844.162	20640
844.298	20785
844.435	20617
844.571	20743
844.708	20758
844.844	20823
844.98	20864
845.117	20906
845.253	20708
845.389	20526
845.525	20598
845.661	20613
845.798	20457
845.934	20541
846.07	20499
846.206	20499
846.342	20533
846.478	20358
846.614	20343
846.75	20149
846.886	20130
847.022	20294
847.158	20142
847.294	20153
847.429	20157
847.565	20088
847.701	20313
847.837	19883
847.972	19856
848.108	19917
848.244	19890
848.379	19639
848.515	19708
848.65	19674
848.786	19632
848.921	19811
849.057	19841
849.192	19776
849.328	19746
849.463	19704
849.598	19670
849.734	19559
849.869	19605
850.004	19426
850.14	19529
850.275	19388
850.41	19400
850.545	19346
850.68	19346
850.815	19495
850.95	19381
851.085	19590
851.22	19537
851.355	19365
851.49	19403
851.625	19331
851.76	19449
851.895	19358
852.03	19213
852.165	19293
852.299	19430
852.434	19343
852.569	19438
852.703	19403
852.838	19472
852.973	19548
853.107	19613
853.242	19327
853.376	19221
853.511	19160
853.645	19327
853.78	19373
853.914	19183
854.048	19232
854.183	19232
854.317	19297
854.451	19407
854.585	19236
854.72	19198
854.854	19358
854.988	19259
855.122	19255
855.256	18996
855.39	19194
855.524	19339
855.658	19331
855.792	19232
855.926	19198
856.06	19251
856.194	19304
856.327	19141
856.461	19152
856.595	19160
856.729	19160
856.862	19301
856.996	19122
857.13	19232
857.263	19244
857.397	19232
857.53	19187
857.664	19217
857.797	19244
857.931	19263
858.064	19118
858.197	19107
858.331	19133
858.464	19091
858.597	19099
858.731	19156
858.864	19008
858.997	19004
859.13	19122
859.263	19202
859.396	19244
859.529	19175
859.662	19133
859.795	19088
859.928	19050
860.061	19312
860.194	19251
860.327	19042
860.46	19110
860.592	19259
860.725	19244
860.858	19225
860.99	19126
861.123	18905
861.256	19069
861.388	19099
861.521	19788
861.653	19019
861.786	18856
861.918	19000
862.05	19050
862.183	19152
862.315	19206
862.447	19107
862.58	19156
862.712	18970
862.844	18825
862.976	19080
863.108	18844
863.24	19419
863.372	18989
863.504	18935
863.636	18814
863.768	18909
863.9	18882
864.032	18776
864.164	18852
864.296	18920
864.428	18890
864.559	18920
864.691	18989
864.823	18939
864.954	18947
865.086	18829
865.217	18810
865.349	18779
865.48	18859
865.612	18730
865.743	18916
865.875	18814
866.006	18814
866.137	18757
866.269	18734
866.4	18810
866.531	18719
866.662	18658
866.793	18711
866.924	18601
867.055	18658
867.186	18692
867.317	18719
867.448	18597
867.579	18578
867.71	18536
867.841	18620
867.972	18768
868.103	18730
868.233	18711
868.364	18768
868.495	18719
868.625	19061
868.756	19015
868.886	18916
869.017	18894
869.147	19015
869.278	19046
869.408	18878
869.539	18844
869.669	18996
869.799	18970
869.929	18977
870.06	19034
870.19	19152
870.32	19247
870.45	19244
870.58	19415
870.71	19445
870.84	19438
870.97	19358
871.1	19274
871.23	19464
871.36	19552
871.489	19537
871.619	19518
871.749	19510
871.879	19502
872.008	19571
872.138	19514
872.267	19556
872.397	19392
872.526	19373
872.656	19278
872.785	19354
872.915	19506
873.044	19651
873.173	19502
873.303	19571
873.432	19609
873.561	19635
873.69	19578
873.819	19559
873.948	19590
874.077	19582
874.206	19620
874.335	19563
874.464	19601
874.593	19826
874.722	19746
874.851	19978
874.979	19909
875.108	19890
875.237	19849
875.365	19776
875.494	19719
875.623	19860
875.751	19830
875.88	19841
876.008	19986
876.136	19989
876.265	20248
876.393	20320
876.521	20332
876.65	20305
876.778	20324
876.906	20183
877.034	20020
877.162	20084
877.29	20229
877.418	20252
877.546	20320
877.674	20161
877.802	20153
877.93	20206
878.058	20172
878.185	20062
878.313	20149
878.441	20142
878.568	19974
878.696	20096
878.824	20267
878.951	20210
879.079	20404
879.206	20473
879.333	20393
879.461	20377
879.588	20438
879.715	20278
879.842	20461
879.97	20244
880.097	20058
880.224	19989
880.351	20096
880.478	19989
880.605	20054
880.732	20130
880.859	20263
880.986	19944
881.112	20134
881.239	19928
881.366	19769
881.493	19776
881.619	19559
881.746	19620
881.872	19533
881.999	19700
882.125	19575
882.252	19689
882.378	19696
882.505	19944
882.631	19540
882.757	19464
882.883	19609
883.01	19510
883.136	19301
883.262	19266
883.388	19266
883.514	19381
883.64	19396
883.766	19316
883.892	19301
884.018	19278
884.143	19293
884.269	19438
884.395	19084
884.52	19057
884.646	18985
884.772	18996
884.897	18894
885.023	18981
885.148	19244
885.274	19183
885.399	19088
885.524	19126
885.65	19027
885.775	19072
885.9	19057
886.025	19209
886.15	19175
886.275	19023
886.4	18913
886.525	18962
886.65	18901
886.775	18981
886.9	19080
887.025	19156
887.149	18981
887.274	18859
887.399	18844
887.523	18928
887.648	18738
887.773	18665
887.897	18947
888.021	18859
888.146	18787
888.27	18886
888.395	18894
888.519	18867
888.643	18833
888.767	18882
888.891	18806
889.015	18635
889.139	18555
889.263	18566
889.387	18768
889.511	18886
889.635	18764
889.759	18593
889.883	18395
890.006	18582
890.13	18669
890.254	18521
890.377	18528
890.501	18319
890.624	18391
890.748	18410
890.871	18319
890.995	18311
891.118	18110
891.241	18201
891.364	18106
891.488	18281
891.611	18235
891.734	18247
891.857	18235
891.98	18209
892.103	18254
892.226	18209
892.349	18216
892.471	18034
892.594	18194
892.717	18262
892.839	18095
892.962	18034
893.085	18281
893.207	18110
893.33	18038
893.452	18079
893.575	18273
893.697	18117
893.819	18350
893.941	18323
894.064	18308
894.186	18125
894.308	18144
894.43	18205
894.552	18251
894.674	18311
894.796	18083
894.918	18167
895.04	18117
895.161	18292
895.283	18201
895.405	18224
895.526	18277
895.648	18178
895.769	18178
895.891	18125
896.012	18292
896.134	18346
896.255	18235
896.376	18292
896.498	18262
896.619	18323
896.74	18235
896.861	18308
896.982	18669
897.103	18711
897.224	18631
897.345	18566
897.466	18528
897.587	18471
897.708	18604
897.828	18509
897.949	18365
898.07	18289
898.19	18452
898.311	18509
898.431	18509
898.552	18433
898.672	18540
898.792	18445
898.913	18384
899.033	18361
899.153	18201
899.273	18076
899.393	18155
899.513	18155
899.633	18292
899.753	18205
899.873	18182
899.993	18281
900.113	18205
900.232	18171
900.352	18125
900.472	18019
900.591	18041
900.711	18136
900.83	17923
900.95	18155
901.069	18178
901.189	17904
901.308	17710
901.427	17665
901.546	17646
901.665	17608
901.784	17745
901.904	17509
902.023	17402
902.141	17189
902.26	17239
902.379	17231
902.498	17102
902.617	17159
902.735	17102
902.854	17143
902.973	17033
903.091	16820
903.21	16839
903.328	16839
903.446	16835
903.565	16740
903.683	16584
903.801	16531
903.919	16596
904.038	16607
904.156	16497
904.274	16516
904.392	16432
904.51	16390
904.627	16375
904.745	16443
904.863	16466
904.981	16223
905.098	15975
905.216	16173
905.334	16249
905.451	16105
905.569	16048
905.686	16162
905.803	16116
905.921	15876
906.038	16090
906.155	15835
906.272	15797
906.389	15831
906.506	15743
906.623	15648
906.74	15705
906.857	15614
906.974	15549
907.091	15743
907.208	15762
907.324	15713
907.441	15561
907.557	15382
907.674	15317
907.79	15329
907.907	15283
908.023	15306
908.139	15329
908.256	15363
908.372	15214
908.488	15192
908.604	15077
908.72	14979
908.836	15070
908.952	14925
909.068	15024
909.184	15245
909.3	15062
909.415	15043
909.531	14933
909.647	14834
909.762	14727
909.878	14796
909.993	14727
910.108	14746
910.224	14678
910.339	14727
910.454	14594
910.57	14568
910.685	14454
910.8	14819
910.915	14686
911.03	14518
911.145	14419
911.259	14404
911.374	14355
911.489	14313
911.604	14218
911.718	14206
911.833	14123
911.947	13989
912.062	13951
912.176	14134
912.291	14058
912.405	14020
912.519	14275
912.633	14355
912.748	14149
912.862	14062
912.976	13982
913.09	13818
913.204	13925
913.318	13936
913.431	14008
913.545	14058
913.659	13940
913.772	13959
913.886	13799
914	13772
914.113	13890
914.226	13883
914.34	13845
914.453	13681
914.566	13849
914.68	13655
914.793	13719
914.906	13495
915.019	13426
915.132	13350
915.245	13464
915.358	13415
915.47	13460
915.583	13396
915.696	13502
915.809	13563
915.921	13578
916.034	13392
916.146	13346
916.259	13278
916.371	13441
916.483	13506
916.595	13331
916.708	13282
916.82	13289
916.932	13426
917.044	13320
917.156	13209
917.268	13141
917.38	13198
917.491	13129
917.603	13107
917.715	13187
917.826	13289
917.938	13156
918.049	13088
918.161	13152
918.272	13282
918.384	13247
918.495	13053
918.606	12897
918.717	12886
918.828	13004
918.939	12951
919.05	12977
919.161	12833
919.272	12722
919.383	12833
919.494	13031
919.604	13088
919.715	12989
919.826	12882
919.936	12787
920.047	12985
920.157	12928
920.267	13129
920.378	13038
920.488	12837
920.598	13050
920.708	13190
920.818	12970
920.928	12962
921.038	13228
921.148	13244
921.258	12833
921.368	12749
921.477	12627
921.587	12616
921.697	12517
921.806	12681
921.916	12513
922.025	12273
922.134	12224
922.244	12311
922.353	12311
922.462	12163
922.571	12117
922.68	11984
922.789	11904
922.898	11961
923.007	11843
923.116	11980
923.224	11931
923.333	11935
923.442	11851
923.55	11779
923.659	11859
923.767	11832
923.876	11790
923.984	11786
924.092	11718
924.201	11745
924.309	11703
924.417	11859
924.525	11752
924.633	11767
924.741	12456
924.849	11433
924.956	11649
925.064	11421
925.172	11440
925.279	11459
925.387	11543
925.494	11471
925.602	11657
925.709	11543
925.816	11322
925.924	11387
926.031	11581
926.138	11452
926.245	11535
926.352	11345
926.459	11577
926.566	11573
926.673	11330
926.779	11296
926.886	11235
926.993	11098
927.099	11121
927.206	11105
927.312	11041
927.419	11128
927.525	11014
927.631	11056
927.737	10961
927.843	10987
927.95	10877
928.056	10847
928.162	11003
928.267	11117
928.373	11665
928.479	11102
928.585	10797
928.69	10919
928.796	10961
928.901	10812
929.007	10637
929.112	10812
929.218	10729
929.323	10694
929.428	10641
929.533	10877
929.638	10592
929.743	10672
929.848	10710
929.953	10611
930.058	10542
930.163	10451
930.267	10459
930.372	10561
930.477	10348
930.581	10641
930.685	10474
930.79	10405
930.894	10432
930.998	10348
931.103	10447
931.207	10105
931.311	10021
931.415	9903
931.519	9781
931.623	9751
