Data from test_V78500241_1793.txt Node
Date: Fri Mar 25 15:22:20 CST 2022
User: usil
Spectrometer: V785-0024
Trigger mode: 0
Integration Time (sec): 4.000000E-1
Scans to average: 1
Nonlinearity correction enabled: false
Boxcar width: 0
Storing dark spectrum: false
XAxis mode: Wavelengths
Number of Pixels in Spectrum: 1024
>>>>>Begin Spectral Data<<<<<
801.071	27800
801.214	27652
801.356	27629
801.499	27576
801.641	27291
801.783	27302
801.926	27294
802.068	27317
802.211	27264
802.353	27127
802.496	26967
802.638	27036
802.78	26921
802.923	26872
803.065	26979
803.208	26971
803.35	27089
803.492	27051
803.635	27150
803.777	27100
803.919	27325
804.061	27515
804.204	27207
804.346	27123
804.488	27070
804.63	27199
804.773	27009
804.915	27123
805.057	27230
805.199	27108
805.341	27245
805.483	27310
805.626	27291
805.768	27119
805.91	27332
806.052	27340
806.194	27287
806.336	27492
806.478	27230
806.62	27283
806.762	27420
806.904	27572
807.046	27736
807.188	27679
807.33	27793
807.472	27873
807.614	27622
807.756	27580
807.898	27549
808.04	27462
808.182	27443
808.324	27504
808.465	27583
808.607	27652
808.749	27873
808.891	28021
809.033	28131
809.174	27987
809.316	27812
809.458	27778
809.6	27998
809.741	27975
809.883	28055
810.025	28242
810.166	28139
810.308	28162
810.45	28215
810.591	28116
810.733	27865
810.875	27930
811.016	27728
811.158	27713
811.299	27892
811.441	28086
811.582	28006
811.724	27846
811.865	27846
812.007	27812
812.148	27819
812.29	27934
812.431	28105
812.573	28253
812.714	28424
812.855	28363
812.997	28592
813.138	28675
813.279	28645
813.421	28386
813.562	28401
813.703	28063
813.845	28128
813.986	27876
814.127	27709
814.268	27660
814.41	27587
814.551	27587
814.692	27675
814.833	27523
814.974	27755
815.115	27622
815.256	27344
815.397	27473
815.539	27523
815.68	27367
815.821	27203
815.962	27386
816.103	27351
816.244	27237
816.385	27074
816.526	27188
816.666	27032
816.807	26967
816.948	26952
817.089	27036
817.23	26834
817.371	26876
817.512	26944
817.653	26830
817.793	26754
817.934	26933
818.075	27005
818.216	26868
818.356	26880
818.497	26644
818.638	26598
818.778	26632
818.919	26598
819.06	26720
819.2	26716
819.341	26944
819.481	26872
819.622	27062
819.762	27329
819.903	27116
820.043	27047
820.184	27020
820.324	26963
820.465	27032
820.605	26994
820.746	26990
820.886	26910
821.026	26998
821.167	26914
821.307	27070
821.447	26868
821.588	26853
821.728	26708
821.868	26492
822.008	26450
822.149	26305
822.289	26347
822.429	26092
822.569	25906
822.709	26122
822.849	25951
822.99	25856
823.13	25860
823.27	25879
823.41	25723
823.55	25635
823.69	25742
823.83	25807
823.97	25666
824.11	25419
824.25	25457
824.389	25358
824.529	25563
824.669	25590
824.809	25704
824.949	25601
825.089	25628
825.228	25479
825.368	25453
825.508	25270
825.648	25415
825.787	25320
825.927	25441
826.067	25354
826.206	25400
826.346	25415
826.485	25308
826.625	25388
826.765	25434
826.904	25533
827.044	25145
827.183	25122
827.323	25107
827.462	25107
827.601	25000
827.741	25236
827.88	25095
828.02	24996
828.159	24935
828.298	25122
828.437	25194
828.577	24958
828.716	25175
828.855	25103
828.994	24722
829.134	24806
829.273	24817
829.412	24817
829.551	24696
829.69	24734
829.829	24768
829.968	24958
830.107	24951
830.246	24837
830.385	24878
830.524	24829
830.663	24639
830.802	24502
830.941	24528
831.08	24441
831.219	24403
831.357	24479
831.496	24505
831.635	24308
831.774	24388
831.913	24361
832.051	24243
832.19	24235
832.329	24247
832.467	24133
832.606	24083
832.744	24144
832.883	24155
833.022	24018
833.16	24060
833.299	24121
833.437	24190
833.576	24304
833.714	24064
833.852	24235
833.991	24251
834.129	24258
834.267	24220
834.406	24182
834.544	24262
834.682	24144
834.821	24197
834.959	24220
835.097	24251
835.235	24140
835.373	24201
835.511	24178
835.65	24041
835.788	23935
835.926	23805
836.064	23866
836.202	23779
836.34	23866
836.478	24057
836.615	23992
836.753	23931
836.891	24095
837.029	24011
837.167	24053
837.305	23840
837.443	23897
837.58	23885
837.718	24038
837.856	23863
837.993	23851
838.131	23802
838.269	23748
838.406	23756
838.544	23729
838.681	23543
838.819	23486
838.956	23318
839.094	23254
839.231	23376
839.369	23478
839.506	23779
839.643	23646
839.781	23356
839.918	23303
840.055	23288
840.193	23288
840.33	23140
840.467	23208
840.604	23258
840.742	23379
840.879	23178
841.016	23143
841.153	23090
841.29	23429
841.427	23330
841.564	23170
841.701	23185
841.838	23147
841.975	23105
842.112	23140
842.249	23060
842.385	22896
842.522	23185
842.659	23147
842.796	23018
842.933	22980
843.069	23025
843.206	23136
843.343	22953
843.479	23090
843.616	23048
843.752	22820
843.889	22752
844.025	22889
844.162	22721
844.298	22911
844.435	22900
844.571	22618
844.708	22748
844.844	22824
844.98	22953
845.117	22972
845.253	22691
845.389	22584
845.525	22767
845.661	22702
845.798	22508
845.934	22531
846.07	22424
846.206	22470
846.342	22626
846.478	22474
846.614	22352
846.75	22169
846.886	22276
847.022	22223
847.158	22306
847.294	22287
847.429	22322
847.565	22188
847.701	22360
847.837	22021
847.972	22063
848.108	22131
848.244	21972
848.379	21781
848.515	21861
848.65	21682
848.786	21797
848.921	21789
849.057	21960
849.192	22040
849.328	21903
849.463	21793
849.598	21838
849.734	21819
849.869	21679
850.004	21568
850.14	21747
850.275	21591
850.41	21614
850.545	21557
850.68	21511
850.815	21648
850.95	21625
851.085	21743
851.22	21774
851.355	21587
851.49	21629
851.625	21561
851.76	21603
851.895	21633
852.03	21462
852.165	21488
852.299	21530
852.434	21625
852.569	21625
852.703	21583
852.838	21663
852.973	21652
853.107	21637
853.242	21492
853.376	21439
853.511	21325
853.645	21355
853.78	21591
853.914	21302
854.048	21424
854.183	21439
854.317	21424
854.451	21641
854.585	21378
854.72	21511
854.854	21405
854.988	21435
855.122	21496
855.256	21245
855.39	21477
855.524	21447
855.658	21511
855.792	21412
855.926	21386
856.06	21450
856.194	21447
856.327	21469
856.461	21408
856.595	21302
856.729	21359
856.862	21447
856.996	21469
857.13	21466
857.263	21496
857.397	21492
857.53	21378
857.664	21386
857.797	21534
857.931	21545
858.064	21329
858.197	21580
858.331	21389
858.464	21260
858.597	21275
858.731	21363
858.864	21393
858.997	21382
859.13	21393
859.263	21408
859.396	21534
859.529	21405
859.662	21485
859.795	21241
859.928	21329
860.061	21492
860.194	21583
860.327	21492
860.46	21389
860.592	21534
860.725	21538
860.858	21435
860.99	21439
861.123	21401
861.256	21443
861.388	21389
861.521	22105
861.653	21245
861.786	21241
861.918	21214
862.05	21237
862.183	21310
862.315	21405
862.447	21401
862.58	21370
862.712	21085
862.844	21108
862.976	21138
863.108	21291
863.24	21466
863.372	21028
863.504	21039
863.636	21047
863.768	21142
863.9	21047
864.032	21081
864.164	21020
864.296	21154
864.428	21138
864.559	21233
864.691	21169
864.823	21070
864.954	21020
865.086	21058
865.217	20902
865.349	20967
865.48	21150
865.612	21051
865.743	21150
865.875	21089
866.006	21013
866.137	20960
866.269	21032
866.4	20998
866.531	20899
866.662	20910
866.793	20956
866.924	20963
867.055	21096
867.186	20952
867.317	20933
867.448	20762
867.579	20861
867.71	20895
867.841	20830
867.972	21058
868.103	20876
868.233	21051
868.364	21024
868.495	21039
868.625	21119
868.756	21268
868.886	21085
869.017	21214
869.147	21332
869.278	21264
869.408	21203
869.539	21203
869.669	21351
869.799	21260
869.929	21291
870.06	21351
870.19	21557
870.32	21477
870.45	21580
870.58	21591
870.71	21610
870.84	21625
870.97	21633
871.1	21583
871.23	21732
871.36	21625
871.489	21743
871.619	21701
871.749	21880
871.879	21838
872.008	21800
872.138	21766
872.267	21846
872.397	21641
872.526	21625
872.656	21698
872.785	21629
872.915	21774
873.044	21812
873.173	21774
873.303	21873
873.432	21850
873.561	21922
873.69	21876
873.819	21857
873.948	21899
874.077	21895
874.206	21869
874.335	21857
874.464	21987
874.593	21972
874.722	22124
874.851	22059
874.979	22097
875.108	22063
875.237	22090
875.365	21903
875.494	21983
875.623	22090
875.751	22109
875.88	22036
876.008	22078
876.136	22192
876.265	22455
876.393	22596
876.521	22626
876.65	22580
876.778	22512
876.906	22230
877.034	22409
877.162	22409
877.29	22314
877.418	22367
877.546	22360
877.674	22371
877.802	22337
877.93	22424
878.058	22394
878.185	22169
878.313	22344
878.441	22230
878.568	22242
878.696	22348
878.824	22318
878.951	22386
879.079	22527
879.206	22702
879.333	22500
879.461	22478
879.588	22569
879.715	22531
879.842	22702
879.97	22402
880.097	22238
880.224	22200
880.351	22223
880.478	22211
880.605	22162
880.732	22192
880.859	22325
880.986	22139
881.112	22154
881.239	21949
881.366	21972
881.493	21781
881.619	21797
881.746	21911
881.872	21873
881.999	21675
882.125	21698
882.252	21755
882.378	21895
882.505	21903
882.631	21633
882.757	21386
882.883	21629
883.01	21504
883.136	21511
883.262	21374
883.388	21336
883.514	21572
883.64	21515
883.766	21325
883.892	21192
884.018	21344
884.143	21507
884.269	21469
884.395	21195
884.52	21119
884.646	21169
884.772	21230
884.897	21013
885.023	21138
885.148	21218
885.274	21298
885.399	21332
885.524	21112
885.65	21230
885.775	21123
885.9	21116
886.025	21245
886.15	21135
886.275	21055
886.4	20952
886.525	21070
886.65	20998
886.775	21028
886.9	21268
887.025	21249
887.149	21173
887.274	20845
887.399	20941
887.523	20830
887.648	20769
887.773	20804
887.897	20967
888.021	20952
888.146	20781
888.27	21013
888.395	20963
888.519	20880
888.643	20906
888.767	20921
888.891	20895
889.015	20606
889.139	20731
889.263	20545
889.387	20883
889.511	20918
889.635	20880
889.759	20632
889.883	20701
890.006	20689
890.13	20811
890.254	20659
890.377	20583
890.501	20351
890.624	20389
890.748	20465
890.871	20377
890.995	20301
891.118	20282
891.241	20225
891.364	20225
891.488	20431
891.611	20225
891.734	20343
891.857	20317
891.98	20339
892.103	20290
892.226	20233
892.349	20195
892.471	20138
892.594	20157
892.717	20271
892.839	20149
892.962	20126
893.085	20100
893.207	20111
893.33	19932
893.452	20096
893.575	20164
893.697	20138
893.819	20286
893.941	20461
894.064	20229
894.186	20168
894.308	19982
894.43	20256
894.552	20256
894.674	20195
894.796	20050
894.918	20122
895.04	20103
895.161	20218
895.283	20149
895.405	20145
895.526	20107
895.648	20065
895.769	20119
895.891	20176
896.012	20298
896.134	20153
896.255	20157
896.376	20214
896.498	20199
896.619	20225
896.74	20092
896.861	20202
896.982	20370
897.103	20667
897.224	20358
897.345	20393
897.466	20381
897.587	20351
897.708	20533
897.828	20374
897.949	20263
898.07	20233
898.19	20237
898.311	20343
898.431	20233
898.552	20317
898.672	20377
898.792	20408
898.913	20484
899.033	20240
899.153	20191
899.273	20103
899.393	20039
899.513	20180
899.633	20111
899.753	20119
899.873	20062
899.993	20119
900.113	20142
900.232	20119
900.352	19936
900.472	19875
900.591	19852
900.711	19974
900.83	19883
900.95	20054
901.069	20027
901.189	19799
901.308	19499
901.427	19438
901.546	19453
901.665	19460
901.784	19445
901.904	19225
902.023	19247
902.141	19046
902.26	18916
902.379	19031
902.498	19057
902.617	19069
902.735	18943
902.854	18928
902.973	18840
903.091	18585
903.21	18601
903.328	18684
903.446	18426
903.565	18441
903.683	18467
903.801	18422
903.919	18483
904.038	18418
904.156	18254
904.274	18266
904.392	18209
904.51	18216
904.627	18171
904.745	18209
904.863	18319
904.981	18007
905.098	17897
905.216	17840
905.334	17927
905.451	17809
905.569	17878
905.686	17851
905.803	17942
905.921	17687
906.038	17828
906.155	17764
906.272	17558
906.389	17653
906.506	17501
906.623	17516
906.74	17379
906.857	17299
906.974	17349
907.091	17474
907.208	17646
907.324	17444
907.441	17360
907.557	17166
907.674	17117
907.79	17132
907.907	17117
908.023	17105
908.139	17136
908.256	17143
908.372	17071
908.488	17037
908.604	16900
908.72	16797
908.836	16862
908.952	16908
909.068	16949
909.184	17041
909.3	16816
909.415	16908
909.531	16892
909.647	16569
909.762	16523
909.878	16489
909.993	16577
910.108	16535
910.224	16531
910.339	16626
910.454	16459
910.57	16398
910.685	16337
910.8	16550
910.915	16500
911.03	16440
911.145	16265
911.259	16124
911.374	16177
911.489	16154
911.604	16044
911.718	15899
911.833	15998
911.947	15762
912.062	15728
912.176	15949
912.291	15884
912.405	15880
912.519	16143
912.633	16177
912.748	15903
912.862	15960
912.976	15660
913.09	15485
913.204	15637
913.318	15671
913.431	15873
913.545	15720
913.659	15880
913.772	15644
913.886	15564
914	15553
914.113	15580
914.226	15549
914.34	15633
914.453	15397
914.566	15549
914.68	15397
914.793	15321
914.906	15218
915.019	15131
915.132	15138
915.245	15176
915.358	15097
915.47	15154
915.583	15039
915.696	15116
915.809	15214
915.921	15169
916.034	15097
916.146	15104
916.259	14979
916.371	15017
916.483	15146
916.595	14899
916.708	14918
916.82	14864
916.932	14880
917.044	14952
917.156	14895
917.268	14807
917.38	14861
917.491	14792
917.603	14716
917.715	14796
917.826	14899
917.938	14651
918.049	14552
918.161	14743
918.272	14826
918.384	14735
918.495	14575
918.606	14621
918.717	14454
918.828	14648
918.939	14610
919.05	14461
919.161	14442
919.272	14351
919.383	14355
919.494	14594
919.604	14640
919.715	14530
919.826	14358
919.936	14465
920.047	14522
920.157	14404
920.267	14598
920.378	14503
920.488	14514
920.598	14689
920.708	14754
920.818	14682
920.928	14545
921.038	14727
921.148	14651
921.258	14374
921.368	14358
921.477	14290
921.587	14298
921.697	14077
921.806	14161
921.916	14065
922.025	13974
922.134	13947
922.244	13830
922.353	13951
922.462	13776
922.571	13677
922.68	13571
922.789	13533
922.898	13487
923.007	13453
923.116	13540
923.224	13521
923.333	13441
923.442	13400
923.55	13301
923.659	13403
923.767	13430
923.876	13335
923.984	13324
924.092	13228
924.201	13282
924.309	13263
924.417	13354
924.525	13198
924.633	13217
924.741	14176
924.849	12993
924.956	13133
925.064	12962
925.172	12947
925.279	12928
925.387	12871
925.494	12905
925.602	13000
925.709	12970
925.816	12776
925.924	12901
926.031	12897
926.138	12913
926.245	12859
926.352	12810
926.459	12939
926.566	12977
926.673	12905
926.779	12673
926.886	12631
926.993	12597
927.099	12467
927.206	12429
927.312	12407
927.419	12502
927.525	12414
927.631	12502
927.737	12365
927.843	12300
927.95	12262
928.056	12308
928.162	12319
928.267	12319
928.373	12871
928.479	12536
928.585	12155
928.69	12266
928.796	12296
928.901	12102
929.007	11935
929.112	12148
929.218	12148
929.323	12095
929.428	11992
929.533	12235
929.638	11984
929.743	11984
929.848	12045
929.953	12003
930.058	11893
930.163	11676
930.267	11741
930.372	11863
930.477	11642
930.581	11897
930.685	11779
930.79	11600
930.894	11615
930.998	11615
931.103	11684
931.207	11337
931.311	11402
931.415	11185
931.519	11045
931.623	10953
