Data from test_V78500241_2890.txt Node
Date: Fri Mar 25 15:29:59 CST 2022
User: usil
Spectrometer: V785-0024
Trigger mode: 0
Integration Time (sec): 4.000000E-1
Scans to average: 1
Nonlinearity correction enabled: false
Boxcar width: 0
Storing dark spectrum: false
XAxis mode: Wavelengths
Number of Pixels in Spectrum: 1024
>>>>>Begin Spectral Data<<<<<
801.071	27188
801.214	27154
801.356	27039
801.499	26883
801.641	26834
801.783	26762
801.926	26982
802.068	26857
802.211	26864
802.353	26689
802.496	26560
802.638	26404
802.78	26385
802.923	26396
803.065	26461
803.208	26332
803.35	26393
803.492	26590
803.635	26526
803.777	26465
803.919	26640
804.061	26895
804.204	26659
804.346	26609
804.488	26442
804.63	26552
804.773	26621
804.915	26545
805.057	26743
805.199	26476
805.341	26602
805.483	26655
805.626	26693
805.768	26648
805.91	26720
806.052	26785
806.194	26724
806.336	26914
806.478	26796
806.62	26807
806.762	26933
806.904	27005
807.046	27188
807.188	27089
807.33	27043
807.472	27245
807.614	27051
807.756	27070
807.898	26918
808.04	26807
808.182	26883
808.324	26883
808.465	26933
808.607	27176
808.749	27427
808.891	27389
809.033	27511
809.174	27291
809.316	27332
809.458	27211
809.6	27123
809.741	27340
809.883	27576
810.025	27511
810.166	27564
810.308	27644
810.45	27534
810.591	27519
810.733	27363
810.875	27355
811.016	27192
811.158	27192
811.299	27264
811.441	27534
811.582	27587
811.724	27481
811.865	27268
812.007	27317
812.148	27169
812.29	27317
812.431	27500
812.573	27580
812.714	27690
812.855	27679
812.997	27819
813.138	28021
813.279	27979
813.421	27857
813.562	27694
813.703	27622
813.845	27473
813.986	27298
814.127	27032
814.268	26994
814.41	26929
814.551	26960
814.692	26960
814.833	26857
814.974	26842
815.115	27032
815.256	26830
815.397	26830
815.539	26849
815.68	26758
815.821	26651
815.962	26910
816.103	26838
816.244	26583
816.385	26522
816.526	26568
816.666	26282
816.807	26081
816.948	26275
817.089	26301
817.23	26317
817.371	26244
817.512	26229
817.653	26256
817.793	26164
817.934	26237
818.075	26263
818.216	26240
818.356	26233
818.497	26122
818.638	25860
818.778	25909
818.919	25928
819.06	25936
819.2	26153
819.341	26183
819.481	26145
819.622	26351
819.762	26507
819.903	26469
820.043	26271
820.184	26290
820.324	26317
820.465	26374
820.605	26339
820.746	26218
820.886	26172
821.026	26263
821.167	26267
821.307	26267
821.447	26081
821.588	26016
821.728	26024
821.868	25826
822.008	25567
822.149	25578
822.289	25643
822.429	25445
822.569	25407
822.709	25388
822.849	25240
822.99	25206
823.13	25053
823.27	25198
823.41	25015
823.55	24909
823.69	25004
823.83	25046
823.97	24905
824.11	24848
824.25	24798
824.389	24665
824.529	24890
824.669	24810
824.809	24905
824.949	24833
825.089	24909
825.228	24913
825.368	24642
825.508	24669
825.648	24612
825.787	24661
825.927	24776
826.067	24593
826.206	24753
826.346	24707
826.485	24776
826.625	24627
826.765	24859
826.904	24646
827.044	24391
827.183	24399
827.323	24319
827.462	24452
827.601	24384
827.741	24095
827.88	24372
828.02	24239
828.159	24319
828.298	24365
828.437	24445
828.577	24209
828.716	24384
828.855	24281
828.994	24163
829.134	24182
829.273	24197
829.412	23980
829.551	24087
829.69	24018
829.829	24045
829.968	24102
830.107	24011
830.246	24152
830.385	24034
830.524	23897
830.663	23893
830.802	23779
830.941	23680
831.08	23547
831.219	23840
831.357	23703
831.496	23977
831.635	23767
831.774	23703
831.913	23619
832.051	23455
832.19	23398
832.329	23474
832.467	23318
832.606	23151
832.744	23246
832.883	23178
833.022	23296
833.16	23254
833.299	23273
833.437	23284
833.576	23334
833.714	23353
833.852	23414
833.991	23448
834.129	23391
834.267	23345
834.406	23379
834.544	23455
834.682	23383
834.821	23288
834.959	23611
835.097	23269
835.235	23452
835.373	23322
835.511	23395
835.65	23269
835.788	23208
835.926	23098
836.064	23025
836.202	23250
836.34	23258
836.478	23315
836.615	23159
836.753	23185
836.891	23299
837.029	23269
837.167	23147
837.305	23178
837.443	23113
837.58	22999
837.718	23151
837.856	23155
837.993	22968
838.131	23060
838.269	22957
838.406	22961
838.544	22915
838.681	22653
838.819	22615
838.956	22535
839.094	22618
839.231	22554
839.369	22774
839.506	22938
839.643	22725
839.781	22493
839.918	22360
840.055	22527
840.193	22432
840.33	22527
840.467	22485
840.604	22500
840.742	22767
840.879	22382
841.016	22402
841.153	22512
841.29	22550
841.427	22421
841.564	22413
841.701	22455
841.838	22360
841.975	22325
842.112	22360
842.249	22280
842.385	22325
842.522	22470
842.659	22230
842.796	22242
842.933	22196
843.069	22204
843.206	22204
843.343	22226
843.479	22249
843.616	22196
843.752	22021
843.889	21991
844.025	22124
844.162	21964
844.298	22124
844.435	21998
844.571	21945
844.708	21994
844.844	22086
844.98	22048
845.117	22029
845.253	21975
845.389	21785
845.525	21857
845.661	21983
845.798	21682
845.934	21785
846.07	21633
846.206	21747
846.342	21819
846.478	21720
846.614	21481
846.75	21599
846.886	21466
847.022	21557
847.158	21542
847.294	21538
847.429	21542
847.565	21500
847.701	21595
847.837	21222
847.972	21180
848.108	21317
848.244	21176
848.379	21047
848.515	20971
848.65	21039
848.786	21017
848.921	20956
849.057	21108
849.192	21264
849.328	21032
849.463	20971
849.598	21051
849.734	20921
849.869	20971
850.004	20811
850.14	20845
850.275	20693
850.41	20746
850.545	20800
850.68	20765
850.815	20872
850.95	20853
851.085	20967
851.22	20899
851.355	20853
851.49	20811
851.625	20686
851.76	20796
851.895	20796
852.03	20731
852.165	20804
852.299	20838
852.434	20914
852.569	20921
852.703	20758
852.838	20663
852.973	20994
853.107	20864
853.242	20705
853.376	20697
853.511	20495
853.645	20602
853.78	20807
853.914	20758
854.048	20560
854.183	20632
854.317	20705
854.451	20781
854.585	20739
854.72	20621
854.854	20773
854.988	20488
855.122	20678
855.256	20571
855.39	20655
855.524	20731
855.658	20743
855.792	20556
855.926	20617
856.06	20746
856.194	20743
856.327	20651
856.461	20564
856.595	20518
856.729	20556
856.862	20663
856.996	20708
857.13	20746
857.263	20708
857.397	20708
857.53	20636
857.664	20712
857.797	20621
857.931	20648
858.064	20743
858.197	20705
858.331	20495
858.464	20568
858.597	20571
858.731	20594
858.864	20469
858.997	20617
859.13	20625
859.263	20644
859.396	20678
859.529	20686
859.662	20705
859.795	20522
859.928	20568
860.061	20716
860.194	20872
860.327	20731
860.46	20724
860.592	20804
860.725	20891
860.858	20826
860.99	20708
861.123	20564
861.256	20670
861.388	20701
861.521	21275
861.653	20594
861.786	20434
861.918	20473
862.05	20549
862.183	20514
862.315	20648
862.447	20667
862.58	20507
862.712	20454
862.844	20248
862.976	20530
863.108	20400
863.24	20735
863.372	20328
863.504	20355
863.636	20396
863.768	20476
863.9	20336
864.032	20317
864.164	20324
864.296	20374
864.428	20480
864.559	20503
864.691	20408
864.823	20377
864.954	20317
865.086	20366
865.217	20210
865.349	20305
865.48	20214
865.612	20233
865.743	20431
865.875	20233
866.006	20202
866.137	20252
866.269	20301
866.4	20218
866.531	20206
866.662	20195
866.793	20256
866.924	20317
867.055	20107
867.186	20206
867.317	20145
867.448	20073
867.579	20149
867.71	20012
867.841	20107
867.972	20294
868.103	20267
868.233	20092
868.364	20168
868.495	20187
868.625	20408
868.756	20587
868.886	20244
869.017	20415
869.147	20514
869.278	20518
869.408	20427
869.539	20377
869.669	20370
869.799	20587
869.929	20454
870.06	20438
870.19	20674
870.32	20708
870.45	20769
870.58	20785
870.71	20948
870.84	20975
870.97	20887
871.1	20849
871.23	20910
871.36	21104
871.489	20906
871.619	20998
871.749	21058
871.879	21173
872.008	21176
872.138	21020
872.267	20925
872.397	20929
872.526	20986
872.656	20811
872.785	20826
872.915	21150
873.044	21127
873.173	20956
873.303	21081
873.432	21135
873.561	21287
873.69	21176
873.819	21169
873.948	21332
874.077	21127
874.206	21028
874.335	21058
874.464	21150
874.593	21454
874.722	21176
874.851	21420
874.979	21298
875.108	21473
875.237	21245
875.365	21146
875.494	21218
875.623	21481
875.751	21283
875.88	21294
876.008	21526
876.136	21583
876.265	21580
876.393	21766
876.521	21774
876.65	21698
876.778	21625
876.906	21545
877.034	21675
877.162	21698
877.29	21583
877.418	21622
877.546	21690
877.674	21564
877.802	21698
877.93	21580
878.058	21507
878.185	21504
878.313	21603
878.441	21553
878.568	21530
878.696	21603
878.824	21580
878.951	21755
879.079	21838
879.206	22040
879.333	21854
879.461	21542
879.588	21701
879.715	21819
879.842	21994
879.97	21717
880.097	21488
880.224	21450
880.351	21523
880.478	21557
880.605	21477
880.732	21496
880.859	21736
880.986	21603
881.112	21340
881.239	21218
881.366	21199
881.493	21188
881.619	20963
881.746	21043
881.872	21036
881.999	21032
882.125	21047
882.252	21028
882.378	21017
882.505	21135
882.631	20956
882.757	20861
882.883	20777
883.01	20686
883.136	20636
883.262	20678
883.388	20640
883.514	20785
883.64	20941
883.766	20716
883.892	20583
884.018	20583
884.143	20632
884.269	20743
884.395	20465
884.52	20438
884.646	20389
884.772	20278
884.897	20290
885.023	20469
885.148	20621
885.274	20457
885.399	20431
885.524	20389
885.65	20522
885.775	20355
885.9	20434
886.025	20507
886.15	20469
886.275	20366
886.4	20210
886.525	20320
886.65	20358
886.775	20362
886.9	20469
887.025	20511
887.149	20457
887.274	20271
887.399	20195
887.523	20176
887.648	20161
887.773	20199
887.897	20275
888.021	20244
888.146	20187
888.27	20229
888.395	20229
888.519	20164
888.643	20313
888.767	20176
888.891	20119
889.015	20001
889.139	20016
889.263	19894
889.387	20043
889.511	20210
889.635	20084
889.759	19917
889.883	19970
890.006	20119
890.13	20100
890.254	19879
890.377	20005
890.501	19769
890.624	19738
890.748	19814
890.871	19822
890.995	19521
891.118	19556
891.241	19628
891.364	19609
891.488	19616
891.611	19529
891.734	19499
891.857	19753
891.98	19552
892.103	19552
892.226	19685
892.349	19559
892.471	19335
892.594	19586
892.717	19639
892.839	19468
892.962	19441
893.085	19525
893.207	19518
893.33	19407
893.452	19407
893.575	19556
893.697	19597
893.819	19635
893.941	19681
894.064	19670
894.186	19468
894.308	19457
894.43	19502
894.552	19734
894.674	19601
894.796	19430
894.918	19499
895.04	19411
895.161	19559
895.283	19422
895.405	19441
895.526	19537
895.648	19434
895.769	19502
895.891	19609
896.012	19567
896.134	19483
896.255	19445
896.376	19457
896.498	19655
896.619	19506
896.74	19521
896.861	19578
896.982	19860
897.103	19947
897.224	19898
897.345	19757
897.466	19769
897.587	19727
897.708	19883
897.828	19807
897.949	19715
898.07	19620
898.19	19765
898.311	19890
898.431	19681
898.552	19776
898.672	19826
898.792	19765
898.913	19776
899.033	19578
899.153	19575
899.273	19548
899.393	19544
899.513	19616
899.633	19563
899.753	19556
899.873	19403
899.993	19525
900.113	19335
900.232	19537
900.352	19396
900.472	19381
900.591	19240
900.711	19331
900.83	19221
900.95	19354
901.069	19381
901.189	19160
901.308	18916
901.427	18817
901.546	18844
901.665	18913
901.784	18886
901.904	18741
902.023	18696
902.141	18532
902.26	18410
902.379	18536
902.498	18456
902.617	18350
902.735	18467
902.854	18334
902.973	18353
903.091	18171
903.21	18091
903.328	18194
903.446	18049
903.565	17939
903.683	17764
903.801	17760
903.919	17874
904.038	17798
904.156	17741
904.274	17691
904.392	17642
904.51	17748
904.627	17665
904.745	17786
904.863	17608
904.981	17532
905.098	17414
905.216	17349
905.334	17356
905.451	17239
905.569	17383
905.686	17330
905.803	17223
905.921	17113
906.038	17204
906.155	17159
906.272	17003
906.389	16968
906.506	16911
906.623	16790
906.74	16877
906.857	16729
906.974	16828
907.091	16949
907.208	17067
907.324	16873
907.441	16767
907.557	16656
907.674	16611
907.79	16527
907.907	16668
908.023	16622
908.139	16622
908.256	16519
908.372	16466
908.488	16561
908.604	16341
908.72	16360
908.836	16348
908.952	16310
909.068	16360
909.184	16394
909.3	16226
909.415	16299
909.531	16299
909.647	16036
909.762	16112
909.878	15994
909.993	16051
910.108	15987
910.224	15991
910.339	16082
910.454	15869
910.57	15949
910.685	15739
910.8	16021
910.915	15892
911.03	15865
911.145	15663
911.259	15694
911.374	15591
911.489	15641
911.604	15420
911.718	15332
911.833	15428
911.947	15340
912.062	15336
912.176	15363
912.291	15477
912.405	15428
912.519	15523
912.633	15629
912.748	15386
912.862	15291
912.976	15302
913.09	15089
913.204	15222
913.318	15169
913.431	15241
913.545	15336
913.659	15325
913.772	15192
913.886	15093
914	14883
914.113	15119
914.226	15116
914.34	15097
914.453	14899
914.566	15032
914.68	14887
914.793	14902
914.906	14667
915.019	14564
915.132	14571
915.245	14606
915.358	14640
915.47	14579
915.583	14640
915.696	14621
915.809	14655
915.921	14743
916.034	14526
916.146	14560
916.259	14492
916.371	14655
916.483	14511
916.595	14431
916.708	14492
916.82	14556
916.932	14415
917.044	14484
917.156	14389
917.268	14309
917.38	14366
917.491	14305
917.603	14305
917.715	14366
917.826	14355
917.938	14233
918.049	14058
918.161	14244
918.272	14461
918.384	14374
918.495	14248
918.606	14157
918.717	14039
918.828	14039
918.939	14065
919.05	13989
919.161	14100
919.272	13913
919.383	13967
919.494	14123
919.604	14199
919.715	14111
919.826	13978
919.936	13982
920.047	14058
920.157	14058
920.267	14240
920.378	14107
920.488	14050
920.598	14218
920.708	14419
920.818	14103
920.928	14225
921.038	14275
921.148	14301
921.258	14027
921.368	13947
921.477	13902
921.587	13727
921.697	13681
921.806	13727
921.916	13689
922.025	13483
922.134	13434
922.244	13438
922.353	13499
922.462	13301
922.571	13278
922.68	13164
922.789	13019
922.898	13088
923.007	13099
923.116	13145
923.224	13023
923.333	13023
923.442	13023
923.55	12951
923.659	12966
923.767	13046
923.876	12924
923.984	12951
924.092	12821
924.201	12867
924.309	12852
924.417	12806
924.525	12821
924.633	12764
924.741	13742
924.849	12608
924.956	12684
925.064	12669
925.172	12437
925.279	12544
925.387	12582
925.494	12517
925.602	12665
925.709	12585
925.816	12471
925.924	12483
926.031	12574
926.138	12471
926.245	12589
926.352	12448
926.459	12525
926.566	12536
926.673	12448
926.779	12270
926.886	12228
926.993	12194
927.099	12091
927.206	12068
927.312	12064
927.419	12159
927.525	12155
927.631	12148
927.737	12030
927.843	12057
927.95	11832
928.056	11992
928.162	11988
928.267	11980
928.373	12528
928.479	12003
928.585	11813
928.69	11916
928.796	11954
928.901	11840
929.007	11672
929.112	11767
929.218	11794
929.323	11710
929.428	11748
929.533	11802
929.638	11691
929.743	11748
929.848	11737
929.953	11703
930.058	11535
930.163	11318
930.267	11379
930.372	11554
930.477	11398
930.581	11501
930.685	11520
930.79	11284
930.894	11334
930.998	11250
931.103	11482
931.207	11056
931.311	10965
931.415	10831
931.519	10691
931.623	10691
