Data from test_V78500241_593.txt Node
Date: Fri Mar 25 15:13:59 CST 2022
User: usil
Spectrometer: V785-0024
Trigger mode: 0
Integration Time (sec): 4.000000E-1
Scans to average: 1
Nonlinearity correction enabled: false
Boxcar width: 0
Storing dark spectrum: false
XAxis mode: Wavelengths
Number of Pixels in Spectrum: 1024
>>>>>Begin Spectral Data<<<<<
801.071	27660
801.214	27424
801.356	27188
801.499	27169
801.641	27104
801.783	27032
801.926	27085
802.068	27039
802.211	26864
802.353	26929
802.496	26739
802.638	26667
802.78	26659
802.923	26701
803.065	26556
803.208	26655
803.35	26629
803.492	26739
803.635	26925
803.777	26705
803.919	26895
804.061	27047
804.204	26906
804.346	26849
804.488	26933
804.63	26933
804.773	26697
804.915	26906
805.057	26944
805.199	26830
805.341	26891
805.483	27001
805.626	26864
805.768	26872
805.91	26944
806.052	26967
806.194	26914
806.336	27241
806.478	26910
806.62	26960
806.762	27203
806.904	27176
807.046	27408
807.188	27275
807.33	27386
807.472	27542
807.614	27363
807.756	27245
807.898	27211
808.04	27161
808.182	27138
808.324	27329
808.465	27150
808.607	27310
808.749	27420
808.891	27580
809.033	27739
809.174	27553
809.316	27545
809.458	27477
809.6	27644
809.741	27728
809.883	27732
810.025	28059
810.166	27930
810.308	27972
810.45	27865
810.591	27762
810.733	27568
810.875	27523
811.016	27504
811.158	27534
811.299	27652
811.441	27812
811.582	27804
811.724	27515
811.865	27564
812.007	27553
812.148	27542
812.29	27454
812.431	27614
812.573	27922
812.714	28063
812.855	28067
812.997	28303
813.138	28360
813.279	28196
813.421	28074
813.562	28192
813.703	28013
813.845	27766
813.986	27591
814.127	27382
814.268	27298
814.41	27363
814.551	27363
814.692	27370
814.833	27222
814.974	27329
815.115	27332
815.256	27173
815.397	27135
815.539	27157
815.68	27070
815.821	27024
815.962	27070
816.103	26967
816.244	26986
816.385	26876
816.526	26830
816.666	26731
816.807	26526
816.948	26655
817.089	26739
817.23	26541
817.371	26606
817.512	26674
817.653	26625
817.793	26415
817.934	26522
818.075	26606
818.216	26465
818.356	26579
818.497	26423
818.638	26309
818.778	26381
818.919	26309
819.06	26362
819.2	26465
819.341	26598
819.481	26514
819.622	26689
819.762	26899
819.903	26804
820.043	26754
820.184	26758
820.324	26727
820.465	26781
820.605	26625
820.746	26590
820.886	26583
821.026	26594
821.167	26613
821.307	26716
821.447	26598
821.588	26427
821.728	26381
821.868	26092
822.008	26183
822.149	25966
822.289	26016
822.429	25738
822.569	25704
822.709	25677
822.849	25613
822.99	25643
823.13	25544
823.27	25449
823.41	25354
823.55	25114
823.69	25438
823.83	25263
823.97	25308
824.11	25160
824.25	25160
824.389	25206
824.529	25175
824.669	25263
824.809	25411
824.949	25206
825.089	25381
825.228	25232
825.368	24958
825.508	25110
825.648	25129
825.787	25141
825.927	25072
826.067	24970
826.206	25065
826.346	25148
826.485	25103
826.625	25031
826.765	25095
826.904	25152
827.044	24856
827.183	24810
827.323	24658
827.462	24802
827.601	24722
827.741	24810
827.88	24677
828.02	24650
828.159	24753
828.298	24772
828.437	24852
828.577	24829
828.716	24859
828.855	24700
828.994	24505
829.134	24486
829.273	24448
829.412	24460
829.551	24486
829.69	24578
829.829	24578
829.968	24570
830.107	24502
830.246	24547
830.385	24433
830.524	24315
830.663	24239
830.802	24117
830.941	24102
831.08	24129
831.219	24026
831.357	24152
831.496	24311
831.635	23992
831.774	23996
831.913	24076
832.051	23904
832.19	23866
832.329	23863
832.467	23726
832.606	23714
832.744	23718
832.883	23847
833.022	23729
833.16	23786
833.299	23878
833.437	23771
833.576	23828
833.714	23745
833.852	23733
833.991	23939
834.129	23904
834.267	23824
834.406	23847
834.544	23893
834.682	23756
834.821	23767
834.959	24003
835.097	23718
835.235	23832
835.373	23748
835.511	23855
835.65	23623
835.788	23703
835.926	23512
836.064	23425
836.202	23554
836.34	23760
836.478	23695
836.615	23714
836.753	23604
836.891	23733
837.029	23707
837.167	23668
837.305	23596
837.443	23547
837.58	23516
837.718	23589
837.856	23562
837.993	23383
838.131	23512
838.269	23391
838.406	23391
838.544	23254
838.681	23193
838.819	23124
838.956	23048
839.094	22957
839.231	23033
839.369	23052
839.506	23421
839.643	23162
839.781	23060
839.918	23018
840.055	23056
840.193	22972
840.33	22930
840.467	22835
840.604	22965
840.742	23235
840.879	22816
841.016	22763
841.153	22774
841.29	22961
841.427	22942
841.564	22999
841.701	22877
841.838	22873
841.975	22820
842.112	22767
842.249	22675
842.385	22611
842.522	22885
842.659	22759
842.796	22596
842.933	22675
843.069	22519
843.206	22634
843.343	22740
843.479	22577
843.616	22634
843.752	22504
843.889	22447
844.025	22603
844.162	22500
844.298	22607
844.435	22527
844.571	22493
844.708	22497
844.844	22546
844.98	22542
845.117	22569
845.253	22390
845.389	22280
845.525	22291
845.661	22291
845.798	22173
845.934	22276
846.07	22074
846.206	22242
846.342	22181
846.478	22025
846.614	22059
846.75	21899
846.886	21869
847.022	21953
847.158	21857
847.294	21873
847.429	21945
847.565	21930
847.701	22207
847.837	21698
847.972	21580
848.108	21637
848.244	21705
848.379	21439
848.515	21526
848.65	21416
848.786	21439
848.921	21504
849.057	21629
849.192	21534
849.328	21561
849.463	21397
849.598	21405
849.734	21515
849.869	21332
850.004	21184
850.14	21336
850.275	21302
850.41	21207
850.545	21089
850.68	21222
850.815	21226
850.95	21176
851.085	21485
851.22	21329
851.355	21222
851.49	21275
851.625	21268
851.76	21233
851.895	21135
852.03	21112
852.165	21173
852.299	21184
852.434	21424
852.569	21325
852.703	21336
852.838	21389
852.973	21367
853.107	21363
853.242	21233
853.376	21085
853.511	20948
853.645	20971
853.78	21268
853.914	21051
854.048	21089
854.183	21100
854.317	21085
854.451	21252
854.585	21093
854.72	21108
854.854	21214
854.988	21028
855.122	21146
855.256	20902
855.39	21047
855.524	21096
855.658	21192
855.792	21104
855.926	21108
856.06	21112
856.194	21199
856.327	21036
856.461	20986
856.595	21005
856.729	21104
856.862	21176
856.996	21043
857.13	21135
857.263	21161
857.397	21230
857.53	21058
857.664	21047
857.797	21119
857.931	21230
858.064	21017
858.197	21154
858.331	20986
858.464	20960
858.597	21085
858.731	21085
858.864	21066
858.997	21005
859.13	21051
859.263	21070
859.396	21188
859.529	21100
859.662	21055
859.795	20963
859.928	21058
860.061	21188
860.194	21370
860.327	21104
860.46	21055
860.592	21199
860.725	21298
860.858	21176
860.99	21096
861.123	20998
861.256	21001
861.388	21074
861.521	21926
861.653	20815
861.786	20963
861.918	20941
862.05	21074
862.183	20971
862.315	20960
862.447	21055
862.58	21066
862.712	20724
862.844	20777
862.976	20941
863.108	20788
863.24	21245
863.372	20621
863.504	20746
863.636	20823
863.768	20746
863.9	20731
864.032	20731
864.164	20769
864.296	20891
864.428	20963
864.559	20971
864.691	20948
864.823	20765
864.954	20800
865.086	20868
865.217	20754
865.349	20785
865.48	20659
865.612	20583
865.743	20849
865.875	20708
866.006	20697
866.137	20705
866.269	20705
866.4	20663
866.531	20609
866.662	20625
866.793	20716
866.924	20705
867.055	20609
867.186	20720
867.317	20461
867.448	20556
867.579	20518
867.71	20609
867.841	20511
867.972	20545
868.103	20632
868.233	20602
868.364	20609
868.495	20651
868.625	20849
868.756	20986
868.886	20762
869.017	20746
869.147	21017
869.278	21001
869.408	20823
869.539	20941
869.669	20933
869.799	20918
869.929	21051
870.06	20948
870.19	21237
870.32	21104
870.45	21249
870.58	21340
870.71	21325
870.84	21344
870.97	21268
871.1	21336
871.23	21420
871.36	21450
871.489	21382
871.619	21401
871.749	21599
871.879	21511
872.008	21557
872.138	21469
872.267	21523
872.397	21367
872.526	21218
872.656	21165
872.785	21382
872.915	21454
873.044	21431
873.173	21420
873.303	21526
873.432	21542
873.561	21580
873.69	21526
873.819	21291
873.948	21568
874.077	21549
874.206	21431
874.335	21447
874.464	21580
874.593	21781
874.722	21679
874.851	21778
874.979	21759
875.108	21698
875.237	21660
875.365	21629
875.494	21701
875.623	21778
875.751	21709
875.88	21705
876.008	21850
876.136	21850
876.265	22154
876.393	22215
876.521	22234
876.65	22230
876.778	22135
876.906	22059
877.034	22063
877.162	22078
877.29	22002
877.418	22010
877.546	22116
877.674	21994
877.802	22013
877.93	22067
878.058	22040
878.185	22017
878.313	22082
878.441	21994
878.568	21861
878.696	21876
878.824	22109
878.951	22253
879.079	22265
879.206	22253
879.333	22124
879.461	22116
879.588	22090
879.715	22272
879.842	22322
879.97	22188
880.097	21895
880.224	21876
880.351	21953
880.478	21937
880.605	21888
880.732	21869
880.859	22124
880.986	21892
881.112	21793
881.239	21713
881.366	21545
881.493	21542
881.619	21549
881.746	21485
881.872	21473
881.999	21428
882.125	21378
882.252	21526
882.378	21473
882.505	21542
882.631	21294
882.757	21184
882.883	21256
883.01	21195
883.136	21096
883.262	21024
883.388	20998
883.514	21310
883.64	21203
883.766	21074
883.892	21047
884.018	21001
884.143	20975
884.269	21249
884.395	20849
884.52	20830
884.646	20902
884.772	20861
884.897	20712
885.023	20785
885.148	20880
885.274	20986
885.399	20910
885.524	20834
885.65	20910
885.775	20758
885.9	20807
886.025	20899
886.15	20864
886.275	20716
886.4	20792
886.525	20777
886.65	20727
886.775	20762
886.9	20861
887.025	20956
887.149	20765
887.274	20651
887.399	20480
887.523	20606
887.648	20522
887.773	20454
887.897	20640
888.021	20541
888.146	20564
888.27	20511
888.395	20606
888.519	20621
888.643	20678
888.767	20705
888.891	20393
889.015	20324
889.139	20275
889.263	20389
889.387	20431
889.511	20598
889.635	20606
889.759	20404
889.883	20317
890.006	20286
890.13	20404
890.254	20434
890.377	20370
890.501	20077
890.624	20130
890.748	20157
890.871	20077
890.995	19967
891.118	19993
891.241	19860
891.364	20005
891.488	20111
891.611	19986
891.734	19940
891.857	20069
891.98	19947
892.103	20012
892.226	20012
892.349	20050
892.471	19856
892.594	19967
892.717	19818
892.839	19875
892.962	19955
893.085	19997
893.207	19890
893.33	19696
893.452	19738
893.575	19917
893.697	19856
893.819	20012
893.941	19993
894.064	20001
894.186	19776
894.308	19719
894.43	19909
894.552	19906
894.674	19947
894.796	19757
894.918	19826
895.04	19879
895.161	20043
895.283	19898
895.405	19906
895.526	19811
895.648	19780
895.769	19932
895.891	19906
896.012	19982
896.134	19970
896.255	19883
896.376	19811
896.498	19780
896.619	19967
896.74	19921
896.861	19959
896.982	20176
897.103	20336
897.224	20122
897.345	20073
897.466	20020
897.587	20100
897.708	20328
897.828	20130
897.949	20046
898.07	20069
898.19	20008
898.311	20252
898.431	20084
898.552	20050
898.672	20142
898.792	20252
898.913	20252
899.033	20111
899.153	19955
899.273	19761
899.393	19852
899.513	19932
899.633	19849
899.753	19883
899.873	19864
899.993	19913
900.113	19807
900.232	19849
900.352	19772
900.472	19742
900.591	19582
900.711	19731
900.83	19597
900.95	19674
901.069	19757
901.189	19483
901.308	19350
901.427	19259
901.546	19247
901.665	19232
901.784	19304
901.904	19133
902.023	18875
902.141	18878
902.26	18833
902.379	18776
902.498	18848
902.617	18738
902.735	18840
902.854	18814
902.973	18711
903.091	18521
903.21	18517
903.328	18445
903.446	18384
903.565	18213
903.683	18247
903.801	18125
903.919	18220
904.038	18235
904.156	18015
904.274	18114
904.392	17988
904.51	17954
904.627	18003
904.745	17958
904.863	18121
904.981	17878
905.098	17745
905.216	17752
905.334	17745
905.451	17722
905.569	17649
905.686	17733
905.803	17638
905.921	17532
906.038	17585
906.155	17452
906.272	17395
906.389	17455
906.506	17326
906.623	17318
906.74	17337
906.857	17162
906.974	17140
907.091	17311
907.208	17265
907.324	17322
907.441	17155
907.557	16961
907.674	16968
907.79	16900
907.907	16949
908.023	16942
908.139	17010
908.256	16835
908.372	16839
908.488	16915
908.604	16641
908.72	16588
908.836	16717
908.952	16611
909.068	16752
909.184	16611
909.3	16710
909.415	16687
909.531	16611
909.647	16428
909.762	16455
909.878	16306
909.993	16386
910.108	16363
910.224	16196
910.339	16386
910.454	16234
910.57	16204
910.685	16173
910.8	16451
910.915	16303
911.03	16200
911.145	16017
911.259	15907
911.374	15972
911.489	15846
911.604	15816
911.718	15690
911.833	15656
911.947	15652
912.062	15595
912.176	15644
912.291	15781
912.405	15732
912.519	15812
912.633	15873
912.748	15861
912.862	15732
912.976	15652
913.09	15511
913.204	15534
913.318	15549
913.431	15713
913.545	15648
913.659	15629
913.772	15447
913.886	15325
914	15332
914.113	15389
914.226	15462
914.34	15374
914.453	15298
914.566	15260
914.68	15165
914.793	15249
914.906	15070
915.019	14910
915.132	14937
915.245	15001
915.358	14891
915.47	14937
915.583	14971
915.696	14929
915.809	14994
915.921	15070
916.034	14853
916.146	14731
916.259	14842
916.371	14944
916.483	14819
916.595	14891
916.708	14834
916.82	14800
916.932	14842
917.044	14727
917.156	14727
917.268	14594
917.38	14781
917.491	14492
917.603	14613
917.715	14739
917.826	14674
917.938	14549
918.049	14438
918.161	14552
918.272	14629
918.384	14724
918.495	14495
918.606	14385
918.717	14225
918.828	14404
918.939	14370
919.05	14355
919.161	14423
919.272	14134
919.383	14271
919.494	14408
919.604	14571
919.715	14400
919.826	14305
919.936	14259
920.047	14526
920.157	14374
920.267	14499
920.378	14408
920.488	14370
920.598	14469
920.708	14663
920.818	14552
920.928	14396
921.038	14602
921.148	14617
921.258	14313
921.368	14180
921.477	14005
921.587	14123
921.697	14020
921.806	14062
921.916	13932
922.025	13795
922.134	13689
922.244	13723
922.353	13788
922.462	13556
922.571	13518
922.68	13514
922.789	13441
922.898	13358
923.007	13331
923.116	13445
923.224	13373
923.333	13400
923.442	13221
923.55	13202
923.659	13236
923.767	13308
923.876	13164
923.984	13175
924.092	13099
924.201	13053
924.309	13133
924.417	13190
924.525	13034
924.633	13091
924.741	13799
924.849	12856
924.956	13050
925.064	12817
925.172	12760
925.279	12802
925.387	12829
925.494	12779
925.602	12932
925.709	12867
925.816	12707
925.924	12722
926.031	12856
926.138	12745
926.245	12795
926.352	12711
926.459	12783
926.566	12829
926.673	12662
926.779	12509
926.886	12475
926.993	12452
927.099	12346
927.206	12372
927.312	12209
927.419	12429
927.525	12338
927.631	12403
927.737	12281
927.843	12201
927.95	12098
928.056	12167
928.162	12277
928.267	12197
928.373	12878
928.479	12296
928.585	12083
928.69	12216
928.796	12178
928.901	12117
929.007	11980
929.112	12072
929.218	11969
929.323	11885
929.428	11950
929.533	12026
929.638	11832
929.743	11798
929.848	11958
929.953	11916
930.058	11786
930.163	11608
930.267	11627
930.372	11859
930.477	11520
930.581	11733
930.685	11646
930.79	11452
930.894	11554
930.998	11486
931.103	11649
931.207	11315
931.311	11223
931.415	11189
931.519	10850
931.623	10908
