Data from test_V78500241_2049.txt Node
Date: Fri Mar 25 15:24:07 CST 2022
User: usil
Spectrometer: V785-0024
Trigger mode: 0
Integration Time (sec): 4.000000E-1
Scans to average: 1
Nonlinearity correction enabled: false
Boxcar width: 0
Storing dark spectrum: false
XAxis mode: Wavelengths
Number of Pixels in Spectrum: 1024
>>>>>Begin Spectral Data<<<<<
801.071	27747
801.214	27747
801.356	27587
801.499	27511
801.641	27416
801.783	27340
801.926	27367
802.068	27481
802.211	27272
802.353	27252
802.496	27184
802.638	27085
802.78	27093
802.923	27005
803.065	26845
803.208	26937
803.35	27062
803.492	27203
803.635	27188
803.777	27192
803.919	27165
804.061	27473
804.204	27313
804.346	27298
804.488	27207
804.63	27123
804.773	27188
804.915	27291
805.057	27363
805.199	27062
805.341	27386
805.483	27397
805.626	27283
805.768	27233
805.91	27450
806.052	27351
806.194	27401
806.336	27496
806.478	27310
806.62	27264
806.762	27283
806.904	27686
807.046	27911
807.188	27797
807.33	27762
807.472	27819
807.614	27827
807.756	27770
807.898	27637
808.04	27603
808.182	27606
808.324	27679
808.465	27709
808.607	27907
808.749	28010
808.891	28048
809.033	28135
809.174	28040
809.316	28002
809.458	27880
809.6	28036
809.741	28150
809.883	28059
810.025	28299
810.166	28192
810.308	28421
810.45	28105
810.591	28162
810.733	28070
810.875	27968
811.016	27960
811.158	27972
811.299	28101
811.441	28036
811.582	28063
811.724	28051
811.865	27968
812.007	27892
812.148	27857
812.29	28006
812.431	28112
812.573	28394
812.714	28424
812.855	28500
812.997	28580
813.138	28656
813.279	28474
813.421	28497
813.562	28337
813.703	28314
813.845	28341
813.986	27994
814.127	27854
814.268	27686
814.41	27762
814.551	27679
814.692	27755
814.833	27686
814.974	27622
815.115	27728
815.256	27591
815.397	27519
815.539	27580
815.68	27523
815.821	27443
815.962	27408
816.103	27481
816.244	27359
816.385	27359
816.526	27119
816.666	27070
816.807	26880
816.948	27062
817.089	26998
817.23	27043
817.371	26940
817.512	27017
817.653	26933
817.793	26895
817.934	26899
818.075	26899
818.216	27009
818.356	26979
818.497	26872
818.638	26697
818.778	26712
818.919	26689
819.06	26788
819.2	26921
819.341	26940
819.481	26876
819.622	27119
819.762	27313
819.903	27165
820.043	27135
820.184	27020
820.324	27066
820.465	27062
820.605	27058
820.746	27096
820.886	26952
821.026	27077
821.167	26982
821.307	27096
821.447	26777
821.588	26883
821.728	26750
821.868	26552
822.008	26488
822.149	26385
822.289	26499
822.429	26210
822.569	26130
822.709	26062
822.849	25913
822.99	25845
823.13	25830
823.27	25921
823.41	25769
823.55	25575
823.69	25715
823.83	25742
823.97	25723
824.11	25438
824.25	25544
824.389	25639
824.529	25704
824.669	25578
824.809	25803
824.949	25613
825.089	25674
825.228	25632
825.368	25304
825.508	25377
825.648	25479
825.787	25487
825.927	25438
826.067	25441
826.206	25438
826.346	25419
826.485	25304
826.625	25434
826.765	25590
826.904	25495
827.044	25285
827.183	25217
827.323	25152
827.462	25175
827.601	25198
827.741	25263
827.88	25122
828.02	25061
828.159	25084
828.298	25118
828.437	25202
828.577	25008
828.716	25346
828.855	25114
828.994	24875
829.134	24913
829.273	24787
829.412	24764
829.551	24806
829.69	24875
829.829	25000
829.968	24909
830.107	24928
830.246	24951
830.385	24833
830.524	24882
830.663	24726
830.802	24620
830.941	24376
831.08	24395
831.219	24593
831.357	24627
831.496	24635
831.635	24418
831.774	24418
831.913	24353
832.051	24235
832.19	24197
832.329	24311
832.467	24251
832.606	24076
832.744	24026
832.883	24152
833.022	24087
833.16	24167
833.299	24087
833.437	24041
833.576	24254
833.714	24216
833.852	24247
833.991	24292
834.129	24171
834.267	24174
834.406	24194
834.544	24254
834.682	24125
834.821	24121
834.959	24327
835.097	24079
835.235	24243
835.373	24197
835.511	24190
835.65	24018
835.788	24110
835.926	23840
836.064	23958
836.202	23870
836.34	24079
836.478	24049
836.615	23992
836.753	24095
836.891	24102
837.029	24011
837.167	24003
837.305	23950
837.443	23870
837.58	23832
837.718	23961
837.856	24045
837.993	23870
838.131	23786
838.269	23737
838.406	23809
838.544	23668
838.681	23531
838.819	23573
838.956	23452
839.094	23292
839.231	23395
839.369	23391
839.506	23733
839.643	23512
839.781	23337
839.918	23345
840.055	23349
840.193	23318
840.33	23250
840.467	23212
840.604	23315
840.742	23524
840.879	23105
841.016	23181
841.153	23166
841.29	23417
841.427	23303
841.564	23181
841.701	23326
841.838	23147
841.975	23121
842.112	23166
842.249	23128
842.385	22972
842.522	23227
842.659	23098
842.796	22984
842.933	23121
843.069	22900
843.206	22999
843.343	23056
843.479	23090
843.616	22987
843.752	22778
843.889	22793
844.025	22942
844.162	22774
844.298	22835
844.435	22839
844.571	22698
844.708	22744
844.844	22934
844.98	22869
845.117	22850
845.253	22725
845.389	22675
845.525	22599
845.661	22801
845.798	22516
845.934	22443
846.07	22569
846.206	22580
846.342	22653
846.478	22584
846.614	22344
846.75	22188
846.886	22268
847.022	22367
847.158	22310
847.294	22284
847.429	22398
847.565	22147
847.701	22440
847.837	22059
847.972	21888
848.108	22242
848.244	22093
848.379	21793
848.515	21907
848.65	21876
848.786	21911
848.921	21781
849.057	21937
849.192	21869
849.328	21854
849.463	21789
849.598	21800
849.734	21755
849.869	21549
850.004	21553
850.14	21698
850.275	21629
850.41	21545
850.545	21644
850.68	21629
850.815	21610
850.95	21610
851.085	21778
851.22	21705
851.355	21622
851.49	21473
851.625	21553
851.76	21534
851.895	21511
852.03	21481
852.165	21538
852.299	21462
852.434	21728
852.569	21561
852.703	21587
852.838	21591
852.973	21789
853.107	21778
853.242	21561
853.376	21447
853.511	21332
853.645	21435
853.78	21618
853.914	21367
854.048	21344
854.183	21378
854.317	21447
854.451	21576
854.585	21420
854.72	21428
854.854	21416
854.988	21348
855.122	21363
855.256	21416
855.39	21397
855.524	21622
855.658	21507
855.792	21496
855.926	21481
856.06	21469
856.194	21416
856.327	21526
856.461	21336
856.595	21431
856.729	21367
856.862	21485
856.996	21382
857.13	21538
857.263	21583
857.397	21583
857.53	21424
857.664	21424
857.797	21507
857.931	21367
858.064	21534
858.197	21595
858.331	21405
858.464	21412
858.597	21340
858.731	21264
858.864	21393
858.997	21542
859.13	21344
859.263	21500
859.396	21576
859.529	21332
859.662	21317
859.795	21348
859.928	21485
860.061	21561
860.194	21549
860.327	21603
860.46	21515
860.592	21481
860.725	21530
860.858	21542
860.99	21458
861.123	21317
861.256	21393
861.388	21519
861.521	22070
861.653	21283
861.786	21325
861.918	21294
862.05	21214
862.183	21241
862.315	21401
862.447	21481
862.58	21264
862.712	21116
862.844	21077
862.976	21245
863.108	21298
863.24	21492
863.372	20998
863.504	21131
863.636	21047
863.768	21131
863.9	21085
864.032	21093
864.164	21043
864.296	21017
864.428	21230
864.559	21252
864.691	21127
864.823	21169
864.954	21138
865.086	21184
865.217	21032
865.349	21058
865.48	21028
865.612	21017
865.743	21211
865.875	21146
866.006	21039
866.137	21047
866.269	21119
866.4	20990
866.531	21028
866.662	20948
866.793	20952
866.924	20979
867.055	20982
867.186	20842
867.317	20925
867.448	20857
867.579	20895
867.71	20910
867.841	20853
867.972	20933
868.103	21085
868.233	20937
868.364	20967
868.495	21047
868.625	21161
868.756	21351
868.886	21104
869.017	21260
869.147	21321
869.278	21355
869.408	21104
869.539	21165
869.669	21279
869.799	21188
869.929	21298
870.06	21291
870.19	21386
870.32	21488
870.45	21656
870.58	21576
870.71	21663
870.84	21724
870.97	21603
871.1	21663
871.23	21736
871.36	21842
871.489	21743
871.619	21770
871.749	21770
871.879	21835
872.008	21812
872.138	21800
872.267	21709
872.397	21759
872.526	21603
872.656	21568
872.785	21591
872.915	21797
873.044	21930
873.173	21789
873.303	21861
873.432	21918
873.561	21797
873.69	21728
873.819	21736
873.948	21873
874.077	21732
874.206	21720
874.335	21743
874.464	21861
874.593	22078
874.722	21972
874.851	22101
874.979	22025
875.108	22135
875.237	21945
875.365	21937
875.494	22029
875.623	22131
875.751	22002
875.88	22063
876.008	22181
876.136	22242
876.265	22417
876.393	22641
876.521	22538
876.65	22512
876.778	22500
876.906	22436
877.034	22310
877.162	22516
877.29	22352
877.418	22314
877.546	22421
877.674	22325
877.802	22268
877.93	22318
878.058	22390
878.185	22253
878.313	22485
878.441	22421
878.568	22253
878.696	22280
878.824	22432
878.951	22466
879.079	22546
879.206	22599
879.333	22596
879.461	22371
879.588	22554
879.715	22424
879.842	22603
879.97	22580
880.097	22268
880.224	22169
880.351	22344
880.478	22139
880.605	22131
880.732	22196
880.859	22386
880.986	22219
881.112	22200
881.239	22051
881.366	21953
881.493	21861
881.619	21804
881.746	21797
881.872	21831
881.999	21701
882.125	21717
882.252	21785
882.378	21720
882.505	21972
882.631	21572
882.757	21561
882.883	21591
883.01	21557
883.136	21557
883.262	21348
883.388	21279
883.514	21515
883.64	21538
883.766	21302
883.892	21302
884.018	21298
884.143	21431
884.269	21530
884.395	21104
884.52	20975
884.646	21268
884.772	20971
884.897	20975
885.023	21093
885.148	21252
885.274	21283
885.399	21283
885.524	20990
885.65	21074
885.775	21112
885.9	21089
886.025	21169
886.15	21184
886.275	21062
886.4	21085
886.525	21146
886.65	21043
886.775	21013
886.9	21119
887.025	21222
887.149	21093
887.274	20918
887.399	20899
887.523	20838
887.648	20804
887.773	20678
887.897	20982
888.021	20937
888.146	20891
888.27	20887
888.395	20960
888.519	20853
888.643	20937
888.767	20853
888.891	20621
889.015	20640
889.139	20743
889.263	20632
889.387	20788
889.511	20826
889.635	20815
889.759	20594
889.883	20533
890.006	20663
890.13	20686
890.254	20621
890.377	20587
890.501	20476
890.624	20480
890.748	20549
890.871	20355
890.995	20233
891.118	20153
891.241	20278
891.364	20164
891.488	20427
891.611	20233
891.734	20275
891.857	20362
891.98	20225
892.103	20282
892.226	20153
892.349	20202
892.471	20119
892.594	20183
892.717	20183
892.839	20084
892.962	20157
893.085	20336
893.207	20172
893.33	20046
893.452	20153
893.575	20138
893.697	20081
893.819	20362
893.941	20332
894.064	20259
894.186	20081
894.308	20088
894.43	20259
894.552	20244
894.674	20294
894.796	20096
894.918	20100
895.04	20130
895.161	20214
895.283	20214
895.405	20073
895.526	20210
895.648	20187
895.769	20195
895.891	20153
896.012	20191
896.134	20259
896.255	20145
896.376	20256
896.498	20130
896.619	20290
896.74	20161
896.861	20309
896.982	20473
897.103	20617
897.224	20442
897.345	20366
897.466	20301
897.587	20393
897.708	20560
897.828	20419
897.949	20317
898.07	20263
898.19	20412
898.311	20393
898.431	20183
898.552	20206
898.672	20492
898.792	20446
898.913	20412
899.033	20168
899.153	20145
899.273	20172
899.393	20088
899.513	20214
899.633	20164
899.753	20126
899.873	19936
899.993	20187
900.113	20115
900.232	20096
900.352	19974
900.472	19837
900.591	19868
900.711	19879
900.83	19871
900.95	19837
901.069	19978
901.189	19883
901.308	19556
901.427	19384
901.546	19544
901.665	19445
901.784	19365
901.904	19312
902.023	19217
902.141	19107
902.26	19091
902.379	19053
902.498	18996
902.617	18970
902.735	19031
902.854	18966
902.973	18970
903.091	18513
903.21	18566
903.328	18703
903.446	18513
903.565	18391
903.683	18544
903.801	18292
903.919	18475
904.038	18418
904.156	18304
904.274	18319
904.392	18243
904.51	18266
904.627	18243
904.745	18201
904.863	18296
904.981	18091
905.098	17950
905.216	17908
905.334	17843
905.451	17901
905.569	17836
905.686	17908
905.803	17851
905.921	17649
906.038	17722
906.155	17661
906.272	17512
906.389	17592
906.506	17421
906.623	17493
906.74	17395
906.857	17261
906.974	17345
907.091	17467
907.208	17562
907.324	17433
907.441	17341
907.557	17242
907.674	17216
907.79	17113
907.907	17048
908.023	17113
908.139	17220
908.256	17048
908.372	16995
908.488	17010
908.604	16896
908.72	16877
908.836	16885
908.952	16824
909.068	16854
909.184	17006
909.3	16953
909.415	16972
909.531	16866
909.647	16584
909.762	16516
909.878	16649
909.993	16599
910.108	16527
910.224	16504
910.339	16588
910.454	16386
910.57	16371
910.685	16306
910.8	16565
910.915	16603
911.03	16325
911.145	16265
911.259	16234
911.374	16287
911.489	16105
911.604	16036
911.718	16017
911.833	15922
911.947	15739
912.062	15857
912.176	15781
912.291	15975
912.405	15865
912.519	16067
912.633	16063
912.748	15949
912.862	16010
912.976	15747
913.09	15663
913.204	15751
913.318	15709
913.431	15762
913.545	15865
913.659	15831
913.772	15633
913.886	15622
914	15424
914.113	15481
914.226	15614
914.34	15591
914.453	15435
914.566	15580
914.68	15526
914.793	15382
914.906	15321
915.019	15100
915.132	15127
915.245	15077
915.358	15142
915.47	15119
915.583	15199
915.696	15104
915.809	15249
915.921	15184
916.034	14944
916.146	15028
916.259	15028
916.371	15077
916.483	15074
916.595	14902
916.708	14944
916.82	15047
916.932	14918
917.044	14891
917.156	14845
917.268	14754
917.38	14887
917.491	14792
917.603	14872
917.715	14804
917.826	14872
917.938	14788
918.049	14644
918.161	14887
918.272	14941
918.384	14826
918.495	14765
918.606	14530
918.717	14511
918.828	14568
918.939	14545
919.05	14454
919.161	14629
919.272	14328
919.383	14362
919.494	14545
919.604	14746
919.715	14606
919.826	14495
919.936	14488
920.047	14552
920.157	14492
920.267	14663
920.378	14492
920.488	14495
920.598	14655
920.708	14819
920.818	14579
920.928	14507
921.038	14845
921.148	14705
921.258	14465
921.368	14419
921.477	14244
921.587	14275
921.697	14092
921.806	14183
921.916	14077
922.025	13898
922.134	13925
922.244	13856
922.353	13890
922.462	13788
922.571	13704
922.68	13578
922.789	13605
922.898	13460
923.007	13552
923.116	13472
923.224	13548
923.333	13449
923.442	13346
923.55	13358
923.659	13384
923.767	13430
923.876	13301
923.984	13457
924.092	13209
924.201	13316
924.309	13278
924.417	13183
924.525	13129
924.633	13274
924.741	13925
924.849	13023
924.956	13141
925.064	12989
925.172	12867
925.279	12951
925.387	12977
925.494	12875
925.602	13091
925.709	12973
925.816	12897
925.924	12905
926.031	12882
926.138	12852
926.245	12905
926.352	12840
926.459	12996
926.566	12886
926.673	12806
926.779	12642
926.886	12608
926.993	12513
927.099	12433
927.206	12540
927.312	12540
927.419	12608
927.525	12422
927.631	12486
927.737	12399
927.843	12315
927.95	12243
928.056	12258
928.162	12277
928.267	12369
928.373	12947
928.479	12376
928.585	12076
928.69	12247
928.796	12384
928.901	12243
929.007	12041
929.112	12114
929.218	12182
929.323	12171
929.428	12095
929.533	12171
929.638	12003
929.743	12019
929.848	12072
929.953	12091
930.058	11859
930.163	11737
930.267	11771
930.372	11912
930.477	11646
930.581	11904
930.685	11821
930.79	11653
930.894	11718
930.998	11653
931.103	11786
931.207	11448
931.311	11258
931.415	11208
931.519	11041
931.623	10938
