Data from test_V78500241_1816.txt Node
Date: Fri Mar 25 15:22:30 CST 2022
User: usil
Spectrometer: V785-0024
Trigger mode: 0
Integration Time (sec): 4.000000E-1
Scans to average: 1
Nonlinearity correction enabled: false
Boxcar width: 0
Storing dark spectrum: false
XAxis mode: Wavelengths
Number of Pixels in Spectrum: 1024
>>>>>Begin Spectral Data<<<<<
801.071	27816
801.214	27838
801.356	27610
801.499	27504
801.641	27374
801.783	27355
801.926	27576
802.068	27351
802.211	27332
802.353	27291
802.496	27062
802.638	27024
802.78	27024
802.923	27100
803.065	26998
803.208	26838
803.35	27146
803.492	27214
803.635	27211
803.777	27226
803.919	27214
804.061	27595
804.204	27291
804.346	27237
804.488	27218
804.63	27157
804.773	27043
804.915	27386
805.057	27329
805.199	27241
805.341	27268
805.483	27469
805.626	27310
805.768	27291
805.91	27336
806.052	27359
806.194	27237
806.336	27481
806.478	27344
806.62	27294
806.762	27416
806.904	27549
807.046	27861
807.188	27785
807.33	27713
807.472	27747
807.614	27656
807.756	27686
807.898	27667
808.04	27599
808.182	27549
808.324	27587
808.465	27652
808.607	27873
808.749	28010
808.891	28078
809.033	28162
809.174	28025
809.316	27846
809.458	28044
809.6	27873
809.741	28090
809.883	28131
810.025	28219
810.166	28215
810.308	28249
810.45	28150
810.591	28238
810.733	28059
810.875	27857
811.016	27857
811.158	27797
811.299	28006
811.441	28101
811.582	28158
811.724	27914
811.865	27972
812.007	27972
812.148	28063
812.29	28070
812.431	28158
812.573	28367
812.714	28424
812.855	28550
812.997	28565
813.138	28626
813.279	28626
813.421	28542
813.562	28531
813.703	28200
813.845	28215
813.986	27907
814.127	27759
814.268	27778
814.41	27705
814.551	27641
814.692	27747
814.833	27629
814.974	27713
815.115	27804
815.256	27515
815.397	27549
815.539	27557
815.68	27477
815.821	27405
815.962	27401
816.103	27526
816.244	27359
816.385	27287
816.526	27252
816.666	27131
816.807	26960
816.948	26998
817.089	27077
817.23	26979
817.371	26925
817.512	27020
817.653	26963
817.793	26819
817.934	26921
818.075	27123
818.216	27043
818.356	26921
818.497	26883
818.638	26773
818.778	26750
818.919	26663
819.06	26758
819.2	26826
819.341	26956
819.481	26952
819.622	27081
819.762	27401
819.903	27233
820.043	27131
820.184	27085
820.324	26899
820.465	27237
820.605	27028
820.746	26994
820.886	27001
821.026	27142
821.167	27028
821.307	27028
821.447	27066
821.588	26906
821.728	26796
821.868	26617
822.008	26495
822.149	26415
822.289	26393
822.429	26168
822.569	25997
822.709	26202
822.849	25978
822.99	25970
823.13	25909
823.27	25879
823.41	25765
823.55	25666
823.69	25776
823.83	25731
823.97	25769
824.11	25704
824.25	25582
824.389	25540
824.529	25594
824.669	25582
824.809	25704
824.949	25594
825.089	25769
825.228	25582
825.368	25472
825.508	25396
825.648	25521
825.787	25521
825.927	25605
826.067	25571
826.206	25403
826.346	25578
826.485	25403
826.625	25453
826.765	25567
826.904	25491
827.044	25316
827.183	25324
827.323	25244
827.462	25266
827.601	25187
827.741	25327
827.88	25312
828.02	24989
828.159	25042
828.298	25217
828.437	25236
828.577	25023
828.716	25137
828.855	25122
828.994	24951
829.134	24886
829.273	24798
829.412	24977
829.551	24837
829.69	24935
829.829	24856
829.968	24989
830.107	24897
830.246	24768
830.385	24844
830.524	24894
830.663	24871
830.802	24612
830.941	24544
831.08	24384
831.219	24620
831.357	24525
831.496	24715
831.635	24612
831.774	24384
831.913	24346
832.051	24365
832.19	24327
832.329	24338
832.467	24311
832.606	24148
832.744	24232
832.883	24174
833.022	23977
833.16	24186
833.299	24197
833.437	24315
833.576	24213
833.714	24232
833.852	24308
833.991	24311
834.129	24334
834.267	24300
834.406	24304
834.544	24277
834.682	24315
834.821	24133
834.959	24403
835.097	24273
835.235	24201
835.373	24319
835.511	24216
835.65	24064
835.788	24030
835.926	24064
836.064	23794
836.202	23950
836.34	24049
836.478	24201
836.615	24049
836.753	24194
836.891	24178
837.029	24087
837.167	24133
837.305	24049
837.443	24098
837.58	24022
837.718	23999
837.856	23939
837.993	23878
838.131	23847
838.269	23893
838.406	23946
838.544	23882
838.681	23520
838.819	23562
838.956	23410
839.094	23463
839.231	23512
839.369	23752
839.506	23851
839.643	23608
839.781	23395
839.918	23372
840.055	23440
840.193	23402
840.33	23406
840.467	23436
840.604	23337
840.742	23592
840.879	23231
841.016	23235
841.153	23250
841.29	23448
841.427	23292
841.564	23486
841.701	23326
841.838	23345
841.975	23246
842.112	23265
842.249	23227
842.385	23086
842.522	23273
842.659	23064
842.796	22965
842.933	23121
843.069	23041
843.206	23056
843.343	23212
843.479	23079
843.616	23010
843.752	22809
843.889	22854
844.025	23037
844.162	22790
844.298	22957
844.435	22793
844.571	22927
844.708	22949
844.844	23052
844.98	22999
845.117	22968
845.253	22885
845.389	22771
845.525	22755
845.661	22656
845.798	22634
845.934	22592
846.07	22573
846.206	22767
846.342	22885
846.478	22493
846.614	22440
846.75	22299
846.886	22341
847.022	22322
847.158	22329
847.294	22303
847.429	22421
847.565	22382
847.701	22577
847.837	22078
847.972	22059
848.108	22105
848.244	22158
848.379	22006
848.515	22036
848.65	21956
848.786	21972
848.921	22067
849.057	21994
849.192	22040
849.328	21941
849.463	21846
849.598	22010
849.734	21823
849.869	21819
850.004	21762
850.14	21679
850.275	21804
850.41	21595
850.545	21705
850.68	21629
850.815	21766
850.95	21599
851.085	21778
851.22	21850
851.355	21751
851.49	21766
851.625	21690
851.76	21656
851.895	21599
852.03	21667
852.165	21637
852.299	21762
852.434	21793
852.569	21751
852.703	21545
852.838	21770
852.973	21808
853.107	21876
853.242	21663
853.376	21515
853.511	21485
853.645	21504
853.78	21610
853.914	21477
854.048	21485
854.183	21500
854.317	21564
854.451	21720
854.585	21538
854.72	21504
854.854	21538
854.988	21405
855.122	21348
855.256	21313
855.39	21564
855.524	21557
855.658	21504
855.792	21564
855.926	21458
856.06	21530
856.194	21591
856.327	21553
856.461	21469
856.595	21500
856.729	21534
856.862	21561
856.996	21492
857.13	21637
857.263	21652
857.397	21572
857.53	21523
857.664	21481
857.797	21580
857.931	21572
858.064	21595
858.197	21606
858.331	21462
858.464	21420
858.597	21370
858.731	21568
858.864	21450
858.997	21534
859.13	21568
859.263	21523
859.396	21682
859.529	21481
859.662	21405
859.795	21454
859.928	21511
860.061	21660
860.194	21690
860.327	21652
860.46	21591
860.592	21675
860.725	21797
860.858	21648
860.99	21515
861.123	21515
861.256	21424
861.388	21458
861.521	21979
861.653	21481
861.786	21245
861.918	21317
862.05	21389
862.183	21458
862.315	21374
862.447	21469
862.58	21473
862.712	21173
862.844	21218
862.976	21298
863.108	21363
863.24	21667
863.372	21123
863.504	21226
863.636	21211
863.768	21173
863.9	21195
864.032	21165
864.164	21138
864.296	21272
864.428	21203
864.559	21321
864.691	21264
864.823	21332
864.954	21249
865.086	21249
865.217	21218
865.349	21070
865.48	21108
865.612	21116
865.743	21176
865.875	21268
866.006	21119
866.137	21100
866.269	21161
866.4	21001
866.531	21108
866.662	20963
866.793	20994
866.924	21146
867.055	21013
867.186	21062
867.317	21005
867.448	20975
867.579	21062
867.71	20998
867.841	21005
867.972	21074
868.103	21131
868.233	21070
868.364	20982
868.495	21138
868.625	21180
868.756	21268
868.886	21245
869.017	21374
869.147	21397
869.278	21466
869.408	21302
869.539	21298
869.669	21374
869.799	21332
869.929	21428
870.06	21466
870.19	21701
870.32	21667
870.45	21633
870.58	21831
870.71	21774
870.84	21800
870.97	21690
871.1	21675
871.23	21987
871.36	21888
871.489	21732
871.619	21956
871.749	21922
871.879	22078
872.008	21895
872.138	21945
872.267	22002
872.397	21720
872.526	21686
872.656	21770
872.785	21705
872.915	21915
873.044	22105
873.173	21854
873.303	21873
873.432	21987
873.561	22025
873.69	21915
873.819	21918
873.948	21964
874.077	21888
874.206	21880
874.335	21846
874.464	21941
874.593	22234
874.722	22166
874.851	22093
874.979	22169
875.108	22246
875.237	22067
875.365	21994
875.494	21972
875.623	22246
875.751	22109
875.88	22211
876.008	22223
876.136	22238
876.265	22508
876.393	22573
876.521	22615
876.65	22512
876.778	22470
876.906	22386
877.034	22466
877.162	22466
877.29	22341
877.418	22413
877.546	22424
877.674	22394
877.802	22535
877.93	22405
878.058	22409
878.185	22341
878.313	22303
878.441	22455
878.568	22207
878.696	22402
878.824	22436
878.951	22569
879.079	22626
879.206	22755
879.333	22565
879.461	22550
879.588	22550
879.715	22691
879.842	22755
879.97	22538
880.097	22344
880.224	22344
880.351	22284
880.478	22268
880.605	22230
880.732	22234
880.859	22557
880.986	22337
881.112	22333
881.239	22188
881.366	21991
881.493	22101
881.619	21926
881.746	21869
881.872	21903
881.999	21873
882.125	21888
882.252	21888
882.378	21797
882.505	21934
882.631	21774
882.757	21523
882.883	21785
883.01	21564
883.136	21591
883.262	21325
883.388	21321
883.514	21591
883.64	21705
883.766	21408
883.892	21355
884.018	21272
884.143	21458
884.269	21576
884.395	21233
884.52	21180
884.646	21233
884.772	21093
884.897	21157
885.023	21275
885.148	21313
885.274	21287
885.399	21275
885.524	21176
885.65	21150
885.775	21184
885.9	21169
886.025	21233
886.15	21188
886.275	21142
886.4	21070
886.525	21184
886.65	21093
886.775	21176
886.9	21291
887.025	21378
887.149	21032
887.274	21013
887.399	20876
887.523	20986
887.648	20944
887.773	20902
887.897	21077
888.021	21085
888.146	20986
888.27	21081
888.395	20998
888.519	21058
888.643	21047
888.767	21074
888.891	20800
889.015	20708
889.139	20754
889.263	20788
889.387	20914
889.511	20937
889.635	20883
889.759	20788
889.883	20750
890.006	20807
890.13	20880
890.254	20746
890.377	20648
890.501	20552
890.624	20541
890.748	20511
890.871	20404
890.995	20233
891.118	20347
891.241	20301
891.364	20237
891.488	20484
891.611	20301
891.734	20389
891.857	20336
891.98	20408
892.103	20465
892.226	20301
892.349	20320
892.471	20145
892.594	20317
892.717	20355
892.839	20214
892.962	20248
893.085	20221
893.207	20142
893.33	20164
893.452	20043
893.575	20275
893.697	20176
893.819	20366
893.941	20446
894.064	20366
894.186	20172
894.308	20088
894.43	20328
894.552	20210
894.674	20244
894.796	20142
894.918	20286
895.04	20145
895.161	20336
895.283	20240
895.405	20256
895.526	20195
895.648	20328
895.769	20210
895.891	20267
896.012	20317
896.134	20210
896.255	20199
896.376	20142
896.498	20332
896.619	20199
896.74	20195
896.861	20218
896.982	20518
897.103	20682
897.224	20476
897.345	20476
897.466	20476
897.587	20492
897.708	20488
897.828	20526
897.949	20374
898.07	20290
898.19	20267
898.311	20549
898.431	20415
898.552	20431
898.672	20495
898.792	20408
898.913	20396
899.033	20362
899.153	20286
899.273	20172
899.393	20168
899.513	20252
899.633	20199
899.753	20301
899.873	20073
899.993	20126
900.113	20073
900.232	20183
900.352	20081
900.472	20081
900.591	19879
900.711	20024
900.83	19803
900.95	20058
901.069	20054
901.189	19814
901.308	19537
901.427	19487
901.546	19453
901.665	19457
901.784	19533
901.904	19388
902.023	19354
902.141	19137
902.26	19187
902.379	19099
902.498	19088
902.617	19031
902.735	19023
902.854	18932
902.973	18939
903.091	18700
903.21	18726
903.328	18681
903.446	18585
903.565	18513
903.683	18631
903.801	18426
903.919	18616
904.038	18426
904.156	18300
904.274	18376
904.392	18155
904.51	18174
904.627	18232
904.745	18327
904.863	18319
904.981	18064
905.098	18007
905.216	17942
905.334	17992
905.451	17996
905.569	17935
905.686	17927
905.803	18045
905.921	17687
906.038	17805
906.155	17760
906.272	17764
906.389	17668
906.506	17417
906.623	17471
906.74	17376
906.857	17395
906.974	17463
907.091	17558
907.208	17566
907.324	17505
907.441	17368
907.557	17254
907.674	17223
907.79	17147
907.907	17185
908.023	17246
908.139	17200
908.256	17250
908.372	17181
908.488	17102
908.604	16938
908.72	16949
908.836	16942
908.952	16908
909.068	16980
909.184	17075
909.3	16949
909.415	16938
909.531	16793
909.647	16656
909.762	16653
909.878	16717
909.993	16641
910.108	16679
910.224	16531
910.339	16641
910.454	16493
910.57	16569
910.685	16356
910.8	16615
910.915	16531
911.03	16440
911.145	16402
911.259	16268
911.374	16166
911.489	16131
911.604	16105
911.718	15968
911.833	16006
911.947	15975
912.062	15835
912.176	15857
912.291	15949
912.405	15945
912.519	16120
912.633	16131
912.748	15945
912.862	15956
912.976	15793
913.09	15739
913.204	15739
913.318	15797
913.431	15972
913.545	15899
913.659	15854
913.772	15762
913.886	15614
914	15603
914.113	15766
914.226	15732
914.34	15603
914.453	15458
914.566	15675
914.68	15462
914.793	15378
914.906	15176
915.019	15245
915.132	15264
915.245	15142
915.358	15180
915.47	15226
915.583	15154
915.696	15218
915.809	15306
915.921	15272
916.034	15256
916.146	15146
916.259	15055
916.371	15180
916.483	15066
916.595	15039
916.708	14937
916.82	15032
916.932	14952
917.044	14952
917.156	14937
917.268	14823
917.38	14880
917.491	14811
917.603	14773
917.715	14880
917.826	14956
917.938	14765
918.049	14606
918.161	14720
918.272	15024
918.384	14906
918.495	14819
918.606	14712
918.717	14606
918.828	14629
918.939	14663
919.05	14511
919.161	14598
919.272	14400
919.383	14396
919.494	14571
919.604	14739
919.715	14549
919.826	14602
919.936	14556
920.047	14575
920.157	14488
920.267	14724
920.378	14674
920.488	14533
920.598	14663
920.708	14933
920.818	14663
920.928	14701
921.038	14826
921.148	14830
921.258	14492
921.368	14427
921.477	14309
921.587	14305
921.697	14202
921.806	14290
921.916	14157
922.025	13951
922.134	13898
922.244	13883
922.353	13997
922.462	13795
922.571	13742
922.68	13620
922.789	13563
922.898	13658
923.007	13491
923.116	13601
923.224	13559
923.333	13563
923.442	13449
923.55	13365
923.659	13438
923.767	13464
923.876	13362
923.984	13381
924.092	13270
924.201	13221
924.309	13263
924.417	13426
924.525	13244
924.633	13266
924.741	14138
924.849	13076
924.956	13149
925.064	12939
925.172	12985
925.279	12981
925.387	13053
925.494	12905
925.602	13110
925.709	13027
925.816	12890
925.924	13023
926.031	13008
926.138	12867
926.245	13042
926.352	12951
926.459	12966
926.566	13004
926.673	12859
926.779	12776
926.886	12665
926.993	12585
927.099	12544
927.206	12547
927.312	12464
927.419	12502
927.525	12532
927.631	12525
927.737	12509
927.843	12445
927.95	12361
928.056	12448
928.162	12460
928.267	12342
928.373	13088
928.479	12498
928.585	12277
928.69	12334
928.796	12251
928.901	12270
929.007	12087
929.112	12190
929.218	12186
929.323	12117
929.428	12106
929.533	12194
929.638	12007
929.743	12019
929.848	12098
929.953	12076
930.058	11950
930.163	11794
930.267	11802
930.372	11870
930.477	11760
930.581	11992
930.685	11897
930.79	11688
930.894	11737
930.998	11657
931.103	11821
931.207	11421
931.311	11322
931.415	11261
931.519	11067
931.623	11022
