Data from test_V78500241_2444.txt Node
Date: Fri Mar 25 15:26:52 CST 2022
User: usil
Spectrometer: V785-0024
Trigger mode: 0
Integration Time (sec): 4.000000E-1
Scans to average: 1
Nonlinearity correction enabled: false
Boxcar width: 0
Storing dark spectrum: false
XAxis mode: Wavelengths
Number of Pixels in Spectrum: 1024
>>>>>Begin Spectral Data<<<<<
801.071	27058
801.214	27028
801.356	26762
801.499	26670
801.641	26492
801.783	26526
801.926	26663
802.068	26492
802.211	26492
802.353	26313
802.496	26328
802.638	26240
802.78	26161
802.923	26145
803.065	25974
803.208	26218
803.35	26119
803.492	26248
803.635	26362
803.777	26168
803.919	26332
804.061	26632
804.204	26488
804.346	26370
804.488	26294
804.63	26419
804.773	26115
804.915	26473
805.057	26492
805.199	26339
805.341	26492
805.483	26271
805.626	26488
805.768	26339
805.91	26492
806.052	26465
806.194	26400
806.336	26636
806.478	26545
806.62	26434
806.762	26556
806.904	26746
807.046	26960
807.188	26864
807.33	26788
807.472	26986
807.614	26769
807.756	26861
807.898	26621
808.04	26560
808.182	26743
808.324	26701
808.465	26762
808.607	26921
808.749	27039
808.891	27108
809.033	27142
809.174	27199
809.316	26963
809.458	27062
809.6	27020
809.741	27123
809.883	27089
810.025	27382
810.166	27370
810.308	27325
810.45	27291
810.591	27230
810.733	27154
810.875	26819
811.016	26842
811.158	26891
811.299	27017
811.441	27146
811.582	27131
811.724	27047
811.865	27013
812.007	26921
812.148	27104
812.29	27032
812.431	27157
812.573	27313
812.714	27473
812.855	27549
812.997	27561
813.138	27816
813.279	27755
813.421	27492
813.562	27481
813.703	27291
813.845	27100
813.986	26876
814.127	26769
814.268	26670
814.41	26651
814.551	26564
814.692	26724
814.833	26629
814.974	26640
815.115	26678
815.256	26594
815.397	26431
815.539	26541
815.68	26419
815.821	26453
815.962	26469
816.103	26453
816.244	26328
816.385	26218
816.526	26248
816.666	26077
816.807	25841
816.948	26027
817.089	26027
817.23	25974
817.371	25959
817.512	25868
817.653	25917
817.793	25807
817.934	25791
818.075	25887
818.216	25841
818.356	25864
818.497	25921
818.638	25594
818.778	25750
818.919	25765
819.06	25674
819.2	25658
819.341	25906
819.481	25822
819.622	25993
819.762	26259
819.903	26134
820.043	26138
820.184	26050
820.324	26012
820.465	26103
820.605	25902
820.746	26043
820.886	25871
821.026	25989
821.167	25928
821.307	25982
821.447	25890
821.588	25772
821.728	25685
821.868	25601
822.008	25491
822.149	25434
822.289	25441
822.429	25194
822.569	24951
822.709	25099
822.849	24992
822.99	24947
823.13	24882
823.27	24829
823.41	24817
823.55	24677
823.69	24779
823.83	24791
823.97	24593
824.11	24456
824.25	24544
824.389	24502
824.529	24616
824.669	24445
824.809	24681
824.949	24639
825.089	24700
825.228	24608
825.368	24353
825.508	24422
825.648	24525
825.787	24616
825.927	24433
826.067	24414
826.206	24441
826.346	24540
826.485	24486
826.625	24350
826.765	24502
826.904	24570
827.044	24205
827.183	24140
827.323	24148
827.462	24159
827.601	24186
827.741	24174
827.88	24129
828.02	23999
828.159	24098
828.298	24117
828.437	24300
828.577	23999
828.716	24273
828.855	24053
828.994	23851
829.134	23908
829.273	23893
829.412	23687
829.551	23908
829.69	23980
829.829	23843
829.968	23923
830.107	23958
830.246	23893
830.385	23786
830.524	23729
830.663	23585
830.802	23520
830.941	23406
831.08	23436
831.219	23452
831.357	23657
831.496	23684
831.635	23493
831.774	23330
831.913	23364
832.051	23368
832.19	23227
832.329	23364
832.467	23147
832.606	23117
832.744	23193
832.883	23044
833.022	23010
833.16	23143
833.299	23113
833.437	23200
833.576	23185
833.714	23200
833.852	23159
833.991	23265
834.129	23341
834.267	23140
834.406	23273
834.544	23303
834.682	23318
834.821	23341
834.959	23341
835.097	23239
835.235	23242
835.373	23159
835.511	23162
835.65	23025
835.788	23018
835.926	22889
836.064	22843
836.202	22820
836.34	23067
836.478	23250
836.615	23048
836.753	23025
836.891	23162
837.029	23124
837.167	23025
837.305	23022
837.443	22949
837.58	22938
837.718	22953
837.856	23048
837.993	22835
838.131	22828
838.269	22854
838.406	22873
838.544	22805
838.681	22557
838.819	22542
838.956	22375
839.094	22402
839.231	22504
839.369	22592
839.506	22824
839.643	22656
839.781	22379
839.918	22310
840.055	22459
840.193	22341
840.33	22257
840.467	22322
840.604	22295
840.742	22500
840.879	22226
841.016	22238
841.153	22215
841.29	22424
841.427	22253
841.564	22405
841.701	22234
841.838	22238
841.975	22257
842.112	22253
842.249	22234
842.385	22116
842.522	22360
842.659	22158
842.796	22101
842.933	22223
843.069	21934
843.206	22025
843.343	22158
843.479	22090
843.616	22169
843.752	22017
843.889	21968
844.025	22086
844.162	21903
844.298	21964
844.435	21785
844.571	21857
844.708	21743
844.844	22109
844.98	21941
845.117	21972
845.253	21789
845.389	21766
845.525	21720
845.661	21724
845.798	21633
845.934	21644
846.07	21519
846.206	21690
846.342	21648
846.478	21591
846.614	21355
846.75	21287
846.886	21363
847.022	21416
847.158	21405
847.294	21230
847.429	21492
847.565	21332
847.701	21622
847.837	21081
847.972	21104
848.108	21165
848.244	21093
848.379	21024
848.515	20872
848.65	20872
848.786	20937
848.921	20960
849.057	21070
849.192	20929
849.328	20891
849.463	20986
849.598	20834
849.734	20807
849.869	20785
850.004	20739
850.14	20701
850.275	20640
850.41	20602
850.545	20609
850.68	20663
850.815	20769
850.95	20625
851.085	20910
851.22	20804
851.355	20667
851.49	20621
851.625	20727
851.76	20678
851.895	20655
852.03	20530
852.165	20617
852.299	20609
852.434	20735
852.569	20587
852.703	20659
852.838	20731
852.973	20826
853.107	20758
853.242	20659
853.376	20606
853.511	20377
853.645	20629
853.78	20678
853.914	20625
854.048	20632
854.183	20434
854.317	20632
854.451	20708
854.585	20560
854.72	20560
854.854	20541
854.988	20621
855.122	20545
855.256	20423
855.39	20518
855.524	20697
855.658	20533
855.792	20629
855.926	20663
856.06	20598
856.194	20579
856.327	20366
856.461	20556
856.595	20465
856.729	20545
856.862	20659
856.996	20617
857.13	20514
857.263	20533
857.397	20678
857.53	20556
857.664	20625
857.797	20598
857.931	20743
858.064	20434
858.197	20659
858.331	20575
858.464	20396
858.597	20423
858.731	20499
858.864	20522
858.997	20533
859.13	20526
859.263	20556
859.396	20686
859.529	20423
859.662	20442
859.795	20328
859.928	20503
860.061	20750
860.194	20663
860.327	20579
860.46	20552
860.592	20659
860.725	20644
860.858	20724
860.99	20438
861.123	20339
861.256	20503
861.388	20457
861.521	21161
861.653	20347
861.786	20263
861.918	20290
862.05	20393
862.183	20419
862.315	20370
862.447	20507
862.58	20408
862.712	20221
862.844	20301
862.976	20328
863.108	20370
863.24	20655
863.372	20214
863.504	20199
863.636	20267
863.768	20259
863.9	20309
864.032	20138
864.164	20221
864.296	20328
864.428	20374
864.559	20381
864.691	20309
864.823	20229
864.954	20237
865.086	20119
865.217	20225
865.349	20065
865.48	20248
865.612	20134
865.743	20187
865.875	20252
866.006	20024
866.137	20161
866.269	20081
866.4	20122
866.531	20126
866.662	19993
866.793	20153
866.924	20088
867.055	20142
867.186	20050
867.317	20103
867.448	19826
867.579	20016
867.71	19989
867.841	20005
867.972	20111
868.103	20008
868.233	20092
868.364	20126
868.495	20229
868.625	20347
868.756	20499
868.886	20309
869.017	20320
869.147	20457
869.278	20450
869.408	20332
869.539	20320
869.669	20495
869.799	20423
869.929	20484
870.06	20503
870.19	20648
870.32	20629
870.45	20701
870.58	20697
870.71	20853
870.84	20788
870.97	20708
871.1	20788
871.23	20861
871.36	20963
871.489	20727
871.619	20876
871.749	21058
871.879	20952
872.008	21070
872.138	20929
872.267	20921
872.397	20792
872.526	20830
872.656	20720
872.785	20807
872.915	20804
873.044	20975
873.173	20925
873.303	20971
873.432	21138
873.561	21020
873.69	20960
873.819	20864
873.948	21032
874.077	20975
874.206	20902
874.335	20842
874.464	21005
874.593	21100
874.722	20986
874.851	21264
874.979	21123
875.108	21268
875.237	21207
875.365	21036
875.494	21077
875.623	21272
875.751	21138
875.88	21150
876.008	21306
876.136	21287
876.265	21629
876.393	21728
876.521	21717
876.65	21629
876.778	21679
876.906	21637
877.034	21530
877.162	21595
877.29	21519
877.418	21561
877.546	21568
877.674	21549
877.802	21568
877.93	21488
878.058	21477
878.185	21462
878.313	21496
878.441	21439
878.568	21363
878.696	21386
878.824	21599
878.951	21682
879.079	21717
879.206	21717
879.333	21633
879.461	21496
879.588	21526
879.715	21736
879.842	21713
879.97	21603
880.097	21511
880.224	21393
880.351	21439
880.478	21431
880.605	21291
880.732	21367
880.859	21545
880.986	21310
881.112	21321
881.239	21332
881.366	21051
881.493	21081
881.619	21047
881.746	21100
881.872	20807
881.999	21043
882.125	20902
882.252	20914
882.378	20864
882.505	21077
882.631	20864
882.757	20838
882.883	20716
883.01	20606
883.136	20556
883.262	20587
883.388	20495
883.514	20625
883.64	20762
883.766	20670
883.892	20469
884.018	20613
884.143	20640
884.269	20781
884.395	20484
884.52	20294
884.646	20400
884.772	20256
884.897	20225
885.023	20332
885.148	20366
885.274	20431
885.399	20438
885.524	20347
885.65	20385
885.775	20309
885.9	20214
886.025	20446
886.15	20400
886.275	20259
886.4	20191
886.525	20347
886.65	20172
886.775	20294
886.9	20431
887.025	20514
887.149	20298
887.274	20111
887.399	20138
887.523	20195
887.648	20065
887.773	20073
887.897	20145
888.021	20153
888.146	20069
888.27	20191
888.395	20069
888.519	20069
888.643	20100
888.767	20069
888.891	19967
889.015	19947
889.139	19928
889.263	19898
889.387	20001
889.511	20183
889.635	19894
889.759	19856
889.883	19791
890.006	19902
890.13	19936
890.254	19845
890.377	19887
890.501	19567
890.624	19544
890.748	19689
890.871	19556
890.995	19499
891.118	19480
891.241	19559
891.364	19514
891.488	19624
891.611	19506
891.734	19495
891.857	19521
891.98	19491
892.103	19514
892.226	19491
892.349	19434
892.471	19251
892.594	19434
892.717	19445
892.839	19499
892.962	19369
893.085	19487
893.207	19377
893.33	19308
893.452	19365
893.575	19441
893.697	19392
893.819	19514
893.941	19639
894.064	19445
894.186	19422
894.308	19335
894.43	19449
894.552	19582
894.674	19502
894.796	19301
894.918	19480
895.04	19244
895.161	19533
895.283	19487
895.405	19244
895.526	19255
895.648	19362
895.769	19388
895.891	19343
896.012	19499
896.134	19518
896.255	19358
896.376	19297
896.498	19339
896.619	19472
896.74	19373
896.861	19537
896.982	19708
897.103	19852
897.224	19651
897.345	19632
897.466	19552
897.587	19658
897.708	19871
897.828	19780
897.949	19609
898.07	19381
898.19	19552
898.311	19833
898.431	19460
898.552	19502
898.672	19738
898.792	19689
898.913	19696
899.033	19521
899.153	19480
899.273	19278
899.393	19381
899.513	19297
899.633	19312
899.753	19396
899.873	19419
899.993	19464
900.113	19282
900.232	19396
900.352	19240
900.472	19072
900.591	19164
900.711	19118
900.83	19103
900.95	19255
901.069	19247
901.189	19000
901.308	18932
901.427	18787
901.546	18878
901.665	18829
901.784	18760
901.904	18612
902.023	18589
902.141	18429
902.26	18315
902.379	18391
902.498	18315
902.617	18224
902.735	18338
902.854	18273
902.973	18197
903.091	18003
903.21	17988
903.328	17901
903.446	17961
903.565	17809
903.683	17965
903.801	17646
903.919	17672
904.038	17726
904.156	17627
904.274	17535
904.392	17493
904.51	17547
904.627	17554
904.745	17566
904.863	17615
904.981	17452
905.098	17258
905.216	17174
905.334	17330
905.451	17307
905.569	17147
905.686	17250
905.803	17193
905.921	16999
906.038	17121
906.155	17052
906.272	16984
906.389	16968
906.506	16877
906.623	16752
906.74	16736
906.857	16637
906.974	16653
907.091	16866
907.208	16850
907.324	16820
907.441	16668
907.557	16592
907.674	16428
907.79	16451
907.907	16440
908.023	16516
908.139	16386
908.256	16451
908.372	16341
908.488	16413
908.604	16177
908.72	16150
908.836	16185
908.952	16090
909.068	16211
909.184	16211
909.3	16219
909.415	16337
909.531	16173
909.647	15979
909.762	15960
909.878	15804
909.993	15850
910.108	15975
910.224	15888
910.339	15884
910.454	15808
910.57	15747
910.685	15770
910.8	15926
910.915	15869
911.03	15728
911.145	15603
911.259	15557
911.374	15488
911.489	15507
911.604	15443
911.718	15302
911.833	15348
911.947	15249
912.062	14994
912.176	15169
912.291	15241
912.405	15275
912.519	15412
912.633	15435
912.748	15348
912.862	15294
912.976	15100
913.09	15013
913.204	15066
913.318	15142
913.431	15150
913.545	15207
913.659	15135
913.772	14925
913.886	14948
914	14956
914.113	14918
914.226	15047
914.34	14960
914.453	14842
914.566	15028
914.68	14895
914.793	14849
914.906	14686
915.019	14648
915.132	14583
915.245	14606
915.358	14514
915.47	14621
915.583	14499
915.696	14522
915.809	14602
915.921	14632
916.034	14454
916.146	14469
916.259	14408
916.371	14556
916.483	14461
916.595	14381
916.708	14374
916.82	14370
916.932	14343
917.044	14358
917.156	14320
917.268	14164
917.38	14267
917.491	14195
917.603	14233
917.715	14240
917.826	14275
917.938	14153
918.049	14123
918.161	14244
918.272	14180
918.384	14324
918.495	14202
918.606	13978
918.717	13963
918.828	14077
918.939	14077
919.05	13879
919.161	14050
919.272	13765
919.383	13845
919.494	14065
919.604	14115
919.715	14077
919.826	13986
919.936	13970
920.047	14065
920.157	14024
920.267	14149
920.378	13963
920.488	13807
920.598	14107
920.708	14286
920.818	14183
920.928	14176
921.038	14218
921.148	14218
921.258	13917
921.368	13818
921.477	13761
921.587	13700
921.697	13586
921.806	13719
921.916	13559
922.025	13415
922.134	13403
922.244	13263
922.353	13441
922.462	13175
922.571	13164
922.68	13084
922.789	13027
922.898	13050
923.007	13038
923.116	13034
923.224	12989
923.333	13050
923.442	12856
923.55	12817
923.659	12867
923.767	12909
923.876	12833
923.984	12810
924.092	12719
924.201	12856
924.309	12783
924.417	12837
924.525	12677
924.633	12745
924.741	13655
924.849	12479
924.956	12631
925.064	12574
925.172	12407
925.279	12384
925.387	12429
925.494	12502
925.602	12536
925.709	12445
925.816	12372
925.924	12410
926.031	12471
926.138	12429
926.245	12418
926.352	12254
926.459	12384
926.566	12410
926.673	12384
926.779	12228
926.886	12205
926.993	12129
927.099	12117
927.206	12057
927.312	11904
927.419	12072
927.525	12030
927.631	12095
927.737	11942
927.843	11870
927.95	11809
928.056	11866
928.162	11927
928.267	11851
928.373	12532
928.479	11961
928.585	11790
928.69	11904
928.796	11904
928.901	11729
929.007	11688
929.112	11771
929.218	11695
929.323	11657
929.428	11630
929.533	11699
929.638	11505
929.743	11600
929.848	11600
929.953	11551
930.058	11516
930.163	11231
930.267	11383
930.372	11452
930.477	11231
930.581	11482
930.685	11284
930.79	11212
930.894	11227
930.998	11170
931.103	11307
931.207	10949
931.311	10900
931.415	10831
931.519	10535
931.623	10622
