Data from test_V78500241_3327.txt Node
Date: Fri Mar 25 15:33:01 CST 2022
User: usil
Spectrometer: V785-0024
Trigger mode: 0
Integration Time (sec): 4.000000E-1
Scans to average: 1
Nonlinearity correction enabled: false
Boxcar width: 0
Storing dark spectrum: false
XAxis mode: Wavelengths
Number of Pixels in Spectrum: 1024
>>>>>Begin Spectral Data<<<<<
801.071	27408
801.214	27389
801.356	27039
801.499	26925
801.641	26918
801.783	26872
801.926	26823
802.068	26819
802.211	26842
802.353	26708
802.496	26682
802.638	26446
802.78	26385
802.923	26518
803.065	26332
803.208	26507
803.35	26476
803.492	26663
803.635	26697
803.777	26526
803.919	26674
804.061	27009
804.204	26682
804.346	26632
804.488	26499
804.63	26579
804.773	26507
804.915	26640
805.057	26796
805.199	26495
805.341	26754
805.483	26876
805.626	26883
805.768	26621
805.91	26823
806.052	26834
806.194	26743
806.336	26902
806.478	26769
806.62	26739
806.762	26857
806.904	26948
807.046	27340
807.188	27214
807.33	27119
807.472	27188
807.614	27199
807.756	27123
807.898	27062
808.04	26990
808.182	26990
808.324	26948
808.465	27047
808.607	27119
808.749	27195
808.891	27427
809.033	27511
809.174	27462
809.316	27302
809.458	27241
809.6	27249
809.741	27424
809.883	27488
810.025	27557
810.166	27583
810.308	27625
810.45	27420
810.591	27515
810.733	27256
810.875	27306
811.016	27104
811.158	27321
811.299	27382
811.441	27553
811.582	27431
811.724	27450
811.865	27389
812.007	27378
812.148	27302
812.29	27268
812.431	27519
812.573	27656
812.714	27861
812.855	27709
812.997	27869
813.138	28029
813.279	28029
813.421	27762
813.562	27846
813.703	27736
813.845	27534
813.986	27203
814.127	27211
814.268	26990
814.41	27127
814.551	26937
814.692	27047
814.833	26906
814.974	26895
815.115	27032
815.256	26792
815.397	26929
815.539	26788
815.68	26800
815.821	26636
815.962	26765
816.103	26807
816.244	26705
816.385	26434
816.526	26396
816.666	26374
816.807	26214
816.948	26404
817.089	26313
817.23	26305
817.371	26313
817.512	26202
817.653	26259
817.793	26218
817.934	26221
818.075	26282
818.216	26111
818.356	26225
818.497	26073
818.638	26077
818.778	25879
818.919	25986
819.06	26050
819.2	26134
819.341	26256
819.481	26073
819.622	26400
819.762	26640
819.903	26431
820.043	26507
820.184	26488
820.324	26339
820.465	26370
820.605	26233
820.746	26248
820.886	26229
821.026	26298
821.167	26233
821.307	26298
821.447	26149
821.588	26164
821.728	26077
821.868	25833
822.008	25681
822.149	25658
822.289	25738
822.429	25460
822.569	25438
822.709	25415
822.849	25282
822.99	25141
823.13	25187
823.27	25110
823.41	25145
823.55	24867
823.69	24981
823.83	24985
823.97	25076
824.11	24981
824.25	24833
824.389	24878
824.529	25019
824.669	24886
824.809	24939
824.949	24985
825.089	25137
825.228	24791
825.368	24696
825.508	24787
825.648	24688
825.787	24829
825.927	24829
826.067	24776
826.206	24844
826.346	24844
826.485	24798
826.625	24779
826.765	24871
826.904	24772
827.044	24578
827.183	24498
827.323	24490
827.462	24658
827.601	24513
827.741	24403
827.88	24475
828.02	24338
828.159	24547
828.298	24452
828.437	24563
828.577	24559
828.716	24486
828.855	24422
828.994	24281
829.134	24213
829.273	24292
829.412	24095
829.551	24152
829.69	24174
829.829	24232
829.968	24213
830.107	24251
830.246	24277
830.385	24095
830.524	23973
830.663	24007
830.802	23840
830.941	23779
831.08	23840
831.219	23916
831.357	23847
831.496	23893
831.635	23752
831.774	23653
831.913	23570
832.051	23589
832.19	23543
832.329	23634
832.467	23463
832.606	23471
832.744	23448
832.883	23547
833.022	23406
833.16	23459
833.299	23554
833.437	23467
833.576	23490
833.714	23459
833.852	23478
833.991	23581
834.129	23680
834.267	23558
834.406	23611
834.544	23505
834.682	23482
834.821	23543
834.959	23714
835.097	23577
835.235	23516
835.373	23604
835.511	23528
835.65	23425
835.788	23330
835.926	23353
836.064	23083
836.202	23303
836.34	23414
836.478	23623
836.615	23429
836.753	23364
836.891	23505
837.029	23436
837.167	23265
837.305	23417
837.443	23296
837.58	23307
837.718	23334
837.856	23261
837.993	23197
838.131	23105
838.269	23117
838.406	23261
838.544	23151
838.681	22885
838.819	22816
838.956	22771
839.094	22740
839.231	22778
839.369	22942
839.506	23086
839.643	22991
839.781	22698
839.918	22744
840.055	22733
840.193	22664
840.33	22618
840.467	22618
840.604	22664
840.742	22908
840.879	22569
841.016	22615
841.153	22535
841.29	22748
841.427	22523
841.564	22828
841.701	22725
841.838	22622
841.975	22687
842.112	22618
842.249	22580
842.385	22382
842.522	22592
842.659	22675
842.796	22348
842.933	22497
843.069	22459
843.206	22390
843.343	22417
843.479	22527
843.616	22409
843.752	22158
843.889	22382
844.025	22367
844.162	22200
844.298	22249
844.435	22124
844.571	22109
844.708	22367
844.844	22367
844.98	22337
845.117	22226
845.253	22192
845.389	21994
845.525	22211
845.661	22067
845.798	21975
845.934	21918
846.07	21915
846.206	21991
846.342	22067
846.478	21972
846.614	21869
846.75	21682
846.886	21739
847.022	21793
847.158	21591
847.294	21671
847.429	21690
847.565	21641
847.701	21956
847.837	21477
847.972	21241
848.108	21462
848.244	21466
848.379	21359
848.515	21195
848.65	21188
848.786	21374
848.921	21283
849.057	21412
849.192	21389
849.328	21275
849.463	21230
849.598	21264
849.734	21207
849.869	21138
850.004	21047
850.14	21146
850.275	21093
850.41	20876
850.545	20971
850.68	20998
850.815	21043
850.95	20971
851.085	21188
851.22	21230
851.355	21039
851.49	21077
851.625	20941
851.76	20994
851.895	20872
852.03	21074
852.165	21017
852.299	21055
852.434	21085
852.569	21112
852.703	20849
852.838	21043
852.973	21173
853.107	21176
853.242	21036
853.376	20807
853.511	20788
853.645	20891
853.78	20823
853.914	20834
854.048	20895
854.183	20811
854.317	20807
854.451	20967
854.585	20773
854.72	20857
854.854	20952
854.988	20842
855.122	20807
855.256	20708
855.39	20868
855.524	20838
855.658	20864
855.792	20815
855.926	20948
856.06	20750
856.194	20921
856.327	20815
856.461	20663
856.595	20792
856.729	20857
856.862	20872
856.996	20887
857.13	20960
857.263	20902
857.397	20952
857.53	20857
857.664	20743
857.797	20960
857.931	20952
858.064	20891
858.197	20895
858.331	20826
858.464	20838
858.597	20773
858.731	20762
858.864	20648
858.997	20762
859.13	20830
859.263	20819
859.396	21070
859.529	20826
859.662	20815
859.795	20792
859.928	20876
860.061	21047
860.194	21058
860.327	20853
860.46	20830
860.592	20948
860.725	21024
860.858	20948
860.99	20891
861.123	20754
861.256	20705
861.388	20868
861.521	21504
861.653	20689
861.786	20636
861.918	20815
862.05	20735
862.183	20773
862.315	20796
862.447	20815
862.58	20861
862.712	20552
862.844	20583
862.976	20636
863.108	20648
863.24	21017
863.372	20560
863.504	20549
863.636	20621
863.768	20625
863.9	20556
864.032	20396
864.164	20625
864.296	20655
864.428	20590
864.559	20575
864.691	20613
864.823	20457
864.954	20613
865.086	20511
865.217	20450
865.349	20389
865.48	20328
865.612	20503
865.743	20617
865.875	20461
866.006	20488
866.137	20434
866.269	20419
866.4	20415
866.531	20423
866.662	20484
866.793	20541
866.924	20473
867.055	20423
867.186	20469
867.317	20358
867.448	20237
867.579	20419
867.71	20347
867.841	20313
867.972	20469
868.103	20473
868.233	20362
868.364	20438
868.495	20450
868.625	20636
868.756	20811
868.886	20613
869.017	20587
869.147	20708
869.278	20720
869.408	20670
869.539	20689
869.669	20754
869.799	20689
869.929	20861
870.06	20773
870.19	21001
870.32	20990
870.45	20948
870.58	20941
870.71	21135
870.84	21119
870.97	21089
871.1	21070
871.23	21199
871.36	21313
871.489	21154
871.619	21249
871.749	21291
871.879	21226
872.008	21382
872.138	21199
872.267	21279
872.397	21154
872.526	21093
872.656	21074
872.785	21188
872.915	21218
873.044	21370
873.173	21275
873.303	21313
873.432	21283
873.561	21386
873.69	21287
873.819	21348
873.948	21359
874.077	21256
874.206	21157
874.335	21226
874.464	21374
874.593	21526
874.722	21500
874.851	21614
874.979	21481
875.108	21583
875.237	21481
875.365	21367
875.494	21435
875.623	21587
875.751	21363
875.88	21603
876.008	21648
876.136	21705
876.265	21842
876.393	22021
876.521	21926
876.65	21994
876.778	21937
876.906	21823
877.034	21797
877.162	21918
877.29	21899
877.418	21892
877.546	22036
877.674	21842
877.802	21831
877.93	21835
878.058	21827
878.185	21778
878.313	21797
878.441	21747
878.568	21591
878.696	21762
878.824	21907
878.951	21915
879.079	21975
879.206	22048
879.333	22143
879.461	21808
879.588	21949
879.715	22097
879.842	22097
879.97	21998
880.097	21717
880.224	21720
880.351	21797
880.478	21766
880.605	21652
880.732	21660
880.859	21926
880.986	21717
881.112	21717
881.239	21485
881.366	21435
881.493	21401
881.619	21294
881.746	21302
881.872	21230
881.999	21249
882.125	21279
882.252	21279
882.378	21211
882.505	21298
882.631	21138
882.757	21001
882.883	21119
883.01	20952
883.136	20933
883.262	20895
883.388	20773
883.514	20914
883.64	21058
883.766	20746
883.892	20724
884.018	20792
884.143	20956
884.269	21013
884.395	20682
884.52	20533
884.646	20674
884.772	20530
884.897	20541
885.023	20651
885.148	20739
885.274	20765
885.399	20785
885.524	20648
885.65	20625
885.775	20678
885.9	20560
886.025	20731
886.15	20575
886.275	20640
886.4	20469
886.525	20564
886.65	20457
886.775	20568
886.9	20705
887.025	20876
887.149	20522
887.274	20431
887.399	20412
887.523	20442
887.648	20339
887.773	20301
887.897	20465
888.021	20438
888.146	20309
888.27	20632
888.395	20446
888.519	20400
888.643	20343
888.767	20488
888.891	20282
889.015	20153
889.139	20259
889.263	20111
889.387	20339
889.511	20317
889.635	20320
889.759	20214
889.883	20252
890.006	20050
890.13	20214
890.254	20039
890.377	20115
890.501	20005
890.624	19879
890.748	19944
890.871	19944
890.995	19852
891.118	19662
891.241	19734
891.364	19826
891.488	19864
891.611	19746
891.734	19860
891.857	19814
891.98	19757
892.103	19780
892.226	19811
892.349	19677
892.471	19419
892.594	19734
892.717	19674
892.839	19715
892.962	19639
893.085	19689
893.207	19628
893.33	19559
893.452	19613
893.575	19788
893.697	19693
893.819	19883
893.941	19940
894.064	19894
894.186	19662
894.308	19651
894.43	19727
894.552	19845
894.674	19833
894.796	19578
894.918	19689
895.04	19639
895.161	19651
895.283	19753
895.405	19548
895.526	19632
895.648	19594
895.769	19594
895.891	19841
896.012	19734
896.134	19822
896.255	19799
896.376	19582
896.498	19696
896.619	19655
896.74	19746
896.861	19742
896.982	20012
897.103	20077
897.224	19986
897.345	19879
897.466	19932
897.587	19959
897.708	20020
897.828	19906
897.949	19757
898.07	19750
898.19	19814
898.311	20012
898.431	19841
898.552	19917
898.672	20103
898.792	20077
898.913	19913
899.033	19670
899.153	19727
899.273	19521
899.393	19693
899.513	19632
899.633	19708
899.753	19620
899.873	19601
899.993	19662
900.113	19674
900.232	19681
900.352	19635
900.472	19468
900.591	19453
900.711	19430
900.83	19464
900.95	19495
901.069	19518
901.189	19415
901.308	19225
901.427	18951
901.546	19084
901.665	19080
901.784	18993
901.904	18878
902.023	18738
902.141	18715
902.26	18570
902.379	18563
902.498	18589
902.617	18544
902.735	18578
902.854	18494
902.973	18490
903.091	18213
903.21	18224
903.328	18247
903.446	18083
903.565	18136
903.683	18038
903.801	17996
903.919	18034
904.038	17996
904.156	17908
904.274	17973
904.392	17794
904.51	17691
904.627	17821
904.745	17775
904.863	17866
904.981	17676
905.098	17433
905.216	17482
905.334	17497
905.451	17474
905.569	17429
905.686	17474
905.803	17417
905.921	17277
906.038	17539
906.155	17311
906.272	17094
906.389	17204
906.506	16911
906.623	17056
906.74	16984
906.857	16911
906.974	16904
907.091	17067
907.208	17185
907.324	17086
907.441	16896
907.557	16755
907.674	16744
907.79	16771
907.907	16759
908.023	16755
908.139	16702
908.256	16763
908.372	16618
908.488	16717
908.604	16451
908.72	16478
908.836	16375
908.952	16459
909.068	16417
909.184	16596
909.3	16470
909.415	16478
909.531	16523
909.647	16234
909.762	16192
909.878	16192
909.993	16204
910.108	16207
910.224	16055
910.339	16139
910.454	16082
910.57	15945
910.685	15892
910.8	16261
910.915	16162
911.03	16006
911.145	15785
911.259	15854
911.374	15705
911.489	15625
911.604	15656
911.718	15507
911.833	15561
911.947	15523
912.062	15378
912.176	15553
912.291	15523
912.405	15473
912.519	15743
912.633	15648
912.748	15542
912.862	15462
912.976	15287
913.09	15249
913.204	15272
913.318	15412
913.431	15481
913.545	15393
913.659	15431
913.772	15336
913.886	15085
914	15097
914.113	15283
914.226	15173
914.34	15199
914.453	15009
914.566	15165
914.68	15089
914.793	14941
914.906	14826
915.019	14682
915.132	14705
915.245	14781
915.358	14785
915.47	14739
915.583	14777
915.696	14876
915.809	14883
915.921	14967
916.034	14648
916.146	14625
916.259	14632
916.371	14781
916.483	14746
916.595	14663
916.708	14629
916.82	14556
916.932	14549
917.044	14552
917.156	14579
917.268	14408
917.38	14469
917.491	14408
917.603	14533
917.715	14507
917.826	14488
917.938	14419
918.049	14267
918.161	14454
918.272	14533
918.384	14545
918.495	14351
918.606	14282
918.717	14157
918.828	14298
918.939	14294
919.05	14199
919.161	14271
919.272	13997
919.383	14039
919.494	14195
919.604	14381
919.715	14088
919.826	14119
919.936	14130
920.047	14317
920.157	14278
920.267	14366
920.378	14248
920.488	14111
920.598	14358
920.708	14507
920.818	14298
920.928	14214
921.038	14415
921.148	14438
921.258	14103
921.368	14084
921.477	13860
921.587	14073
921.697	13852
921.806	13894
921.916	13761
922.025	13556
922.134	13575
922.244	13578
922.353	13491
922.462	13552
922.571	13316
922.68	13206
922.789	13209
922.898	13301
923.007	13209
923.116	13259
923.224	13156
923.333	13213
923.442	13110
923.55	13008
923.659	13084
923.767	13038
923.876	12981
923.984	13137
924.092	12905
924.201	12916
924.309	12977
924.417	12924
924.525	12867
924.633	12840
924.741	13814
924.849	12688
924.956	12753
925.064	12757
925.172	12528
925.279	12582
925.387	12608
925.494	12597
925.602	12806
925.709	12662
925.816	12456
925.924	12521
926.031	12612
926.138	12563
926.245	12684
926.352	12490
926.459	12589
926.566	12608
926.673	12544
926.779	12346
926.886	12429
926.993	12273
927.099	12254
927.206	12190
927.312	12140
927.419	12308
927.525	12171
927.631	12232
927.737	12133
927.843	12060
927.95	11999
928.056	12091
928.162	12186
928.267	12087
928.373	12623
928.479	12087
928.585	11767
928.69	11931
928.796	12095
928.901	11893
929.007	11828
929.112	11920
929.218	11764
929.323	11893
929.428	11802
929.533	11855
929.638	11657
929.743	11722
929.848	11771
929.953	11779
930.058	11573
930.163	11417
930.267	11509
930.372	11676
930.477	11501
930.581	11581
930.685	11554
930.79	11334
930.894	11433
930.998	11273
931.103	11501
931.207	11140
931.311	10946
931.415	10961
931.519	10767
931.623	10675
