Data from test_V78500241_971.txt Node
Date: Fri Mar 25 15:16:37 CST 2022
User: usil
Spectrometer: V785-0024
Trigger mode: 0
Integration Time (sec): 4.000000E-1
Scans to average: 1
Nonlinearity correction enabled: false
Boxcar width: 0
Storing dark spectrum: false
XAxis mode: Wavelengths
Number of Pixels in Spectrum: 1024
>>>>>Begin Spectral Data<<<<<
801.071	28150
801.214	28128
801.356	28002
801.499	27781
801.641	27747
801.783	27713
801.926	27762
802.068	27709
802.211	27622
802.353	27488
802.496	27515
802.638	27359
802.78	27492
802.923	27332
803.065	27382
803.208	27393
803.35	27382
803.492	27427
803.635	27568
803.777	27450
803.919	27633
804.061	27778
804.204	27553
804.346	27511
804.488	27549
804.63	27545
804.773	27439
804.915	27652
805.057	27663
805.199	27504
805.341	27663
805.483	27667
805.626	27633
805.768	27682
805.91	27568
806.052	27724
806.194	27671
806.336	27873
806.478	27857
806.62	27827
806.762	27778
806.904	27953
807.046	28272
807.188	28070
807.33	28135
807.472	28200
807.614	28166
807.756	28150
807.898	27994
808.04	28013
808.182	27987
808.324	27949
808.465	28006
808.607	28329
808.749	28306
808.891	28451
809.033	28675
809.174	28470
809.316	28360
809.458	28542
809.6	28421
809.741	28478
809.883	28493
810.025	28736
810.166	28683
810.308	28626
810.45	28721
810.591	28607
810.733	28504
810.875	28481
811.016	28280
811.158	28265
811.299	28497
811.441	28630
811.582	28542
811.724	28394
811.865	28341
812.007	28356
812.148	28299
812.29	28577
812.431	28615
812.573	28839
812.714	28835
812.855	28885
812.997	28972
813.138	29189
813.279	29086
813.421	28919
813.562	28938
813.703	28793
813.845	28713
813.986	28310
814.127	28223
814.268	28090
814.41	28173
814.551	28135
814.692	28143
814.833	27983
814.974	28006
815.115	28379
815.256	27930
815.397	28055
815.539	27968
815.68	27865
815.821	27873
815.962	27903
816.103	27873
816.244	27816
816.385	27755
816.526	27686
816.666	27545
816.807	27389
816.948	27542
817.089	27485
817.23	27507
817.371	27473
817.512	27625
817.653	27583
817.793	27427
817.934	27329
818.075	27351
818.216	27496
818.356	27370
818.497	27313
818.638	27195
818.778	27302
818.919	27291
819.06	27165
819.2	27340
819.341	27416
819.481	27424
819.622	27614
819.762	27804
819.903	27679
820.043	27633
820.184	27747
820.324	27477
820.465	27652
820.605	27561
820.746	27641
820.886	27397
821.026	27458
821.167	27325
821.307	27591
821.447	27443
821.588	27382
821.728	27214
821.868	27024
822.008	26842
822.149	26910
822.289	26804
822.429	26629
822.569	26522
822.709	26670
822.849	26499
822.99	26564
823.13	26400
823.27	26347
823.41	26206
823.55	26233
823.69	26305
823.83	26202
823.97	26199
824.11	26081
824.25	25982
824.389	26103
824.529	26054
824.669	26077
824.809	26077
824.949	26088
825.089	26115
825.228	26088
825.368	25852
825.508	26012
825.648	25807
825.787	25837
825.927	26012
826.067	25928
826.206	25947
826.346	26001
826.485	25974
826.625	25966
826.765	26065
826.904	26027
827.044	25818
827.183	25685
827.323	25666
827.462	25795
827.601	25559
827.741	25681
827.88	25727
828.02	25563
828.159	25616
828.298	25746
828.437	25597
828.577	25662
828.716	25795
828.855	25559
828.994	25362
829.134	25441
829.273	25495
829.412	25331
829.551	25255
829.69	25316
829.829	25327
829.968	25491
830.107	25571
830.246	25392
830.385	25457
830.524	25373
830.663	25285
830.802	25110
830.941	25008
831.08	24901
831.219	25129
831.357	25107
831.496	25247
831.635	25061
831.774	24897
831.913	24901
832.051	24829
832.19	24684
832.329	24817
832.467	24848
832.606	24540
832.744	24684
832.883	24658
833.022	24696
833.16	24692
833.299	24779
833.437	24730
833.576	24734
833.714	24802
833.852	24894
833.991	24791
834.129	24844
834.267	24783
834.406	24665
834.544	24635
834.682	24734
834.821	24715
834.959	24814
835.097	24627
835.235	24730
835.373	24768
835.511	24745
835.65	24730
835.788	24688
835.926	24483
836.064	24441
836.202	24429
836.34	24601
836.478	24711
836.615	24623
836.753	24517
836.891	24711
837.029	24654
837.167	24730
837.305	24582
837.443	24502
837.58	24407
837.718	24471
837.856	24460
837.993	24410
838.131	24410
838.269	24228
838.406	24327
838.544	24174
838.681	24003
838.819	24057
838.956	23794
839.094	23961
839.231	23980
839.369	24190
839.506	24372
839.643	24083
839.781	23863
839.918	23901
840.055	23893
840.193	23809
840.33	23737
840.467	23866
840.604	23836
840.742	24201
840.879	23653
841.016	23741
841.153	23752
841.29	23870
841.427	23817
841.564	23920
841.701	23817
841.838	23676
841.975	23604
842.112	23619
842.249	23600
842.385	23551
842.522	23733
842.659	23592
842.796	23604
842.933	23661
843.069	23558
843.206	23421
843.343	23615
843.479	23551
843.616	23490
843.752	23353
843.889	23292
844.025	23436
844.162	23330
844.298	23440
844.435	23299
844.571	23269
844.708	23444
844.844	23459
844.98	23471
845.117	23410
845.253	23246
845.389	23204
845.525	23193
845.661	23189
845.798	22991
845.934	23132
846.07	23109
846.206	23151
846.342	23178
846.478	23136
846.614	22972
846.75	22790
846.886	22763
847.022	22949
847.158	22885
847.294	22809
847.429	22831
847.565	22797
847.701	23022
847.837	22561
847.972	22428
848.108	22603
848.244	22580
848.379	22451
848.515	22459
848.65	22402
848.786	22303
848.921	22405
849.057	22546
849.192	22390
849.328	22512
849.463	22466
849.598	22379
849.734	22325
849.869	22276
850.004	22173
850.14	22185
850.275	22306
850.41	22029
850.545	22029
850.68	22059
850.815	22181
850.95	22169
851.085	22265
851.22	22204
851.355	22112
851.49	22177
851.625	22196
851.76	22124
851.895	21994
852.03	22078
852.165	22169
852.299	22200
852.434	22196
852.569	22253
852.703	22226
852.838	22177
852.973	22291
853.107	22223
853.242	22032
853.376	22055
853.511	21755
853.645	21873
853.78	22162
853.914	22017
854.048	21873
854.183	21987
854.317	21979
854.451	22158
854.585	21979
854.72	21915
854.854	22116
854.988	21850
855.122	21926
855.256	21892
855.39	21964
855.524	22105
855.658	21983
855.792	21918
855.926	21838
856.06	21987
856.194	22021
856.327	21983
856.461	21816
856.595	21888
856.729	21964
856.862	22093
856.996	22059
857.13	22074
857.263	21880
857.397	21934
857.53	21857
857.664	22051
857.797	21998
857.931	22078
858.064	21869
858.197	22067
858.331	21972
858.464	21888
858.597	21937
858.731	21987
858.864	21876
858.997	21778
859.13	22017
859.263	21861
859.396	22074
859.529	21861
859.662	21884
859.795	21869
859.928	22044
860.061	22192
860.194	22090
860.327	21998
860.46	22055
860.592	22078
860.725	22048
860.858	22093
860.99	21876
861.123	21831
861.256	21907
861.388	21956
861.521	22672
861.653	21903
861.786	21831
861.918	21812
862.05	21895
862.183	21903
862.315	21899
862.447	21964
862.58	21884
862.712	21534
862.844	21675
862.976	21793
863.108	21519
863.24	21918
863.372	21515
863.504	21606
863.636	21557
863.768	21603
863.9	21694
864.032	21625
864.164	21694
864.296	21698
864.428	21759
864.559	21797
864.691	21804
864.823	21743
864.954	21679
865.086	21545
865.217	21530
865.349	21416
865.48	21534
865.612	21485
865.743	21736
865.875	21591
866.006	21439
866.137	21606
866.269	21462
866.4	21618
866.531	21507
866.662	21473
866.793	21549
866.924	21644
867.055	21534
867.186	21496
867.317	21488
867.448	21382
867.579	21393
867.71	21344
867.841	21355
867.972	21370
868.103	21515
868.233	21393
868.364	21428
868.495	21530
868.625	21690
868.756	21800
868.886	21682
869.017	21907
869.147	21793
869.278	21800
869.408	21804
869.539	21774
869.669	21751
869.799	21766
869.929	21774
870.06	21804
870.19	21953
870.32	21911
870.45	22010
870.58	22116
870.71	22211
870.84	22188
870.97	22051
871.1	22124
871.23	22356
871.36	22375
871.489	22185
871.619	22299
871.749	22360
871.879	22344
872.008	22519
872.138	22371
872.267	22276
872.397	22265
872.526	22032
872.656	22109
872.785	22120
872.915	22428
873.044	22417
873.173	22394
873.303	22470
873.432	22409
873.561	22413
873.69	22379
873.819	22398
873.948	22424
874.077	22348
874.206	22272
874.335	22314
874.464	22542
874.593	22618
874.722	22504
874.851	22538
874.979	22523
875.108	22546
875.237	22424
875.365	22508
875.494	22508
875.623	22656
875.751	22489
875.88	22459
876.008	22580
876.136	22630
876.265	22953
876.393	23079
876.521	22961
876.65	22881
876.778	22915
876.906	22733
877.034	22976
877.162	22828
877.29	22847
877.418	22927
877.546	22957
877.674	22881
877.802	22820
877.93	22835
878.058	22816
878.185	22706
878.313	22850
878.441	22835
878.568	22531
878.696	22843
878.824	23029
878.951	22877
879.079	23052
879.206	23181
879.333	22965
879.461	22873
879.588	22919
879.715	23025
879.842	23269
879.97	22987
880.097	22691
880.224	22702
880.351	22740
880.478	22637
880.605	22588
880.732	22645
880.859	22927
880.986	22752
881.112	22740
881.239	22531
881.366	22421
881.493	22341
881.619	22268
881.746	22382
881.872	22333
881.999	22238
882.125	22196
882.252	22284
882.378	22215
882.505	22253
882.631	22226
882.757	22074
882.883	22112
883.01	21972
883.136	22021
883.262	21930
883.388	21781
883.514	22055
883.64	21953
883.766	21842
883.892	21793
884.018	21781
884.143	21937
884.269	22040
884.395	21618
884.52	21576
884.646	21709
884.772	21500
884.897	21561
885.023	21583
885.148	21534
885.274	21705
885.399	21732
885.524	21500
885.65	21564
885.775	21595
885.9	21523
886.025	21743
886.15	21682
886.275	21572
886.4	21534
886.525	21557
886.65	21564
886.775	21450
886.9	21736
887.025	21899
887.149	21587
887.274	21332
887.399	21416
887.523	21355
887.648	21264
887.773	21237
887.897	21214
888.021	21367
888.146	21226
888.27	21462
888.395	21443
888.519	21519
888.643	21397
888.767	21351
888.891	21344
889.015	21070
889.139	21386
889.263	21192
889.387	21203
889.511	21325
889.635	21184
889.759	21077
889.883	21154
890.006	21188
890.13	21237
890.254	21020
890.377	21119
890.501	20857
890.624	20864
890.748	20979
890.871	20777
890.995	20754
891.118	20670
891.241	20701
891.364	20823
891.488	20883
891.611	20602
891.734	20796
891.857	20823
891.98	20788
892.103	20735
892.226	20708
892.349	20602
892.471	20465
892.594	20701
892.717	20651
892.839	20583
892.962	20693
893.085	20655
893.207	20568
893.33	20484
893.452	20526
893.575	20613
893.697	20590
893.819	20750
893.941	20750
894.064	20868
894.186	20598
894.308	20549
894.43	20682
894.552	20876
894.674	20609
894.796	20476
894.918	20575
895.04	20434
895.161	20606
895.283	20640
895.405	20480
895.526	20511
895.648	20522
895.769	20587
895.891	20621
896.012	20705
896.134	20556
896.255	20754
896.376	20598
896.498	20712
896.619	20648
896.74	20659
896.861	20587
896.982	20918
897.103	21070
897.224	20785
897.345	20777
897.466	20788
897.587	20819
897.708	20925
897.828	20788
897.949	20697
898.07	20629
898.19	20712
898.311	20758
898.431	20777
898.552	20788
898.672	20724
898.792	20883
898.913	20834
899.033	20735
899.153	20655
899.273	20419
899.393	20503
899.513	20621
899.633	20499
899.753	20556
899.873	20556
899.993	20545
900.113	20484
900.232	20606
900.352	20404
900.472	20339
900.591	20237
900.711	20290
900.83	20256
900.95	20503
901.069	20320
901.189	20180
901.308	19898
901.427	19795
901.546	19902
901.665	19890
901.784	19894
901.904	19738
902.023	19708
902.141	19510
902.26	19445
902.379	19559
902.498	19415
902.617	19358
902.735	19430
902.854	19228
902.973	19240
903.091	19160
903.21	19095
903.328	18996
903.446	18993
903.565	18844
903.683	18958
903.801	18719
903.919	18924
904.038	18802
904.156	18639
904.274	18658
904.392	18677
904.51	18623
904.627	18684
904.745	18684
904.863	18650
904.981	18410
905.098	18300
905.216	18258
905.334	18330
905.451	18281
905.569	18178
905.686	18251
905.803	18197
905.921	18030
906.038	18098
906.155	18057
906.272	17977
906.389	17950
906.506	17897
906.623	17893
906.74	17805
906.857	17646
906.974	17882
907.091	17920
907.208	17855
907.324	17805
907.441	17684
907.557	17604
907.674	17512
907.79	17444
907.907	17467
908.023	17615
908.139	17497
908.256	17501
908.372	17391
908.488	17402
908.604	17296
908.72	17220
908.836	17231
908.952	17212
909.068	17334
909.184	17265
909.3	17200
909.415	17200
909.531	17296
909.647	16968
909.762	17006
909.878	16927
909.993	16927
910.108	16900
910.224	16927
910.339	16991
910.454	16816
910.57	16774
910.685	16599
910.8	16968
910.915	16930
911.03	16809
911.145	16596
911.259	16561
911.374	16538
911.489	16550
911.604	16402
911.718	16226
911.833	16280
911.947	16158
912.062	16154
912.176	16230
912.291	16329
912.405	16246
912.519	16394
912.633	16538
912.748	16310
912.862	16318
912.976	16055
913.09	16025
913.204	16074
913.318	16200
913.431	16192
913.545	16211
913.659	16257
913.772	16109
913.886	15949
914	15915
914.113	16025
914.226	15960
914.34	15991
914.453	15732
914.566	15911
914.68	15812
914.793	15785
914.906	15660
915.019	15454
915.132	15450
915.245	15534
915.358	15507
915.47	15424
915.583	15534
915.696	15545
915.809	15572
915.921	15663
916.034	15393
916.146	15386
916.259	15306
916.371	15450
916.483	15389
916.595	15302
916.708	15313
916.82	15313
916.932	15233
917.044	15264
917.156	15264
917.268	15138
917.38	15226
917.491	15119
917.603	15230
917.715	15154
917.826	15230
917.938	15028
918.049	14933
918.161	15074
918.272	15252
918.384	15237
918.495	15055
918.606	14914
918.717	14830
918.828	14834
918.939	14861
919.05	14743
919.161	14785
919.272	14606
919.383	14674
919.494	14899
919.604	15116
919.715	14838
919.826	14796
919.936	14758
920.047	14849
920.157	14830
920.267	14925
920.378	14826
920.488	14727
920.598	14994
920.708	15211
920.818	14998
920.928	14956
921.038	15116
921.148	14998
921.258	14686
921.368	14712
921.477	14575
921.587	14556
921.697	14408
921.806	14537
921.916	14423
922.025	14275
922.134	14229
922.244	14046
922.353	14138
922.462	14050
922.571	13978
922.68	13833
922.789	13826
922.898	13875
923.007	13795
923.116	13784
923.224	13738
923.333	13772
923.442	13719
923.55	13636
923.659	13727
923.767	13693
923.876	13639
923.984	13784
924.092	13544
924.201	13613
924.309	13578
924.417	13590
924.525	13438
924.633	13480
924.741	14488
924.849	13244
924.956	13464
925.064	13225
925.172	13175
925.279	13198
925.387	13259
925.494	13232
925.602	13365
925.709	13297
925.816	13133
925.924	13221
926.031	13217
926.138	13240
926.245	13156
926.352	13031
926.459	13194
926.566	13232
926.673	13061
926.779	12996
926.886	12924
926.993	12909
927.099	12840
927.206	12764
927.312	12776
927.419	12817
927.525	12707
927.631	12844
927.737	12692
927.843	12585
927.95	12559
928.056	12604
928.162	12597
928.267	12677
928.373	13225
928.479	12696
928.585	12467
928.69	12460
928.796	12528
928.901	12410
929.007	12235
929.112	12479
929.218	12479
929.323	12399
929.428	12350
929.533	12471
929.638	12270
929.743	12258
929.848	12216
929.953	12270
930.058	12091
930.163	12079
930.267	11977
930.372	12205
930.477	11939
930.581	12117
930.685	12034
930.79	11851
930.894	11916
930.998	11882
931.103	11950
931.207	11653
931.311	11585
931.415	11395
931.519	11330
931.623	11223
