Data from test_V78500241_1897.txt Node
Date: Fri Mar 25 15:23:03 CST 2022
User: usil
Spectrometer: V785-0024
Trigger mode: 0
Integration Time (sec): 4.000000E-1
Scans to average: 1
Nonlinearity correction enabled: false
Boxcar width: 0
Storing dark spectrum: false
XAxis mode: Wavelengths
Number of Pixels in Spectrum: 1024
>>>>>Begin Spectral Data<<<<<
801.071	27709
801.214	27736
801.356	27576
801.499	27321
801.641	27378
801.783	27272
801.926	27310
802.068	27321
802.211	27256
802.353	27161
802.496	27112
802.638	26952
802.78	27009
802.923	26963
803.065	26857
803.208	26899
803.35	26925
803.492	27039
803.635	27264
803.777	27066
803.919	27207
804.061	27496
804.204	27165
804.346	27077
804.488	27119
804.63	27116
804.773	27051
804.915	27119
805.057	27462
805.199	27146
805.341	27302
805.483	27393
805.626	27123
805.768	27199
805.91	27275
806.052	27310
806.194	27188
806.336	27443
806.478	27332
806.62	27439
806.762	27405
806.904	27682
807.046	27816
807.188	27743
807.33	27641
807.472	27785
807.614	27671
807.756	27591
807.898	27576
808.04	27526
808.182	27561
808.324	27477
808.465	27568
808.607	27827
808.749	27888
808.891	28131
809.033	27975
809.174	27956
809.316	27934
809.458	27816
809.6	27854
809.741	27972
809.883	28139
810.025	28322
810.166	28112
810.308	28276
810.45	28139
810.591	28086
810.733	27895
810.875	27895
811.016	27622
811.158	27682
811.299	27911
811.441	28112
811.582	28059
811.724	27827
811.865	27911
812.007	27846
812.148	27953
812.29	27926
812.431	28181
812.573	28204
812.714	28413
812.855	28440
812.997	28500
813.138	28656
813.279	28519
813.421	28428
813.562	28348
813.703	28131
813.845	28112
813.986	27888
814.127	27785
814.268	27724
814.41	27709
814.551	27671
814.692	27724
814.833	27538
814.974	27667
815.115	27793
815.256	27420
815.397	27462
815.539	27572
815.68	27374
815.821	27252
815.962	27504
816.103	27469
816.244	27310
816.385	27135
816.526	27195
816.666	27032
816.807	26872
816.948	27055
817.089	26994
817.23	26994
817.371	26849
817.512	26876
817.653	26899
817.793	26773
817.934	26788
818.075	26956
818.216	26880
818.356	26853
818.497	26735
818.638	26758
818.778	26682
818.919	26743
819.06	26777
819.2	26762
819.341	26864
819.481	26883
819.622	26948
819.762	27245
819.903	27230
820.043	27036
820.184	26929
820.324	27032
820.465	27051
820.605	26937
820.746	27146
820.886	26815
821.026	26906
821.167	27020
821.307	26990
821.447	26887
821.588	26800
821.728	26708
821.868	26644
822.008	26347
822.149	26415
822.289	26438
822.429	26252
822.569	26077
822.709	26001
822.849	25921
822.99	25811
823.13	25761
823.27	25856
823.41	25719
823.55	25594
823.69	25639
823.83	25811
823.97	25613
824.11	25499
824.25	25506
824.389	25483
824.529	25670
824.669	25559
824.809	25635
824.949	25472
825.089	25715
825.228	25502
825.368	25350
825.508	25354
825.648	25339
825.787	25400
825.927	25491
826.067	25392
826.206	25472
826.346	25396
826.485	25502
826.625	25396
826.765	25441
826.904	25373
827.044	25141
827.183	25122
827.323	25164
827.462	25194
827.601	25129
827.741	25080
827.88	25187
828.02	24989
828.159	25110
828.298	25042
828.437	25221
828.577	25031
828.716	25228
828.855	25072
828.994	24924
829.134	24764
829.273	24814
829.412	24833
829.551	24806
829.69	24776
829.829	24916
829.968	24951
830.107	24901
830.246	24726
830.385	24817
830.524	24806
830.663	24639
830.802	24661
830.941	24403
831.08	24334
831.219	24540
831.357	24521
831.496	24616
831.635	24456
831.774	24388
831.913	24311
832.051	24235
832.19	24213
832.329	24144
832.467	24224
832.606	24178
832.744	24155
832.883	24121
833.022	24079
833.16	24098
833.299	24053
833.437	24171
833.576	24205
833.714	24140
833.852	24304
833.991	24159
834.129	24232
834.267	24251
834.406	24239
834.544	24251
834.682	24186
834.821	24213
834.959	24429
835.097	23996
835.235	24292
835.373	24220
835.511	24106
835.65	24121
835.788	24110
835.926	24022
836.064	23824
836.202	23741
836.34	23969
836.478	24098
836.615	23996
836.753	23870
836.891	24095
837.029	24034
837.167	23996
837.305	23977
837.443	23889
837.58	23824
837.718	23996
837.856	23920
837.993	23813
838.131	23805
838.269	23726
838.406	23741
838.544	23680
838.681	23558
838.819	23467
838.956	23429
839.094	23326
839.231	23322
839.369	23562
839.506	23687
839.643	23585
839.781	23216
839.918	23345
840.055	23349
840.193	23311
840.33	23208
840.467	23277
840.604	23273
840.742	23703
840.879	23155
841.016	23273
841.153	23189
841.29	23345
841.427	23258
841.564	23235
841.701	23360
841.838	23216
841.975	23083
842.112	23159
842.249	23102
842.385	22953
842.522	23200
842.659	22919
842.796	23086
842.933	23102
843.069	22911
843.206	23094
843.343	23010
843.479	22866
843.616	23143
843.752	22862
843.889	22790
844.025	22869
844.162	22710
844.298	22991
844.435	22809
844.571	22854
844.708	22858
844.844	22862
844.98	22881
845.117	22866
845.253	22797
845.389	22713
845.525	22725
845.661	22508
845.798	22550
845.934	22569
846.07	22561
846.206	22592
846.342	22622
846.478	22481
846.614	22386
846.75	22344
846.886	22215
847.022	22356
847.158	22344
847.294	22303
847.429	22276
847.565	22280
847.701	22531
847.837	22070
847.972	22021
848.108	22063
848.244	21968
848.379	21861
848.515	21793
848.65	21819
848.786	21899
848.921	21994
849.057	22017
849.192	21991
849.328	21842
849.463	21888
849.598	21831
849.734	21679
849.869	21603
850.004	21656
850.14	21675
850.275	21553
850.41	21530
850.545	21500
850.68	21667
850.815	21720
850.95	21545
851.085	21804
851.22	21724
851.355	21644
851.49	21599
851.625	21542
851.76	21671
851.895	21500
852.03	21526
852.165	21694
852.299	21641
852.434	21564
852.569	21701
852.703	21595
852.838	21625
852.973	21747
853.107	21663
853.242	21564
853.376	21454
853.511	21370
853.645	21351
853.78	21671
853.914	21519
854.048	21382
854.183	21500
854.317	21428
854.451	21603
854.585	21382
854.72	21526
854.854	21591
854.988	21367
855.122	21424
855.256	21351
855.39	21408
855.524	21545
855.658	21515
855.792	21488
855.926	21485
856.06	21580
856.194	21557
856.327	21428
856.461	21374
856.595	21462
856.729	21401
856.862	21618
856.996	21447
857.13	21515
857.263	21473
857.397	21500
857.53	21473
857.664	21420
857.797	21355
857.931	21545
858.064	21447
858.197	21583
858.331	21469
858.464	21431
858.597	21351
858.731	21389
858.864	21378
858.997	21306
859.13	21469
859.263	21450
859.396	21542
859.529	21382
859.662	21359
859.795	21458
859.928	21542
860.061	21709
860.194	21701
860.327	21526
860.46	21435
860.592	21625
860.725	21545
860.858	21591
860.99	21450
861.123	21351
861.256	21386
861.388	21496
861.521	22109
861.653	21378
861.786	21291
861.918	21325
862.05	21329
862.183	21462
862.315	21397
862.447	21447
862.58	21378
862.712	21176
862.844	21207
862.976	21275
863.108	21173
863.24	21488
863.372	21169
863.504	21260
863.636	21135
863.768	21233
863.9	21173
864.032	21169
864.164	21036
864.296	21123
864.428	21302
864.559	21294
864.691	21192
864.823	21233
864.954	21222
865.086	21077
865.217	21051
865.349	20876
865.48	21077
865.612	21135
865.743	21279
865.875	20956
866.006	20998
866.137	20948
866.269	20921
866.4	21036
866.531	20952
866.662	20918
866.793	20982
866.924	21001
867.055	20849
867.186	20921
867.317	21009
867.448	20838
867.579	20891
867.71	20895
867.841	20880
867.972	21024
868.103	20925
868.233	20960
868.364	21062
868.495	21062
868.625	21226
868.756	21424
868.886	21226
869.017	21161
869.147	21249
869.278	21416
869.408	21431
869.539	21176
869.669	21302
869.799	21279
869.929	21310
870.06	21310
870.19	21496
870.32	21408
870.45	21625
870.58	21469
870.71	21713
870.84	21625
870.97	21542
871.1	21610
871.23	21804
871.36	21812
871.489	21709
871.619	21781
871.749	21770
871.879	21892
872.008	21941
872.138	21804
872.267	21808
872.397	21667
872.526	21591
872.656	21599
872.785	21568
872.915	21857
873.044	21926
873.173	21694
873.303	21918
873.432	21865
873.561	21861
873.69	21808
873.819	21827
873.948	21793
874.077	21812
874.206	21728
874.335	21937
874.464	21922
874.593	22112
874.722	22002
874.851	21934
874.979	22109
875.108	22097
875.237	22048
875.365	21991
875.494	22051
875.623	22139
875.751	21983
875.88	22158
876.008	22116
876.136	22188
876.265	22417
876.393	22607
876.521	22508
876.65	22474
876.778	22500
876.906	22325
877.034	22436
877.162	22356
877.29	22360
877.418	22386
877.546	22489
877.674	22322
877.802	22466
877.93	22341
878.058	22299
878.185	22333
878.313	22363
878.441	22375
878.568	22204
878.696	22413
878.824	22485
878.951	22504
879.079	22538
879.206	22691
879.333	22500
879.461	22344
879.588	22596
879.715	22599
879.842	22706
879.97	22592
880.097	22124
880.224	22287
880.351	22226
880.478	22242
880.605	22086
880.732	22211
880.859	22573
880.986	22204
881.112	22291
881.239	22124
881.366	22059
881.493	21892
881.619	21812
881.746	21793
881.872	21682
881.999	21804
882.125	21705
882.252	21827
882.378	21793
882.505	21857
882.631	21690
882.757	21466
882.883	21504
883.01	21526
883.136	21587
883.262	21340
883.388	21275
883.514	21542
883.64	21492
883.766	21435
883.892	21313
884.018	21370
884.143	21473
884.269	21462
884.395	21161
884.52	21135
884.646	21207
884.772	21116
884.897	21081
885.023	21119
885.148	21222
885.274	21374
885.399	21195
885.524	21283
885.65	21131
885.775	21252
885.9	21055
886.025	21279
886.15	21165
886.275	21096
886.4	21062
886.525	21009
886.65	20998
886.775	20948
886.9	21161
887.025	21321
887.149	21096
887.274	20975
887.399	20979
887.523	20788
887.648	20842
887.773	20819
887.897	20937
888.021	20891
888.146	20750
888.27	21093
888.395	20998
888.519	20952
888.643	20929
888.767	20971
888.891	20705
889.015	20689
889.139	20545
889.263	20819
889.387	20861
889.511	20861
889.635	20902
889.759	20689
889.883	20575
890.006	20663
890.13	20891
890.254	20549
890.377	20602
890.501	20495
890.624	20328
890.748	20427
890.871	20309
890.995	20267
891.118	20183
891.241	20271
891.364	20278
891.488	20396
891.611	20221
891.734	20320
891.857	20351
891.98	20298
892.103	20305
892.226	20320
892.349	20244
892.471	20043
892.594	20176
892.717	20252
892.839	20065
892.962	20202
893.085	20381
893.207	20320
893.33	20058
893.452	20130
893.575	20244
893.697	20126
893.819	20298
893.941	20450
894.064	20339
894.186	20122
894.308	20077
894.43	20256
894.552	20225
894.674	20191
894.796	20138
894.918	20172
895.04	20119
895.161	20199
895.283	20145
895.405	20115
895.526	20069
895.648	20130
895.769	20054
895.891	20119
896.012	20130
896.134	20218
896.255	20134
896.376	20145
896.498	20107
896.619	20252
896.74	20126
896.861	20107
896.982	20537
897.103	20697
897.224	20328
897.345	20339
897.466	20358
897.587	20290
897.708	20507
897.828	20499
897.949	20324
898.07	20298
898.19	20343
898.311	20514
898.431	20267
898.552	20408
898.672	20438
898.792	20442
898.913	20404
899.033	20286
899.153	20161
899.273	20145
899.393	20046
899.513	20168
899.633	20187
899.753	20081
899.873	20092
899.993	20046
900.113	20130
900.232	20111
900.352	19944
900.472	19864
900.591	19974
900.711	19921
900.83	19841
900.95	19890
901.069	19898
901.189	19769
901.308	19552
901.427	19556
901.546	19514
901.665	19514
901.784	19480
901.904	19365
902.023	19285
902.141	19069
902.26	18962
902.379	19095
902.498	18939
902.617	18905
902.735	19027
902.854	18875
902.973	18817
903.091	18688
903.21	18627
903.328	18639
903.446	18589
903.565	18460
903.683	18563
903.801	18376
903.919	18494
904.038	18361
904.156	18216
904.274	18289
904.392	18232
904.51	18224
904.627	18182
904.745	18266
904.863	18277
904.981	18007
905.098	17988
905.216	17988
905.334	17931
905.451	17870
905.569	17828
905.686	17954
905.803	17901
905.921	17741
906.038	17859
906.155	17779
906.272	17627
906.389	17684
906.506	17436
906.623	17455
906.74	17448
906.857	17440
906.974	17356
907.091	17490
907.208	17554
907.324	17486
907.441	17288
907.557	17189
907.674	17208
907.79	17185
907.907	17098
908.023	17212
908.139	17178
908.256	17155
908.372	17006
908.488	17018
908.604	16991
908.72	16919
908.836	16889
908.952	16927
909.068	16942
909.184	16953
909.3	16915
909.415	16927
909.531	16881
909.647	16679
909.762	16618
909.878	16535
909.993	16603
910.108	16599
910.224	16424
910.339	16573
910.454	16459
910.57	16367
910.685	16360
910.8	16668
910.915	16577
911.03	16447
911.145	16200
911.259	16147
911.374	16280
911.489	16143
911.604	16135
911.718	15926
911.833	15941
911.947	15717
912.062	15675
912.176	15797
912.291	15869
912.405	15956
912.519	16135
912.633	16135
912.748	15964
912.862	15979
912.976	15747
913.09	15629
913.204	15675
913.318	15698
913.431	15884
913.545	15762
913.659	15812
913.772	15686
913.886	15496
914	15652
914.113	15530
914.226	15694
914.34	15682
914.453	15488
914.566	15561
914.68	15321
914.793	15416
914.906	15226
915.019	15127
915.132	15077
915.245	15169
915.358	15157
915.47	15131
915.583	15138
915.696	15051
915.809	15256
915.921	15268
916.034	15085
916.146	14944
916.259	14986
916.371	15173
916.483	15074
916.595	14975
916.708	14868
916.82	14944
916.932	14933
917.044	14956
917.156	14895
917.268	14739
917.38	14857
917.491	14705
917.603	14845
917.715	14800
917.826	14910
917.938	14777
918.049	14602
918.161	14773
918.272	14815
918.384	14834
918.495	14838
918.606	14530
918.717	14480
918.828	14571
918.939	14552
919.05	14488
919.161	14583
919.272	14393
919.383	14343
919.494	14583
919.604	14727
919.715	14590
919.826	14469
919.936	14556
920.047	14613
920.157	14552
920.267	14716
920.378	14560
920.488	14495
920.598	14610
920.708	14838
920.818	14697
920.928	14583
921.038	14811
921.148	14792
921.258	14533
921.368	14408
921.477	14305
921.587	14286
921.697	14161
921.806	14176
921.916	14221
922.025	14001
922.134	13909
922.244	13864
922.353	13849
922.462	13727
922.571	13674
922.68	13582
922.789	13590
922.898	13575
923.007	13514
923.116	13506
923.224	13571
923.333	13567
923.442	13384
923.55	13346
923.659	13426
923.767	13396
923.876	13308
923.984	13396
924.092	13164
924.201	13331
924.309	13263
924.417	13312
924.525	13202
924.633	13187
924.741	14073
924.849	13099
924.956	13122
925.064	13023
925.172	12859
925.279	13023
925.387	12977
925.494	12977
925.602	13004
925.709	13053
925.816	12856
925.924	12939
926.031	12935
926.138	12840
926.245	12981
926.352	12787
926.459	12935
926.566	12947
926.673	12779
926.779	12707
926.886	12734
926.993	12601
927.099	12506
927.206	12521
927.312	12494
927.419	12604
927.525	12517
927.631	12559
927.737	12376
927.843	12350
927.95	12228
928.056	12239
928.162	12422
928.267	12407
928.373	12920
928.479	12433
928.585	12201
928.69	12281
928.796	12327
928.901	12201
929.007	12095
929.112	12182
929.218	12186
929.323	12163
929.428	12087
929.533	12167
929.638	12091
929.743	11980
929.848	12049
929.953	12060
930.058	11961
930.163	11783
930.267	11779
930.372	11832
930.477	11710
930.581	11908
930.685	11813
930.79	11737
930.894	11680
930.998	11600
931.103	11779
931.207	11395
931.311	11322
931.415	11223
931.519	11086
931.623	11067
