Data from test_V78500241_3086.txt Node
Date: Fri Mar 25 15:31:20 CST 2022
User: usil
Spectrometer: V785-0024
Trigger mode: 0
Integration Time (sec): 4.000000E-1
Scans to average: 1
Nonlinearity correction enabled: false
Boxcar width: 0
Storing dark spectrum: false
XAxis mode: Wavelengths
Number of Pixels in Spectrum: 1024
>>>>>Begin Spectral Data<<<<<
801.071	27389
801.214	27275
801.356	27169
801.499	27013
801.641	26811
801.783	26826
801.926	26910
802.068	27047
802.211	26853
802.353	26788
802.496	26651
802.638	26644
802.78	26613
802.923	26278
803.065	26305
803.208	26320
803.35	26415
803.492	26560
803.635	26708
803.777	26469
803.919	26705
804.061	26948
804.204	26686
804.346	26549
804.488	26564
804.63	26575
804.773	26537
804.915	26659
805.057	26800
805.199	26632
805.341	26811
805.483	26765
805.626	26880
805.768	26571
805.91	26819
806.052	26746
806.194	26667
806.336	26861
806.478	26727
806.62	26644
806.762	26857
806.904	26883
807.046	27214
807.188	27093
807.33	27180
807.472	27340
807.614	27119
807.756	27184
807.898	27024
808.04	26952
808.182	26982
808.324	26971
808.465	27116
808.607	27260
808.749	27367
808.891	27435
809.033	27534
809.174	27462
809.316	27389
809.458	27370
809.6	27283
809.741	27359
809.883	27435
810.025	27583
810.166	27667
810.308	27606
810.45	27549
810.591	27545
810.733	27435
810.875	27462
811.016	27275
811.158	27245
811.299	27553
811.441	27473
811.582	27663
811.724	27351
811.865	27222
812.007	27218
812.148	27287
812.29	27283
812.431	27473
812.573	27599
812.714	27800
812.855	27816
812.997	27907
813.138	27953
813.279	27903
813.421	27842
813.562	27759
813.703	27644
813.845	27511
813.986	27329
814.127	27192
814.268	27070
814.41	26956
814.551	27028
814.692	27100
814.833	26960
814.974	26960
815.115	26864
815.256	26906
815.397	26891
815.539	26906
815.68	26743
815.821	26689
815.962	26807
816.103	26792
816.244	26644
816.385	26541
816.526	26457
816.666	26294
816.807	26301
816.948	26252
817.089	26347
817.23	26294
817.371	26187
817.512	26305
817.653	26221
817.793	26225
817.934	26271
818.075	26358
818.216	26168
818.356	26377
818.497	26046
818.638	25986
818.778	26065
818.919	25917
819.06	25940
819.2	26191
819.341	26145
819.481	26282
819.622	26450
819.762	26556
819.903	26450
820.043	26530
820.184	26313
820.324	26313
820.465	26438
820.605	26248
820.746	26256
820.886	26020
821.026	26210
821.167	26286
821.307	26408
821.447	26259
821.588	26183
821.728	26088
821.868	25765
822.008	25639
822.149	25632
822.289	25693
822.429	25479
822.569	25358
822.709	25335
822.849	25274
822.99	25099
823.13	25251
823.27	25171
823.41	25148
823.55	25004
823.69	25118
823.83	25061
823.97	25050
824.11	24787
824.25	24802
824.389	24878
824.529	24920
824.669	24810
824.809	24932
824.949	24981
825.089	24992
825.228	24863
825.368	24776
825.508	24772
825.648	24821
825.787	24734
825.927	24806
826.067	24719
826.206	24684
826.346	24734
826.485	24753
826.625	24764
826.765	24867
826.904	24837
827.044	24448
827.183	24593
827.323	24304
827.462	24494
827.601	24433
827.741	24361
827.88	24426
828.02	24365
828.159	24285
828.298	24388
828.437	24486
828.577	24361
828.716	24471
828.855	24209
828.994	24095
829.134	24095
829.273	24136
829.412	24068
829.551	24095
829.69	24038
829.829	24243
829.968	24171
830.107	24277
830.246	24064
830.385	24098
830.524	23996
830.663	24015
830.802	23813
830.941	23851
831.08	23573
831.219	23980
831.357	23741
831.496	23988
831.635	23752
831.774	23627
831.913	23566
832.051	23444
832.19	23604
832.329	23425
832.467	23364
832.606	23364
832.744	23315
832.883	23395
833.022	23387
833.16	23402
833.299	23486
833.437	23372
833.576	23505
833.714	23592
833.852	23379
833.991	23463
834.129	23497
834.267	23562
834.406	23547
834.544	23604
834.682	23501
834.821	23433
834.959	23684
835.097	23395
835.235	23505
835.373	23509
835.511	23459
835.65	23452
835.788	23208
835.926	23162
836.064	23090
836.202	23102
836.34	23330
836.478	23372
836.615	23235
836.753	23349
836.891	23337
837.029	23326
837.167	23261
837.305	23292
837.443	23124
837.58	23083
837.718	23166
837.856	23200
837.993	23159
838.131	23136
838.269	22957
838.406	23102
838.544	22930
838.681	22862
838.819	22733
838.956	22615
839.094	22641
839.231	22603
839.369	22790
839.506	23025
839.643	22820
839.781	22618
839.918	22618
840.055	22531
840.193	22557
840.33	22637
840.467	22557
840.604	22672
840.742	22869
840.879	22481
841.016	22523
841.153	22424
841.29	22603
841.427	22596
841.564	22618
841.701	22691
841.838	22546
841.975	22481
842.112	22557
842.249	22459
842.385	22280
842.522	22455
842.659	22394
842.796	22200
842.933	22272
843.069	22207
843.206	22253
843.343	22394
843.479	22367
843.616	22306
843.752	22029
843.889	22086
844.025	22276
844.162	22048
844.298	22219
844.435	22006
844.571	22051
844.708	22029
844.844	22314
844.98	22185
845.117	22048
845.253	21987
845.389	21979
845.525	21926
845.661	21926
845.798	21789
845.934	21831
846.07	21842
846.206	21911
846.342	21922
846.478	21918
846.614	21728
846.75	21583
846.886	21656
847.022	21797
847.158	21564
847.294	21606
847.429	21652
847.565	21591
847.701	21774
847.837	21325
847.972	21317
848.108	21416
848.244	21386
848.379	21249
848.515	21154
848.65	21138
848.786	21108
848.921	21146
849.057	21325
849.192	21195
849.328	21146
849.463	21100
849.598	21119
849.734	21036
849.869	20986
850.004	21039
850.14	21119
850.275	20982
850.41	20864
850.545	20861
850.68	20880
850.815	20819
850.95	20937
851.085	21009
851.22	20902
851.355	20944
851.49	20921
851.625	20990
851.76	20948
851.895	20785
852.03	20796
852.165	20960
852.299	21047
852.434	21150
852.569	21017
852.703	20921
852.838	20933
852.973	20994
853.107	21135
853.242	20864
853.376	20876
853.511	20625
853.645	20739
853.78	20864
853.914	20712
854.048	20746
854.183	20823
854.317	20800
854.451	20937
854.585	20743
854.72	20834
854.854	20788
854.988	20743
855.122	20724
855.256	20682
855.39	20731
855.524	20918
855.658	20765
855.792	20830
855.926	20777
856.06	20796
856.194	20902
856.327	20807
856.461	20746
856.595	20693
856.729	20735
856.862	20937
856.996	20804
857.13	20819
857.263	20887
857.397	20872
857.53	20796
857.664	20712
857.797	20845
857.931	20883
858.064	20720
858.197	20944
858.331	20804
858.464	20701
858.597	20648
858.731	20724
858.864	20796
858.997	20724
859.13	20883
859.263	20800
859.396	20906
859.529	20834
859.662	20739
859.795	20705
859.928	20697
860.061	20933
860.194	20998
860.327	20792
860.46	20781
860.592	20952
860.725	20876
860.858	20941
860.99	20708
861.123	20804
861.256	20632
861.388	20693
861.521	21260
861.653	20625
861.786	20571
861.918	20606
862.05	20731
862.183	20735
862.315	20640
862.447	20735
862.58	20758
862.712	20587
862.844	20427
862.976	20526
863.108	20579
863.24	20883
863.372	20366
863.504	20507
863.636	20476
863.768	20541
863.9	20476
864.032	20492
864.164	20370
864.296	20598
864.428	20644
864.559	20613
864.691	20575
864.823	20423
864.954	20396
865.086	20404
865.217	20347
865.349	20347
865.48	20488
865.612	20450
865.743	20568
865.875	20415
866.006	20408
866.137	20492
866.269	20408
866.4	20370
866.531	20412
866.662	20313
866.793	20332
866.924	20290
867.055	20332
867.186	20294
867.317	20358
867.448	20214
867.579	20309
867.71	20309
867.841	20210
867.972	20328
868.103	20252
868.233	20358
868.364	20393
868.495	20446
868.625	20431
868.756	20598
868.886	20469
869.017	20556
869.147	20659
869.278	20663
869.408	20594
869.539	20655
869.669	20583
869.799	20754
869.929	20629
870.06	20773
870.19	20925
870.32	20899
870.45	20902
870.58	20944
870.71	21093
870.84	21024
870.97	21066
871.1	20902
871.23	21161
871.36	21211
871.489	21096
871.619	21119
871.749	21173
871.879	21241
872.008	21260
872.138	21256
872.267	21256
872.397	21085
872.526	20902
872.656	21108
872.785	21154
872.915	21165
873.044	21275
873.173	21127
873.303	21252
873.432	21306
873.561	21264
873.69	21157
873.819	21112
873.948	21294
874.077	21180
874.206	21066
874.335	21180
874.464	21332
874.593	21443
874.722	21329
874.851	21412
874.979	21625
875.108	21564
875.237	21393
875.365	21344
875.494	21435
875.623	21386
875.751	21431
875.88	21507
876.008	21648
876.136	21606
876.265	21804
876.393	21854
876.521	21930
876.65	21873
876.778	21747
876.906	21762
877.034	21720
877.162	21720
877.29	21736
877.418	21766
877.546	21789
877.674	21774
877.802	21705
877.93	21869
878.058	21808
878.185	21587
878.313	21751
878.441	21701
878.568	21568
878.696	21599
878.824	21774
878.951	21819
879.079	21911
879.206	22055
879.333	22010
879.461	21903
879.588	21838
879.715	21911
879.842	21960
879.97	21800
880.097	21648
880.224	21686
880.351	21713
880.478	21656
880.605	21618
880.732	21500
880.859	21819
880.986	21606
881.112	21698
881.239	21348
881.366	21351
881.493	21329
881.619	21241
881.746	21287
881.872	21264
881.999	21157
882.125	21043
882.252	21161
882.378	21264
882.505	21252
882.631	20994
882.757	21005
882.883	21017
883.01	20975
883.136	20830
883.262	20735
883.388	20727
883.514	20887
883.64	21024
883.766	20807
883.892	20678
884.018	20727
884.143	20800
884.269	20933
884.395	20655
884.52	20511
884.646	20514
884.772	20488
884.897	20492
885.023	20579
885.148	20640
885.274	20708
885.399	20613
885.524	20533
885.65	20552
885.775	20552
885.9	20530
886.025	20659
886.15	20621
886.275	20613
886.4	20415
886.525	20446
886.65	20419
886.775	20427
886.9	20648
887.025	20762
887.149	20495
887.274	20454
887.399	20336
887.523	20351
887.648	20259
887.773	20130
887.897	20473
888.021	20393
888.146	20233
888.27	20256
888.395	20320
888.519	20290
888.643	20221
888.767	20377
888.891	20138
889.015	20161
889.139	20145
889.263	20088
889.387	20210
889.511	20328
889.635	20298
889.759	20103
889.883	20229
890.006	20218
890.13	20172
890.254	19997
890.377	20122
890.501	19921
890.624	19833
890.748	19883
890.871	19765
890.995	19670
891.118	19601
891.241	19719
891.364	19731
891.488	19738
891.611	19769
891.734	19681
891.857	19791
891.98	19666
892.103	19799
892.226	19677
892.349	19567
892.471	19548
892.594	19624
892.717	19624
892.839	19616
892.962	19601
893.085	19715
893.207	19609
893.33	19521
893.452	19635
893.575	19693
893.697	19628
893.819	19750
893.941	19791
894.064	19738
894.186	19552
894.308	19476
894.43	19628
894.552	19788
894.674	19620
894.796	19499
894.918	19677
895.04	19597
895.161	19757
895.283	19647
895.405	19548
895.526	19632
895.648	19651
895.769	19681
895.891	19666
896.012	19704
896.134	19693
896.255	19651
896.376	19632
896.498	19662
896.619	19689
896.74	19742
896.861	19666
896.982	19993
897.103	19993
897.224	19868
897.345	19822
897.466	19822
897.587	19795
897.708	19875
897.828	19871
897.949	19772
898.07	19635
898.19	19814
898.311	19906
898.431	19864
898.552	19852
898.672	19864
898.792	19913
898.913	19906
899.033	19845
899.153	19658
899.273	19540
899.393	19624
899.513	19597
899.633	19575
899.753	19635
899.873	19457
899.993	19655
900.113	19571
900.232	19552
900.352	19457
900.472	19369
900.591	19354
900.711	19415
900.83	19438
900.95	19441
901.069	19464
901.189	19331
901.308	19027
901.427	18939
901.546	19008
901.665	18958
901.784	18943
901.904	18863
902.023	18768
902.141	18563
902.26	18460
902.379	18509
902.498	18642
902.617	18483
902.735	18540
902.854	18574
902.973	18350
903.091	18114
903.21	18277
903.328	18186
903.446	18060
903.565	18019
903.683	17958
903.801	17832
903.919	17980
904.038	17912
904.156	17840
904.274	17866
904.392	17714
904.51	17718
904.627	17741
904.745	17824
904.863	17760
904.981	17551
905.098	17463
905.216	17566
905.334	17444
905.451	17406
905.569	17372
905.686	17440
905.803	17387
905.921	17193
906.038	17383
906.155	17231
906.272	17170
906.389	17113
906.506	17010
906.623	17025
906.74	16953
906.857	16847
906.974	16892
907.091	17052
907.208	17090
907.324	16984
907.441	16820
907.557	16615
907.674	16721
907.79	16687
907.907	16683
908.023	16683
908.139	16763
908.256	16554
908.372	16584
908.488	16584
908.604	16417
908.72	16417
908.836	16348
908.952	16333
909.068	16333
909.184	16462
909.3	16375
909.415	16504
909.531	16386
909.647	16154
909.762	16071
909.878	16063
909.993	16086
910.108	16207
910.224	16105
910.339	16105
910.454	15964
910.57	15953
910.685	15781
910.8	16158
910.915	16112
911.03	15899
911.145	15770
911.259	15698
911.374	15679
911.489	15572
911.604	15603
911.718	15538
911.833	15466
911.947	15447
912.062	15348
912.176	15545
912.291	15477
912.405	15500
912.519	15652
912.633	15736
912.748	15603
912.862	15420
912.976	15272
913.09	15245
913.204	15192
913.318	15317
913.431	15397
913.545	15401
913.659	15397
913.772	15260
913.886	15161
914	15104
914.113	15241
914.226	15207
914.34	15039
914.453	15024
914.566	15051
914.68	15013
914.793	14944
914.906	14842
915.019	14739
915.132	14758
915.245	14727
915.358	14708
915.47	14674
915.583	14682
915.696	14655
915.809	14800
915.921	14876
916.034	14598
916.146	14556
916.259	14644
916.371	14769
916.483	14655
916.595	14564
916.708	14594
916.82	14503
916.932	14484
917.044	14492
917.156	14526
917.268	14438
917.38	14480
917.491	14450
917.603	14381
917.715	14526
917.826	14476
917.938	14362
918.049	14256
918.161	14343
918.272	14404
918.384	14415
918.495	14313
918.606	14237
918.717	14126
918.828	14084
918.939	14161
919.05	14157
919.161	14096
919.272	13986
919.383	14012
919.494	14202
919.604	14347
919.715	14115
919.826	14081
919.936	14111
920.047	14183
920.157	14115
920.267	14278
920.378	14119
920.488	14134
920.598	14400
920.708	14431
920.818	14393
920.928	14248
921.038	14503
921.148	14381
921.258	14035
921.368	14005
921.477	13879
921.587	13868
921.697	13765
921.806	13864
921.916	13719
922.025	13620
922.134	13582
922.244	13438
922.353	13499
922.462	13445
922.571	13381
922.68	13244
922.789	13046
922.898	13247
923.007	13110
923.116	13145
923.224	13126
923.333	13145
923.442	12962
923.55	12947
923.659	13008
923.767	13084
923.876	12958
923.984	12985
924.092	12814
924.201	12970
924.309	12924
924.417	12894
924.525	12817
924.633	12802
924.741	13818
924.849	12646
924.956	12829
925.064	12604
925.172	12627
925.279	12616
925.387	12608
925.494	12555
925.602	12753
925.709	12601
925.816	12540
925.924	12486
926.031	12677
926.138	12532
926.245	12540
926.352	12513
926.459	12597
926.566	12616
926.673	12483
926.779	12350
926.886	12361
926.993	12197
927.099	12209
927.206	12205
927.312	12106
927.419	12213
927.525	12178
927.631	12201
927.737	12079
927.843	12060
927.95	12007
928.056	11992
928.162	11927
928.267	11973
928.373	12623
928.479	12114
928.585	11783
928.69	12011
928.796	11992
928.901	11897
929.007	11703
929.112	11878
929.218	11809
929.323	11764
929.428	11718
929.533	11912
929.638	11668
929.743	11642
929.848	11745
929.953	11699
930.058	11573
930.163	11455
930.267	11505
930.372	11585
930.477	11417
930.581	11611
930.685	11486
930.79	11326
930.894	11349
930.998	11337
931.103	11360
931.207	11090
931.311	11014
931.415	10911
931.519	10740
931.623	10771
