Data from test_V78500241_1286.txt Node
Date: Fri Mar 25 15:18:48 CST 2022
User: usil
Spectrometer: V785-0024
Trigger mode: 0
Integration Time (sec): 4.000000E-1
Scans to average: 1
Nonlinearity correction enabled: false
Boxcar width: 0
Storing dark spectrum: false
XAxis mode: Wavelengths
Number of Pixels in Spectrum: 1024
>>>>>Begin Spectral Data<<<<<
801.071	28063
801.214	28173
801.356	27720
801.499	27641
801.641	27671
801.783	27713
801.926	27675
802.068	27698
802.211	27751
802.353	27500
802.496	27420
802.638	27351
802.78	27302
802.923	27268
803.065	27176
803.208	27230
803.35	27279
803.492	27363
803.635	27424
803.777	27397
803.919	27507
804.061	27827
804.204	27507
804.346	27454
804.488	27526
804.63	27496
804.773	27454
804.915	27507
805.057	27561
805.199	27542
805.341	27530
805.483	27606
805.626	27553
805.768	27561
805.91	27603
806.052	27591
806.194	27488
806.336	27869
806.478	27766
806.62	27720
806.762	27762
806.904	27949
807.046	28185
807.188	28082
807.33	27979
807.472	28051
807.614	27991
807.756	28078
807.898	28010
808.04	27949
808.182	27991
808.324	27884
808.465	27937
808.607	28246
808.749	28230
808.891	28386
809.033	28310
809.174	28451
809.316	28306
809.458	28265
809.6	28257
809.741	28466
809.883	28405
810.025	28679
810.166	28672
810.308	28626
810.45	28470
810.591	28481
810.733	28367
810.875	28295
811.016	28154
811.158	28333
811.299	28348
811.441	28474
811.582	28466
811.724	28253
811.865	28375
812.007	28344
812.148	28314
812.29	28276
812.431	28531
812.573	28569
812.714	28820
812.855	28824
812.997	28957
813.138	28877
813.279	28942
813.421	28923
813.562	28828
813.703	28687
813.845	28580
813.986	28287
814.127	28177
814.268	27945
814.41	28002
814.551	27975
814.692	28078
814.833	27998
814.974	28021
815.115	27937
815.256	27857
815.397	27846
815.539	27884
815.68	27720
815.821	27717
815.962	27838
816.103	27857
816.244	27778
816.385	27644
816.526	27652
816.666	27583
816.807	27427
816.948	27469
817.089	27420
817.23	27412
817.371	27310
817.512	27192
817.653	27355
817.793	27374
817.934	27363
818.075	27336
818.216	27291
818.356	27252
818.497	27298
818.638	27207
818.778	27135
818.919	26967
819.06	27188
819.2	27142
819.341	27310
819.481	27397
819.622	27610
819.762	27785
819.903	27530
820.043	27450
820.184	27363
820.324	27389
820.465	27576
820.605	27481
820.746	27481
820.886	27226
821.026	27496
821.167	27348
821.307	27416
821.447	27275
821.588	27169
821.728	27291
821.868	26994
822.008	26895
822.149	26785
822.289	26796
822.429	26598
822.569	26461
822.709	26423
822.849	26339
822.99	26248
823.13	26202
823.27	26267
823.41	26202
823.55	26092
823.69	26199
823.83	26077
823.97	25868
824.11	26016
824.25	25982
824.389	25947
824.529	26058
824.669	26058
824.809	26111
824.949	26161
825.089	26039
825.228	25993
825.368	25757
825.508	25799
825.648	25826
825.787	25894
825.927	25856
826.067	25700
826.206	25788
826.346	25826
826.485	25928
826.625	25875
826.765	25944
826.904	25864
827.044	25586
827.183	25548
827.323	25586
827.462	25605
827.601	25479
827.741	25472
827.88	25544
828.02	25301
828.159	25552
828.298	25491
828.437	25540
828.577	25586
828.716	25727
828.855	25502
828.994	25400
829.134	25346
829.273	25274
829.412	25160
829.551	25293
829.69	25400
829.829	25324
829.968	25206
830.107	25331
830.246	25175
830.385	25171
830.524	25133
830.663	25050
830.802	25088
830.941	24825
831.08	24966
831.219	25008
831.357	24916
831.496	25118
831.635	24924
831.774	24913
831.913	24848
832.051	24837
832.19	24570
832.329	24635
832.467	24589
832.606	24502
832.744	24464
832.883	24456
833.022	24471
833.16	24574
833.299	24555
833.437	24532
833.576	24665
833.714	24544
833.852	24669
833.991	24681
834.129	24722
834.267	24684
834.406	24494
834.544	24616
834.682	24791
834.821	24612
834.959	24802
835.097	24483
835.235	24661
835.373	24498
835.511	24669
835.65	24513
835.788	24502
835.926	24372
836.064	24235
836.202	24216
836.34	24528
836.478	24532
836.615	24414
836.753	24429
836.891	24536
837.029	24426
837.167	24441
837.305	24361
837.443	24308
837.58	24300
837.718	24251
837.856	24350
837.993	24190
838.131	24300
838.269	24091
838.406	24098
838.544	24114
838.681	23855
838.819	23893
838.956	23760
839.094	23756
839.231	23878
839.369	23946
839.506	24057
839.643	23912
839.781	23912
839.918	23726
840.055	23733
840.193	23649
840.33	23535
840.467	23581
840.604	23665
840.742	23908
840.879	23543
841.016	23634
841.153	23452
841.29	23805
841.427	23592
841.564	23737
841.701	23771
841.838	23619
841.975	23482
842.112	23604
842.249	23509
842.385	23376
842.522	23592
842.659	23436
842.796	23433
842.933	23531
843.069	23337
843.206	23345
843.343	23406
843.479	23452
843.616	23417
843.752	23261
843.889	23322
844.025	23326
844.162	23124
844.298	23322
844.435	23170
844.571	23121
844.708	23166
844.844	23410
844.98	23273
845.117	23250
845.253	23193
845.389	23162
845.525	23105
845.661	23025
845.798	22889
845.934	23041
846.07	22919
846.206	23014
846.342	23117
846.478	22877
846.614	22809
846.75	22596
846.886	22675
847.022	22622
847.158	22626
847.294	22698
847.429	22790
847.565	22577
847.701	22961
847.837	22447
847.972	22421
848.108	22394
848.244	22322
848.379	22314
848.515	22257
848.65	22219
848.786	22257
848.921	22276
849.057	22306
849.192	22394
849.328	22382
849.463	22211
849.598	22249
849.734	22017
849.869	22154
850.004	21918
850.14	22124
850.275	22017
850.41	21953
850.545	21991
850.68	21888
850.815	21987
850.95	21983
851.085	22242
851.22	22097
851.355	22109
851.49	21865
851.625	21960
851.76	21945
851.895	21975
852.03	21934
852.165	22086
852.299	22109
852.434	22143
852.569	21953
852.703	21854
852.838	22101
852.973	22192
853.107	22181
853.242	21884
853.376	21857
853.511	21774
853.645	21846
853.78	21934
853.914	21755
854.048	21800
854.183	21911
854.317	21823
854.451	22158
854.585	21842
854.72	21778
854.854	22070
854.988	21838
855.122	21751
855.256	21618
855.39	21759
855.524	21895
855.658	21854
855.792	21789
855.926	21781
856.06	21800
856.194	21880
856.327	21781
856.461	21934
856.595	21606
856.729	21945
856.862	21895
856.996	21831
857.13	21953
857.263	21960
857.397	21915
857.53	21701
857.664	21857
857.797	21850
857.931	21968
858.064	21930
858.197	21884
858.331	21804
858.464	21694
858.597	21797
858.731	21797
858.864	21816
858.997	21876
859.13	21888
859.263	21934
859.396	21918
859.529	21728
859.662	21835
859.795	21884
859.928	21911
860.061	21800
860.194	21949
860.327	21838
860.46	21865
860.592	21895
860.725	22059
860.858	21827
860.99	21918
861.123	21739
861.256	21762
861.388	21778
861.521	22478
861.653	21690
861.786	21603
861.918	21660
862.05	21743
862.183	21728
862.315	21663
862.447	21819
862.58	21648
862.712	21549
862.844	21542
862.976	21564
863.108	21663
863.24	21907
863.372	21595
863.504	21435
863.636	21564
863.768	21416
863.9	21679
864.032	21473
864.164	21526
864.296	21561
864.428	21599
864.559	21698
864.691	21618
864.823	21523
864.954	21618
865.086	21492
865.217	21386
865.349	21329
865.48	21420
865.612	21466
865.743	21603
865.875	21496
866.006	21389
866.137	21408
866.269	21340
866.4	21428
866.531	21481
866.662	21325
866.793	21332
866.924	21405
867.055	21500
867.186	21378
867.317	21283
867.448	21329
867.579	21363
867.71	21348
867.841	21325
867.972	21310
868.103	21340
868.233	21325
868.364	21313
868.495	21355
868.625	21587
868.756	21713
868.886	21488
869.017	21622
869.147	21614
869.278	21747
869.408	21557
869.539	21576
869.669	21622
869.799	21663
869.929	21686
870.06	21797
870.19	21865
870.32	21949
870.45	22002
870.58	21983
870.71	22257
870.84	22185
870.97	21911
871.1	21861
871.23	22112
871.36	22116
871.489	22101
871.619	22242
871.749	22143
871.879	22185
872.008	22318
872.138	22253
872.267	22211
872.397	22105
872.526	22162
872.656	22188
872.785	22048
872.915	22280
873.044	22276
873.173	22154
873.303	22207
873.432	22303
873.561	22276
873.69	22268
873.819	22215
873.948	22337
874.077	22192
874.206	22192
874.335	22131
874.464	22280
874.593	22436
874.722	22500
874.851	22569
874.979	22493
875.108	22512
875.237	22314
875.365	22310
875.494	22352
875.623	22523
875.751	22382
875.88	22432
876.008	22580
876.136	22489
876.265	22801
876.393	22877
876.521	22839
876.65	22736
876.778	22805
876.906	22717
877.034	22729
877.162	22919
877.29	22653
877.418	22885
877.546	22774
877.674	22843
877.802	22782
877.93	22698
878.058	22828
878.185	22668
878.313	22698
878.441	22824
878.568	22634
878.696	22744
878.824	22824
878.951	22717
879.079	22911
879.206	23117
879.333	22984
879.461	22778
879.588	22877
879.715	22965
879.842	22942
879.97	22915
880.097	22649
880.224	22474
880.351	22519
880.478	22611
880.605	22717
880.732	22622
880.859	22820
880.986	22481
881.112	22603
881.239	22466
881.366	22333
881.493	22246
881.619	22150
881.746	22109
881.872	22242
881.999	22059
882.125	22048
882.252	22120
882.378	22131
882.505	22177
882.631	21941
882.757	21873
882.883	22051
883.01	21831
883.136	21728
883.262	21755
883.388	21660
883.514	21934
883.64	21869
883.766	21720
883.892	21690
884.018	21580
884.143	21633
884.269	21892
884.395	21492
884.52	21447
884.646	21526
884.772	21378
884.897	21477
885.023	21500
885.148	21637
885.274	21652
885.399	21599
885.524	21420
885.65	21511
885.775	21481
885.9	21462
886.025	21545
886.15	21599
886.275	21336
886.4	21401
886.525	21450
886.65	21408
886.775	21447
886.9	21625
887.025	21622
887.149	21481
887.274	21370
887.399	21272
887.523	21214
887.648	21176
887.773	21233
887.897	21275
888.021	21222
888.146	21161
888.27	21241
888.395	21340
888.519	21150
888.643	21268
888.767	21336
888.891	21192
889.015	21154
889.139	21100
889.263	21047
889.387	21135
889.511	21188
889.635	21287
889.759	21146
889.883	20887
890.006	21112
890.13	21085
890.254	20986
890.377	20819
890.501	20830
890.624	20754
890.748	20830
890.871	20678
890.995	20651
891.118	20499
891.241	20648
891.364	20617
891.488	20644
891.611	20606
891.734	20617
891.857	20686
891.98	20549
892.103	20606
892.226	20533
892.349	20526
892.471	20317
892.594	20469
892.717	20503
892.839	20526
892.962	20549
893.085	20659
893.207	20469
893.33	20423
893.452	20457
893.575	20606
893.697	20438
893.819	20552
893.941	20765
894.064	20587
894.186	20377
894.308	20526
894.43	20518
894.552	20632
894.674	20541
894.796	20377
894.918	20438
895.04	20450
895.161	20644
895.283	20568
895.405	20393
895.526	20484
895.648	20492
895.769	20499
895.891	20499
896.012	20511
896.134	20473
896.255	20484
896.376	20492
896.498	20514
896.619	20461
896.74	20415
896.861	20427
896.982	20750
897.103	20956
897.224	20944
897.345	20598
897.466	20720
897.587	20754
897.708	20788
897.828	20609
897.949	20693
898.07	20488
898.19	20777
898.311	20701
898.431	20606
898.552	20648
898.672	20716
898.792	20785
898.913	20693
899.033	20682
899.153	20415
899.273	20347
899.393	20503
899.513	20480
899.633	20374
899.753	20492
899.873	20305
899.993	20499
900.113	20381
900.232	20427
900.352	20259
900.472	20168
900.591	20221
900.711	20149
900.83	20149
900.95	20225
901.069	20328
901.189	20138
901.308	19890
901.427	19693
901.546	19807
901.665	19803
901.784	19871
901.904	19601
902.023	19597
902.141	19434
902.26	19324
902.379	19350
902.498	19289
902.617	19228
902.735	19168
902.854	19346
902.973	19244
903.091	18943
903.21	18897
903.328	18977
903.446	18882
903.565	18840
903.683	18760
903.801	18669
903.919	18764
904.038	18707
904.156	18585
904.274	18540
904.392	18437
904.51	18620
904.627	18502
904.745	18540
904.863	18623
904.981	18296
905.098	18243
905.216	18182
905.334	18247
905.451	18216
905.569	18289
905.686	18277
905.803	18220
905.921	18003
906.038	18110
906.155	18038
906.272	17786
906.389	17988
906.506	17710
906.623	17802
906.74	17657
906.857	17589
906.974	17661
907.091	17767
907.208	17767
907.324	17760
907.441	17566
907.557	17448
907.674	17452
907.79	17364
907.907	17410
908.023	17421
908.139	17292
908.256	17360
908.372	17334
908.488	17284
908.604	17231
908.72	17193
908.836	17170
908.952	17147
909.068	17166
909.184	17334
909.3	17045
909.415	17178
909.531	17121
909.647	16831
909.762	16923
909.878	16942
909.993	16934
910.108	16774
910.224	16828
910.339	16881
910.454	16740
910.57	16679
910.685	16546
910.8	16847
910.915	16820
911.03	16687
911.145	16481
911.259	16443
911.374	16462
911.489	16268
911.604	16299
911.718	16128
911.833	16272
911.947	16143
912.062	16010
912.176	16185
912.291	16086
912.405	16105
912.519	16363
912.633	16413
912.748	16265
912.862	16158
912.976	16036
913.09	15968
913.204	15949
913.318	15964
913.431	16078
913.545	16124
913.659	16147
913.772	15846
913.886	15865
914	15831
914.113	15857
914.226	15869
914.34	15800
914.453	15755
914.566	15831
914.68	15679
914.793	15652
914.906	15542
915.019	15466
915.132	15306
915.245	15485
915.358	15405
915.47	15466
915.583	15405
915.696	15488
915.809	15545
915.921	15458
916.034	15310
916.146	15325
916.259	15351
916.371	15439
916.483	15317
916.595	15211
916.708	15222
916.82	15173
916.932	15138
917.044	15218
917.156	15188
917.268	15013
917.38	15051
917.491	15070
917.603	15074
917.715	15055
917.826	15085
917.938	14956
918.049	14906
918.161	14994
918.272	15100
918.384	15131
918.495	15005
918.606	14788
918.717	14765
918.828	14826
918.939	14918
919.05	14632
919.161	14815
919.272	14598
919.383	14678
919.494	14724
919.604	14960
919.715	14724
919.826	14640
919.936	14773
920.047	14891
920.157	14674
920.267	14979
920.378	14705
920.488	14686
920.598	14929
920.708	15097
920.818	14880
920.928	14887
921.038	15093
921.148	14929
921.258	14693
921.368	14598
921.477	14412
921.587	14457
921.697	14442
921.806	14438
921.916	14336
922.025	14229
922.134	14100
922.244	14050
922.353	14134
922.462	14100
922.571	13997
922.68	13826
922.789	13822
922.898	13708
923.007	13643
923.116	13814
923.224	13750
923.333	13765
923.442	13620
923.55	13556
923.659	13594
923.767	13563
923.876	13529
923.984	13586
924.092	13301
924.201	13567
924.309	13525
924.417	13533
924.525	13468
924.633	13354
924.741	14298
924.849	13194
924.956	13350
925.064	13244
925.172	13164
925.279	13198
925.387	13149
925.494	13152
925.602	13270
925.709	13190
925.816	13084
925.924	13152
926.031	13141
926.138	13091
926.245	13084
926.352	12916
926.459	13187
926.566	13149
926.673	12996
926.779	12916
926.886	12924
926.993	12768
927.099	12726
927.206	12631
927.312	12650
927.419	12806
927.525	12776
927.631	12681
927.737	12593
927.843	12608
927.95	12467
928.056	12460
928.162	12559
928.267	12604
928.373	13145
928.479	12601
928.585	12369
928.69	12452
928.796	12536
928.901	12456
929.007	12243
929.112	12403
929.218	12277
929.323	12220
929.428	12262
929.533	12429
929.638	12144
929.743	12220
929.848	12235
929.953	12171
930.058	12049
930.163	11874
930.267	12015
930.372	12038
930.477	11885
930.581	12079
930.685	12083
930.79	11745
930.894	11767
930.998	11889
931.103	11904
931.207	11615
931.311	11528
931.415	11463
931.519	11181
931.623	11151
