Data from test_V78500241_2219.txt Node
Date: Fri Mar 25 15:25:18 CST 2022
User: usil
Spectrometer: V785-0024
Trigger mode: 0
Integration Time (sec): 4.000000E-1
Scans to average: 1
Nonlinearity correction enabled: false
Boxcar width: 0
Storing dark spectrum: false
XAxis mode: Wavelengths
Number of Pixels in Spectrum: 1024
>>>>>Begin Spectral Data<<<<<
801.071	27789
801.214	27743
801.356	27595
801.499	27462
801.641	27351
801.783	27462
801.926	27408
802.068	27275
802.211	27329
802.353	27306
802.496	27214
802.638	26979
802.78	26967
802.923	26819
803.065	26899
803.208	26971
803.35	26914
803.492	27062
803.635	27302
803.777	27173
803.919	27233
804.061	27431
804.204	27283
804.346	27142
804.488	27096
804.63	27150
804.773	27089
804.915	27241
805.057	27237
805.199	27237
805.341	27199
805.483	27283
805.626	27325
805.768	27199
805.91	27348
806.052	27382
806.194	27226
806.336	27298
806.478	27348
806.62	27329
806.762	27660
806.904	27660
807.046	27835
807.188	27766
807.33	27854
807.472	27880
807.614	27736
807.756	27770
807.898	27610
808.04	27614
808.182	27682
808.324	27595
808.465	27576
808.607	27907
808.749	27918
808.891	27941
809.033	27934
809.174	27949
809.316	27907
809.458	27914
809.6	27983
809.741	28059
809.883	28093
810.025	28417
810.166	28265
810.308	28303
810.45	28249
810.591	28192
810.733	27972
810.875	28044
811.016	27701
811.158	27926
811.299	28036
811.441	28086
811.582	28040
811.724	28006
811.865	27888
812.007	27949
812.148	27934
812.29	27831
812.431	28093
812.573	28352
812.714	28367
812.855	28459
812.997	28535
813.138	28691
813.279	28573
813.421	28386
813.562	28421
813.703	28462
813.845	28246
813.986	27930
814.127	27797
814.268	27690
814.41	27701
814.551	27671
814.692	27713
814.833	27671
814.974	27644
815.115	27778
815.256	27545
815.397	27648
815.539	27606
815.68	27488
815.821	27313
815.962	27534
816.103	27519
816.244	27363
816.385	27211
816.526	27306
816.666	27116
816.807	26845
816.948	26944
817.089	27138
817.23	26982
817.371	26899
817.512	26883
817.653	26990
817.793	26952
817.934	26853
818.075	26975
818.216	26986
818.356	26910
818.497	26845
818.638	26743
818.778	26613
818.919	26636
819.06	26739
819.2	26857
819.341	27013
819.481	26960
819.622	27165
819.762	27241
819.903	27211
820.043	27096
820.184	27055
820.324	27085
820.465	27077
820.605	27043
820.746	26940
820.886	26910
821.026	26998
821.167	26887
821.307	27104
821.447	26929
821.588	26902
821.728	26773
821.868	26522
822.008	26526
822.149	26469
822.289	26412
822.429	26309
822.569	26069
822.709	26081
822.849	25887
822.99	25833
823.13	25864
823.27	25830
823.41	25772
823.55	25601
823.69	25723
823.83	25693
823.97	25689
824.11	25567
824.25	25422
824.389	25597
824.529	25586
824.669	25521
824.809	25639
824.949	25563
825.089	25712
825.228	25655
825.368	25403
825.508	25540
825.648	25362
825.787	25441
825.927	25510
826.067	25426
826.206	25270
826.346	25312
826.485	25411
826.625	25297
826.765	25487
826.904	25563
827.044	25156
827.183	25038
827.323	25103
827.462	25187
827.601	25160
827.741	25031
827.88	25107
828.02	25012
828.159	25057
828.298	25080
828.437	25179
828.577	24958
828.716	25289
828.855	25034
828.994	24852
829.134	24802
829.273	24840
829.412	24837
829.551	24745
829.69	24665
829.829	24817
829.968	24924
830.107	24909
830.246	24894
830.385	24715
830.524	24677
830.663	24635
830.802	24513
830.941	24467
831.08	24414
831.219	24578
831.357	24540
831.496	24593
831.635	24486
831.774	24346
831.913	24224
832.051	24186
832.19	24372
832.329	24182
832.467	24148
832.606	24076
832.744	24102
832.883	24038
833.022	24015
833.16	24106
833.299	24129
833.437	23950
833.576	24228
833.714	24251
833.852	24197
833.991	24232
834.129	24308
834.267	24201
834.406	24148
834.544	24251
834.682	24121
834.821	24205
834.959	24292
835.097	24194
835.235	24209
835.373	24220
835.511	24129
835.65	23999
835.788	23897
835.926	23859
836.064	23722
836.202	23863
836.34	24018
836.478	24030
836.615	23859
836.753	23836
836.891	24190
837.029	23939
837.167	23874
837.305	23901
837.443	23851
837.58	23802
837.718	23889
837.856	23657
837.993	23821
838.131	23741
838.269	23619
838.406	23680
838.544	23630
838.681	23471
838.819	23315
838.956	23383
839.094	23311
839.231	23220
839.369	23421
839.506	23760
839.643	23634
839.781	23345
839.918	23311
840.055	23277
840.193	23277
840.33	23178
840.467	23258
840.604	23265
840.742	23391
840.879	23178
841.016	23041
841.153	23162
841.29	23368
841.427	23170
841.564	23113
841.701	23128
841.838	23159
841.975	23048
842.112	23102
842.249	23033
842.385	22995
842.522	23200
842.659	22923
842.796	22881
842.933	23025
843.069	22934
843.206	22892
843.343	23029
843.479	22927
843.616	22915
843.752	22729
843.889	22759
844.025	22831
844.162	22656
844.298	22915
844.435	22740
844.571	22755
844.708	22740
844.844	22911
844.98	22717
845.117	22866
845.253	22653
845.389	22497
845.525	22588
845.661	22489
845.798	22462
845.934	22538
846.07	22493
846.206	22512
846.342	22577
846.478	22440
846.614	22329
846.75	22177
846.886	22143
847.022	22257
847.158	22192
847.294	22192
847.429	22143
847.565	22246
847.701	22382
847.837	21918
847.972	21975
848.108	21892
848.244	22097
848.379	21808
848.515	21762
848.65	21770
848.786	21709
848.921	21766
849.057	21785
849.192	21717
849.328	21816
849.463	21762
849.598	21812
849.734	21618
849.869	21576
850.004	21572
850.14	21515
850.275	21580
850.41	21397
850.545	21458
850.68	21458
850.815	21667
850.95	21488
851.085	21679
851.22	21614
851.355	21583
851.49	21618
851.625	21420
851.76	21488
851.895	21374
852.03	21302
852.165	21450
852.299	21568
852.434	21641
852.569	21576
852.703	21553
852.838	21587
852.973	21667
853.107	21576
853.242	21519
853.376	21469
853.511	21222
853.645	21245
853.78	21519
853.914	21268
854.048	21287
854.183	21408
854.317	21344
854.451	21580
854.585	21408
854.72	21386
854.854	21428
854.988	21306
855.122	21306
855.256	21298
855.39	21306
855.524	21389
855.658	21351
855.792	21298
855.926	21233
856.06	21405
856.194	21526
856.327	21298
856.461	21249
856.595	21283
856.729	21344
856.862	21431
856.996	21264
857.13	21530
857.263	21420
857.397	21355
857.53	21359
857.664	21332
857.797	21416
857.931	21473
858.064	21306
858.197	21557
858.331	21466
858.464	21294
858.597	21283
858.731	21302
858.864	21351
858.997	21428
859.13	21485
859.263	21405
859.396	21481
859.529	21370
859.662	21359
859.795	21298
859.928	21393
860.061	21564
860.194	21515
860.327	21378
860.46	21336
860.592	21523
860.725	21523
860.858	21477
860.99	21401
861.123	21150
861.256	21469
861.388	21291
861.521	22010
861.653	21287
861.786	21123
861.918	21089
862.05	21237
862.183	21344
862.315	21252
862.447	21393
862.58	21329
862.712	21138
862.844	20944
862.976	21066
863.108	21142
863.24	21492
863.372	20960
863.504	21074
863.636	21108
863.768	21104
863.9	21070
864.032	21173
864.164	21005
864.296	20990
864.428	21249
864.559	21089
864.691	21108
864.823	21173
864.954	21005
865.086	20982
865.217	20960
865.349	20880
865.48	20895
865.612	20826
865.743	21218
865.875	20960
866.006	20872
866.137	20830
866.269	20979
866.4	21024
866.531	20990
866.662	20899
866.793	20933
866.924	20895
867.055	20902
867.186	20918
867.317	20792
867.448	20830
867.579	20743
867.71	20716
867.841	20743
867.972	20826
868.103	20876
868.233	20918
868.364	20967
868.495	20914
868.625	21085
868.756	21237
868.886	21017
869.017	21032
869.147	21214
869.278	21214
869.408	21142
869.539	21123
869.669	21165
869.799	21184
869.929	21226
870.06	21176
870.19	21454
870.32	21374
870.45	21526
870.58	21481
870.71	21504
870.84	21583
870.97	21553
871.1	21526
871.23	21606
871.36	21663
871.489	21675
871.619	21690
871.749	21732
871.879	21652
872.008	21755
872.138	21781
872.267	21804
872.397	21466
872.526	21614
872.656	21542
872.785	21469
872.915	21648
873.044	21831
873.173	21667
873.303	21728
873.432	21778
873.561	21781
873.69	21789
873.819	21728
873.948	21838
874.077	21762
874.206	21675
874.335	21686
874.464	21846
874.593	21968
874.722	21819
874.851	22086
874.979	21930
875.108	22010
875.237	21915
875.365	21759
875.494	21918
875.623	22158
875.751	21888
875.88	21926
876.008	22090
876.136	22135
876.265	22417
876.393	22424
876.521	22417
876.65	22394
876.778	22322
876.906	22371
877.034	22344
877.162	22382
877.29	22272
877.418	22352
877.546	22284
877.674	22284
877.802	22249
877.93	22276
878.058	22375
878.185	22215
878.313	22185
878.441	22177
878.568	22204
878.696	22238
878.824	22291
878.951	22310
879.079	22527
879.206	22645
879.333	22310
879.461	22481
879.588	22363
879.715	22402
879.842	22542
879.97	22337
880.097	22154
880.224	22101
880.351	22109
880.478	22120
880.605	22051
880.732	22131
880.859	22436
880.986	22215
881.112	22192
881.239	22040
881.366	21816
881.493	21755
881.619	21660
881.746	21766
881.872	21713
881.999	21694
882.125	21572
882.252	21766
882.378	21682
882.505	21770
882.631	21561
882.757	21428
882.883	21397
883.01	21477
883.136	21431
883.262	21283
883.388	21146
883.514	21401
883.64	21431
883.766	21355
883.892	21230
884.018	21294
884.143	21355
884.269	21477
884.395	21146
884.52	21070
884.646	21085
884.772	20998
884.897	20952
885.023	20998
885.148	21184
885.274	21176
885.399	21176
885.524	20891
885.65	21043
885.775	21104
885.9	21013
886.025	21096
886.15	21142
886.275	21093
886.4	20975
886.525	21047
886.65	20944
886.775	20937
886.9	21116
887.025	21275
887.149	21081
887.274	20819
887.399	20769
887.523	20746
887.648	20800
887.773	20724
887.897	20861
888.021	20948
888.146	20674
888.27	20891
888.395	20849
888.519	20838
888.643	20823
888.767	20857
888.891	20693
889.015	20575
889.139	20716
889.263	20518
889.387	20716
889.511	20941
889.635	20689
889.759	20583
889.883	20598
890.006	20640
890.13	20701
890.254	20594
890.377	20549
890.501	20488
890.624	20305
890.748	20366
890.871	20263
890.995	20214
891.118	20286
891.241	20187
891.364	20248
891.488	20389
891.611	20073
891.734	20183
891.857	20214
891.98	20240
892.103	20202
892.226	20180
892.349	20157
892.471	19997
892.594	20142
892.717	20050
892.839	20020
892.962	20100
893.085	20244
893.207	20069
893.33	19921
893.452	20046
893.575	20180
893.697	20088
893.819	20229
893.941	20332
894.064	20278
894.186	20081
894.308	20008
894.43	20263
894.552	20240
894.674	20176
894.796	19978
894.918	19951
895.04	20054
895.161	20084
895.283	20119
895.405	20020
895.526	20043
895.648	20050
895.769	20111
895.891	20103
896.012	20119
896.134	20240
896.255	20115
896.376	19993
896.498	20088
896.619	20145
896.74	20081
896.861	20081
896.982	20366
897.103	20552
897.224	20301
897.345	20259
897.466	20278
897.587	20172
897.708	20442
897.828	20347
897.949	20362
898.07	20130
898.19	20301
898.311	20339
898.431	20244
898.552	20218
898.672	20484
898.792	20339
898.913	20332
899.033	20191
899.153	20111
899.273	19978
899.393	20096
899.513	20103
899.633	20092
899.753	20065
899.873	20092
899.993	20031
900.113	20012
900.232	19978
900.352	20024
900.472	19951
900.591	19841
900.711	19772
900.83	19795
900.95	19921
901.069	19902
901.189	19632
901.308	19594
901.427	19537
901.546	19400
901.665	19476
901.784	19407
901.904	19285
902.023	19187
902.141	18928
902.26	18878
902.379	18985
902.498	18943
902.617	18905
902.735	19031
902.854	18939
902.973	18776
903.091	18658
903.21	18483
903.328	18578
903.446	18642
903.565	18388
903.683	18311
903.801	18311
903.919	18270
904.038	18334
904.156	18095
904.274	18213
904.392	18140
904.51	18197
904.627	18270
904.745	18148
904.863	18178
904.981	18049
905.098	17840
905.216	17699
905.334	17851
905.451	17942
905.569	17760
905.686	17840
905.803	17923
905.921	17562
906.038	17729
906.155	17653
906.272	17528
906.389	17634
906.506	17505
906.623	17429
906.74	17402
906.857	17341
906.974	17299
907.091	17356
907.208	17539
907.324	17429
907.441	17341
907.557	17181
907.674	17151
907.79	17128
907.907	17094
908.023	17033
908.139	17079
908.256	17079
908.372	17045
908.488	16961
908.604	16869
908.72	16698
908.836	16881
908.952	16797
909.068	16869
909.184	16858
909.3	16881
909.415	16854
909.531	16828
909.647	16580
909.762	16455
909.878	16478
909.993	16504
910.108	16573
910.224	16588
910.339	16451
910.454	16394
910.57	16341
910.685	16314
910.8	16573
910.915	16409
911.03	16272
911.145	16147
911.259	16116
911.374	16173
911.489	16071
911.604	15975
911.718	15789
911.833	15861
911.947	15709
912.062	15576
912.176	15800
912.291	15785
912.405	15835
912.519	15956
912.633	15842
912.748	15846
912.862	15850
912.976	15728
913.09	15572
913.204	15648
913.318	15751
913.431	15686
913.545	15682
913.659	15781
913.772	15580
913.886	15507
914	15420
914.113	15542
914.226	15469
914.34	15625
914.453	15363
914.566	15462
914.68	15435
914.793	15348
914.906	15142
915.019	15157
915.132	15108
915.245	15150
915.358	15135
915.47	15039
915.583	15062
915.696	15138
915.809	15104
915.921	15241
916.034	15051
916.146	14975
916.259	15005
916.371	15089
916.483	15070
916.595	14842
916.708	14979
916.82	14857
916.932	14864
917.044	14739
917.156	14872
917.268	14701
917.38	14746
917.491	14648
917.603	14796
917.715	14754
917.826	14819
917.938	14689
918.049	14621
918.161	14674
918.272	14769
918.384	14678
918.495	14636
918.606	14400
918.717	14457
918.828	14579
918.939	14625
919.05	14404
919.161	14431
919.272	14362
919.383	14282
919.494	14537
919.604	14640
919.715	14503
919.826	14442
919.936	14404
920.047	14518
920.157	14514
920.267	14602
920.378	14480
920.488	14366
920.598	14648
920.708	14663
920.818	14610
920.928	14594
921.038	14785
921.148	14670
921.258	14412
921.368	14389
921.477	14142
921.587	14244
921.697	13982
921.806	14168
921.916	14145
922.025	13940
922.134	13814
922.244	13769
922.353	13913
922.462	13788
922.571	13578
922.68	13495
922.789	13552
922.898	13441
923.007	13407
923.116	13514
923.224	13495
923.333	13518
923.442	13377
923.55	13251
923.659	13289
923.767	13362
923.876	13285
923.984	13422
924.092	13266
924.201	13217
924.309	13263
924.417	13244
924.525	13091
924.633	13187
924.741	13970
924.849	12996
924.956	13076
925.064	12954
925.172	12829
925.279	12932
925.387	12867
925.494	12939
925.602	12954
925.709	12954
925.816	12844
925.924	12852
926.031	12867
926.138	12848
926.245	12859
926.352	12749
926.459	12863
926.566	12981
926.673	12779
926.779	12673
926.886	12574
926.993	12445
927.099	12483
927.206	12410
927.312	12391
927.419	12494
927.525	12506
927.631	12513
927.737	12285
927.843	12243
927.95	12239
928.056	12243
928.162	12308
928.267	12342
928.373	12878
928.479	12403
928.585	12159
928.69	12224
928.796	12304
928.901	12064
929.007	11984
929.112	12110
929.218	12098
929.323	12034
929.428	11969
929.533	12224
929.638	11912
929.743	11942
929.848	12007
929.953	12019
930.058	11855
930.163	11668
930.267	11741
930.372	11843
930.477	11672
930.581	11855
930.685	11722
930.79	11695
930.894	11551
930.998	11570
931.103	11684
931.207	11322
931.311	11246
931.415	11208
931.519	10953
931.623	11010
