Data from test_V78500241_60.txt Node
Date: Fri Mar 25 15:10:16 CST 2022
User: usil
Spectrometer: V785-0024
Trigger mode: 0
Integration Time (sec): 4.000000E-1
Scans to average: 1
Nonlinearity correction enabled: false
Boxcar width: 0
Storing dark spectrum: false
XAxis mode: Wavelengths
Number of Pixels in Spectrum: 1024
>>>>>Begin Spectral Data<<<<<
801.071	28569
801.214	28512
801.356	28417
801.499	28329
801.641	28158
801.783	28265
801.926	28284
802.068	28078
802.211	27903
802.353	28173
802.496	27816
802.638	27808
802.78	27827
802.923	27641
803.065	27656
803.208	27850
803.35	27724
803.492	27907
803.635	27953
803.777	27892
803.919	28036
804.061	28424
804.204	28036
804.346	27876
804.488	27736
804.63	27759
804.773	27614
804.915	27854
805.057	27914
805.199	27827
805.341	27953
805.483	28116
805.626	27934
805.768	27842
805.91	27972
806.052	28036
806.194	28002
806.336	28074
806.478	27808
806.62	27888
806.762	28032
806.904	28101
807.046	28257
807.188	28276
807.33	28188
807.472	28409
807.614	28356
807.756	28356
807.898	28082
808.04	28048
808.182	28147
808.324	28097
808.465	27941
808.607	28147
808.749	28299
808.891	28436
809.033	28569
809.174	28508
809.316	28394
809.458	28413
809.6	28440
809.741	28436
809.883	28554
810.025	28668
810.166	28550
810.308	28721
810.45	28603
810.591	28580
810.733	28546
810.875	28360
811.016	28394
811.158	28219
811.299	28207
811.441	28455
811.582	28466
811.724	28322
811.865	28230
812.007	28318
812.148	28405
812.29	28428
812.431	28459
812.573	28668
812.714	28706
812.855	28767
812.997	28961
813.138	29029
813.279	28972
813.421	28809
813.562	28843
813.703	28523
813.845	28489
813.986	28287
814.127	28147
814.268	27983
814.41	27956
814.551	28082
814.692	28120
814.833	27823
814.974	27937
815.115	27914
815.256	27797
815.397	27705
815.539	27660
815.68	27785
815.821	27690
815.962	27720
816.103	27701
816.244	27382
816.385	27408
816.526	27412
816.666	27165
816.807	27100
816.948	27233
817.089	27142
817.23	27146
817.371	27116
817.512	27047
817.653	27043
817.793	26925
817.934	27085
818.075	27119
818.216	26986
818.356	26956
818.497	26967
818.638	26750
818.778	26769
818.919	26735
819.06	26807
819.2	26960
819.341	26788
819.481	26883
819.622	26929
819.762	27279
819.903	27199
820.043	27135
820.184	27138
820.324	27043
820.465	27020
820.605	26918
820.746	26990
820.886	26857
821.026	26838
821.167	26868
821.307	27039
821.447	26975
821.588	26834
821.728	26754
821.868	26560
822.008	26393
822.149	26564
822.289	26404
822.429	26199
822.569	26058
822.709	26054
822.849	25875
822.99	25887
823.13	25757
823.27	25784
823.41	25609
823.55	25578
823.69	25685
823.83	25616
823.97	25594
824.11	25415
824.25	25472
824.389	25438
824.529	25548
824.669	25453
824.809	25506
824.949	25601
825.089	25457
825.228	25582
825.368	25278
825.508	25175
825.648	25369
825.787	25289
825.927	25251
826.067	25148
826.206	25209
826.346	25316
826.485	25266
826.625	25240
826.765	25445
826.904	25171
827.044	24992
827.183	25012
827.323	24863
827.462	24989
827.601	24977
827.741	24924
827.88	24954
828.02	24821
828.159	24848
828.298	24878
828.437	25072
828.577	24825
828.716	24954
828.855	24859
828.994	24696
829.134	24623
829.273	24719
829.412	24544
829.551	24582
829.69	24597
829.829	24528
829.968	24631
830.107	24688
830.246	24525
830.385	24616
830.524	24399
830.663	24323
830.802	24224
830.941	24258
831.08	24167
831.219	24159
831.357	24186
831.496	24361
831.635	24114
831.774	24079
831.913	24155
832.051	23958
832.19	24015
832.329	23973
832.467	23779
832.606	23676
832.744	23965
832.883	23794
833.022	23794
833.16	23752
833.299	23726
833.437	23847
833.576	23851
833.714	23752
833.852	23882
833.991	23798
834.129	23901
834.267	23935
834.406	23752
834.544	23733
834.682	23805
834.821	23779
834.959	23775
835.097	23843
835.235	23794
835.373	23783
835.511	23745
835.65	23585
835.788	23615
835.926	23421
836.064	23383
836.202	23410
836.34	23604
836.478	23710
836.615	23619
836.753	23558
836.891	23665
837.029	23577
837.167	23570
837.305	23482
837.443	23490
837.58	23417
837.718	23459
837.856	23406
837.993	23448
838.131	23490
838.269	23299
838.406	23239
838.544	23299
838.681	23174
838.819	23071
838.956	22919
839.094	22965
839.231	22919
839.369	23075
839.506	23284
839.643	23041
839.781	22790
839.918	22809
840.055	22831
840.193	22786
840.33	22790
840.467	22835
840.604	22930
840.742	23033
840.879	22641
841.016	22664
841.153	22615
841.29	22862
841.427	22812
841.564	22713
841.701	22687
841.838	22626
841.975	22607
842.112	22580
842.249	22626
842.385	22394
842.522	22573
842.659	22485
842.796	22436
842.933	22421
843.069	22402
843.206	22428
843.343	22500
843.479	22485
843.616	22436
843.752	22177
843.889	22181
844.025	22268
844.162	22223
844.298	22325
844.435	22143
844.571	22063
844.708	22124
844.844	22268
844.98	22295
845.117	22451
845.253	22181
845.389	22090
845.525	21949
845.661	22032
845.798	21907
845.934	21937
846.07	21846
846.206	21991
846.342	21991
846.478	21781
846.614	21667
846.75	21481
846.886	21614
847.022	21682
847.158	21591
847.294	21648
847.429	21622
847.565	21488
847.701	21747
847.837	21374
847.972	21317
848.108	21397
848.244	21359
848.379	21184
848.515	21119
848.65	21161
848.786	21135
848.921	21123
849.057	21192
849.192	21329
849.328	21203
849.463	21233
849.598	21066
849.734	21089
849.869	21005
850.004	21036
850.14	20914
850.275	20864
850.41	20830
850.545	20800
850.68	20861
850.815	20880
850.95	20967
851.085	21081
851.22	20971
851.355	20861
851.49	20857
851.625	20785
851.76	20807
851.895	20743
852.03	20705
852.165	20758
852.299	20880
852.434	20887
852.569	20819
852.703	20994
852.838	20994
852.973	20967
853.107	20819
853.242	20819
853.376	20568
853.511	20594
853.645	20621
853.78	20697
853.914	20655
854.048	20541
854.183	20590
854.317	20800
854.451	20804
854.585	20693
854.72	20644
854.854	20663
854.988	20507
855.122	20765
855.256	20511
855.39	20552
855.524	20724
855.658	20708
855.792	20727
855.926	20651
856.06	20769
856.194	20765
856.327	20670
856.461	20530
856.595	20594
856.729	20575
856.862	20773
856.996	20705
857.13	20731
857.263	20750
857.397	20750
857.53	20678
857.664	20583
857.797	20743
857.931	20853
858.064	20693
858.197	20804
858.331	20541
858.464	20594
858.597	20358
858.731	20518
858.864	20522
858.997	20609
859.13	20568
859.263	20686
859.396	20689
859.529	20609
859.662	20434
859.795	20495
859.928	20636
860.061	20636
860.194	20762
860.327	20705
860.46	20514
860.592	20720
860.725	20686
860.858	20663
860.99	20442
861.123	20556
861.256	20644
861.388	20613
861.521	21218
861.653	20503
861.786	20385
861.918	20294
862.05	20492
862.183	20613
862.315	20644
862.447	20663
862.58	20609
862.712	20355
862.844	20275
862.976	20594
863.108	20313
863.24	20716
863.372	20202
863.504	20206
863.636	20267
863.768	20218
863.9	20187
864.032	20054
864.164	20164
864.296	20355
864.428	20412
864.559	20294
864.691	20339
864.823	20282
864.954	20278
865.086	20290
865.217	20317
865.349	20168
865.48	20214
865.612	20138
865.743	20377
865.875	20149
866.006	20237
866.137	20164
866.269	20233
866.4	20214
866.531	20176
866.662	20054
866.793	20077
866.924	20153
867.055	20214
867.186	20180
867.317	20081
867.448	19951
867.579	20065
867.71	20084
867.841	19986
867.972	20054
868.103	20024
868.233	20142
868.364	20050
868.495	20126
868.625	20377
868.756	20309
868.886	20256
869.017	20362
869.147	20347
869.278	20374
869.408	20393
869.539	20290
869.669	20461
869.799	20332
869.929	20389
870.06	20484
870.19	20777
870.32	20625
870.45	20670
870.58	20743
870.71	20834
870.84	20857
870.97	20659
871.1	20621
871.23	20880
871.36	21051
871.489	20773
871.619	20868
871.749	20868
871.879	20876
872.008	20971
872.138	20883
872.267	20956
872.397	20724
872.526	20617
872.656	20670
872.785	20644
872.915	21058
873.044	21020
873.173	20883
873.303	21013
873.432	21013
873.561	21096
873.69	20979
873.819	20929
873.948	20845
874.077	21047
874.206	20914
874.335	21024
874.464	21169
874.593	21127
874.722	21096
874.851	21188
874.979	21222
875.108	21230
875.237	21154
875.365	21039
875.494	21195
875.623	21211
875.751	21104
875.88	21024
876.008	21355
876.136	21302
876.265	21595
876.393	21778
876.521	21694
876.65	21633
876.778	21530
876.906	21488
877.034	21538
877.162	21538
877.29	21408
877.418	21469
877.546	21530
877.674	21549
877.802	21466
877.93	21466
878.058	21408
878.185	21447
878.313	21523
878.441	21466
878.568	21412
878.696	21473
878.824	21526
878.951	21633
879.079	21774
879.206	21884
879.333	21682
879.461	21614
879.588	21564
879.715	21625
879.842	21797
879.97	21519
880.097	21279
880.224	21344
880.351	21287
880.478	21245
880.605	21252
880.732	21310
880.859	21606
880.986	21355
881.112	21416
881.239	21230
881.366	21081
881.493	21089
881.619	21077
881.746	21146
881.872	20994
881.999	20891
882.125	20853
882.252	20921
882.378	20925
882.505	21093
882.631	20796
882.757	20667
882.883	20823
883.01	20617
883.136	20602
883.262	20549
883.388	20575
883.514	20678
883.64	20746
883.766	20636
883.892	20621
884.018	20495
884.143	20629
884.269	20758
884.395	20545
884.52	20328
884.646	20377
884.772	20275
884.897	20218
885.023	20358
885.148	20434
885.274	20590
885.399	20393
885.524	20415
885.65	20347
885.775	20305
885.9	20305
886.025	20571
886.15	20328
886.275	20195
886.4	20259
886.525	20313
886.65	20286
886.775	20244
886.9	20347
887.025	20511
887.149	20294
887.274	20248
887.399	20069
887.523	20027
887.648	19989
887.773	19906
887.897	20233
888.021	20199
888.146	19967
888.27	20134
888.395	20153
888.519	20062
888.643	20084
888.767	20115
888.891	19978
889.015	19852
889.139	19898
889.263	19849
889.387	19982
889.511	20008
889.635	19936
889.759	19864
889.883	19811
890.006	19845
890.13	19982
890.254	19788
890.377	19700
890.501	19605
890.624	19647
890.748	19674
890.871	19559
890.995	19400
891.118	19324
891.241	19358
891.364	19472
891.488	19480
891.611	19468
891.734	19441
891.857	19518
891.98	19430
892.103	19445
892.226	19457
892.349	19384
892.471	19221
892.594	19441
892.717	19480
892.839	19384
892.962	19464
893.085	19491
893.207	19400
893.33	19255
893.452	19293
893.575	19422
893.697	19384
893.819	19510
893.941	19510
894.064	19381
894.186	19388
894.308	19145
894.43	19403
894.552	19514
894.674	19491
894.796	19152
894.918	19362
895.04	19343
895.161	19392
895.283	19419
895.405	19293
895.526	19274
895.648	19301
895.769	19396
895.891	19373
896.012	19464
896.134	19514
896.255	19392
896.376	19358
896.498	19415
896.619	19487
896.74	19373
896.861	19586
896.982	19700
897.103	19982
897.224	19708
897.345	19632
897.466	19559
897.587	19647
897.708	19791
897.828	19666
897.949	19586
898.07	19449
898.19	19457
898.311	19727
898.431	19518
898.552	19544
898.672	19658
898.792	19666
898.913	19514
899.033	19392
899.153	19350
899.273	19263
899.393	19316
899.513	19422
899.633	19266
899.753	19343
899.873	19304
899.993	19251
900.113	19259
900.232	19362
900.352	19263
900.472	19118
900.591	19103
900.711	19088
900.83	19091
900.95	19240
901.069	19270
901.189	18985
901.308	18806
901.427	18700
901.546	18715
901.665	18768
901.784	18905
901.904	18631
902.023	18612
902.141	18266
902.26	18243
902.379	18418
902.498	18304
902.617	18155
902.735	18304
902.854	18205
902.973	18076
903.091	17935
903.21	17920
903.328	17878
903.446	17893
903.565	17646
903.683	17710
903.801	17604
903.919	17649
904.038	17733
904.156	17516
904.274	17524
904.392	17520
904.51	17417
904.627	17516
904.745	17558
904.863	17566
904.981	17326
905.098	17143
905.216	17162
905.334	17273
905.451	17151
905.569	17140
905.686	17132
905.803	17200
905.921	16911
906.038	17083
906.155	16923
906.272	16786
906.389	16942
906.506	16649
906.623	16721
906.74	16573
906.857	16481
906.974	16653
907.091	16687
907.208	16862
907.324	16828
907.441	16603
907.557	16459
907.674	16474
907.79	16253
907.907	16325
908.023	16382
908.139	16375
908.256	16272
908.372	16158
908.488	16272
908.604	16097
908.72	16029
908.836	16082
908.952	15991
909.068	16109
909.184	16147
909.3	15991
909.415	16147
909.531	16082
909.647	15812
909.762	15835
909.878	15736
909.993	15819
910.108	15705
910.224	15747
910.339	15644
910.454	15667
910.57	15633
910.685	15488
910.8	15759
910.915	15675
911.03	15534
911.145	15401
911.259	15317
911.374	15344
911.489	15203
911.604	15329
911.718	15192
911.833	15116
911.947	14994
912.062	14960
912.176	15135
912.291	15051
912.405	15032
912.519	15218
912.633	15279
912.748	15100
912.862	15093
912.976	14872
913.09	14762
913.204	14834
913.318	14910
913.431	15024
913.545	14944
913.659	15020
913.772	14876
913.886	14796
914	14727
914.113	14849
914.226	14868
914.34	14826
914.453	14625
914.566	14807
914.68	14507
914.793	14602
914.906	14473
915.019	14339
915.132	14263
915.245	14393
915.358	14400
915.47	14423
915.583	14328
915.696	14355
915.809	14484
915.921	14499
916.034	14286
916.146	14286
916.259	14225
916.371	14347
916.483	14271
916.595	14138
916.708	14225
916.82	14168
916.932	14218
917.044	14145
917.156	14142
917.268	13989
917.38	14111
917.491	14020
917.603	14073
917.715	14062
917.826	14096
917.938	13947
918.049	13894
918.161	13974
918.272	14024
918.384	14168
918.495	14001
918.606	13795
918.717	13708
918.828	13818
918.939	13902
919.05	13636
919.161	13769
919.272	13647
919.383	13704
919.494	13822
919.604	13978
919.715	13734
919.826	13704
919.936	13681
920.047	13807
920.157	13791
920.267	13982
920.378	13856
920.488	13757
920.598	13925
920.708	13936
920.818	13887
920.928	13856
921.038	14073
921.148	14024
921.258	13734
921.368	13643
921.477	13491
921.587	13514
921.697	13453
921.806	13487
921.916	13312
922.025	13187
922.134	13110
922.244	13164
922.353	13259
922.462	13069
922.571	12947
922.68	12669
922.789	12738
922.898	12848
923.007	12631
923.116	12764
923.224	12669
923.333	12738
923.442	12555
923.55	12578
923.659	12620
923.767	12642
923.876	12563
923.984	12616
924.092	12448
924.201	12509
924.309	12555
924.417	12448
924.525	12448
924.633	12429
924.741	13255
924.849	12273
924.956	12437
925.064	12258
925.172	12258
925.279	12262
925.387	12232
925.494	12277
925.602	12292
925.709	12270
925.816	12163
925.924	12266
926.031	12247
926.138	12197
926.245	12292
926.352	12083
926.459	12167
926.566	12323
926.673	12167
926.779	11958
926.886	12022
926.993	11840
927.099	11775
927.206	11866
927.312	11805
927.419	11828
927.525	11824
927.631	11904
927.737	11672
927.843	11726
927.95	11615
928.056	11630
928.162	11680
928.267	11684
928.373	12361
928.479	11748
928.585	11528
928.69	11623
928.796	11573
928.901	11543
929.007	11356
929.112	11474
929.218	11562
929.323	11429
929.428	11376
929.533	11558
929.638	11433
929.743	11368
929.848	11299
929.953	11353
930.058	11220
930.163	11086
930.267	11060
930.372	11261
930.477	10972
930.581	11353
930.685	11090
930.79	10946
930.894	11029
930.998	10949
931.103	11060
931.207	10626
931.311	10584
931.415	10550
931.519	10443
931.623	10341
