Data from test_V78500241_1330.txt Node
Date: Fri Mar 25 15:19:06 CST 2022
User: usil
Spectrometer: V785-0024
Trigger mode: 0
Integration Time (sec): 4.000000E-1
Scans to average: 1
Nonlinearity correction enabled: false
Boxcar width: 0
Storing dark spectrum: false
XAxis mode: Wavelengths
Number of Pixels in Spectrum: 1024
>>>>>Begin Spectral Data<<<<<
801.071	28059
801.214	28002
801.356	27675
801.499	27523
801.641	27580
801.783	27439
801.926	27698
802.068	27401
802.211	27538
802.353	27367
802.496	27306
802.638	27169
802.78	27142
802.923	27150
803.065	26929
803.208	27066
803.35	27150
803.492	27260
803.635	27378
803.777	27245
803.919	27405
804.061	27739
804.204	27568
804.346	27370
804.488	27249
804.63	27386
804.773	27378
804.915	27416
805.057	27340
805.199	27450
805.341	27462
805.483	27660
805.626	27656
805.768	27408
805.91	27641
806.052	27431
806.194	27340
806.336	27549
806.478	27557
806.62	27606
806.762	27572
806.904	27907
807.046	28013
807.188	27934
807.33	27972
807.472	27960
807.614	27709
807.756	28097
807.898	27766
808.04	27827
808.182	27686
808.324	27926
808.465	27835
808.607	28135
808.749	28158
808.891	28185
809.033	28352
809.174	28143
809.316	28196
809.458	28230
809.6	28105
809.741	28173
809.883	28284
810.025	28523
810.166	28493
810.308	28462
810.45	28333
810.591	28443
810.733	28223
810.875	28219
811.016	28070
811.158	28109
811.299	28303
811.441	28341
811.582	28333
811.724	28021
811.865	28185
812.007	28109
812.148	28082
812.29	28101
812.431	28379
812.573	28531
812.714	28721
812.855	28839
812.997	28843
813.138	28896
813.279	28782
813.421	28759
813.562	28752
813.703	28478
813.845	28538
813.986	28166
814.127	27918
814.268	27892
814.41	28093
814.551	27903
814.692	27823
814.833	27884
814.974	27812
815.115	27941
815.256	27732
815.397	27762
815.539	27857
815.68	27633
815.821	27553
815.962	27781
816.103	27641
816.244	27545
816.385	27561
816.526	27367
816.666	27173
816.807	27306
816.948	27313
817.089	27249
817.23	27222
817.371	27264
817.512	27108
817.653	27154
817.793	27123
817.934	27123
818.075	27096
818.216	27233
818.356	27024
818.497	27123
818.638	26849
818.778	26864
818.919	27032
819.06	26971
819.2	27104
819.341	27108
819.481	27169
819.622	27268
819.762	27488
819.903	27545
820.043	27336
820.184	27313
820.324	27325
820.465	27272
820.605	27306
820.746	27245
820.886	27032
821.026	27321
821.167	27154
821.307	27321
821.447	27135
821.588	27039
821.728	27051
821.868	26800
822.008	26636
822.149	26583
822.289	26640
822.429	26564
822.569	26298
822.709	26343
822.849	26096
822.99	26149
823.13	26103
823.27	25997
823.41	25997
823.55	25788
823.69	25963
823.83	25811
823.97	25890
824.11	25780
824.25	25731
824.389	25757
824.529	25894
824.669	25818
824.809	25928
824.949	25955
825.089	25776
825.228	25746
825.368	25674
825.508	25723
825.648	25674
825.787	25753
825.927	25635
826.067	25616
826.206	25582
826.346	25666
826.485	25628
826.625	25696
826.765	25742
826.904	25605
827.044	25537
827.183	25400
827.323	25343
827.462	25426
827.601	25479
827.741	25377
827.88	25403
828.02	25415
828.159	25346
828.298	25358
828.437	25434
828.577	25358
828.716	25658
828.855	25377
828.994	25061
829.134	25027
829.273	25209
829.412	25046
829.551	24966
829.69	25042
829.829	25080
829.968	25282
830.107	25213
830.246	25110
830.385	25050
830.524	24913
830.663	24909
830.802	24798
830.941	24738
831.08	24696
831.219	24711
831.357	24719
831.496	24833
831.635	24661
831.774	24684
831.913	24540
832.051	24544
832.19	24540
832.329	24498
832.467	24467
832.606	24334
832.744	24319
832.883	24342
833.022	24361
833.16	24323
833.299	24357
833.437	24532
833.576	24525
833.714	24456
833.852	24479
833.991	24456
834.129	24494
834.267	24528
834.406	24471
834.544	24365
834.682	24456
834.821	24486
834.959	24566
835.097	24391
835.235	24578
835.373	24448
835.511	24391
835.65	24376
835.788	24338
835.926	24136
836.064	24091
836.202	24091
836.34	24216
836.478	24235
836.615	24292
836.753	24258
836.891	24319
837.029	24270
837.167	24281
837.305	24186
837.443	24133
837.58	24117
837.718	24148
837.856	24155
837.993	24022
838.131	24018
838.269	23878
838.406	23996
838.544	23942
838.681	23653
838.819	23767
838.956	23585
839.094	23558
839.231	23630
839.369	23748
839.506	23923
839.643	23817
839.781	23444
839.918	23505
840.055	23448
840.193	23505
840.33	23448
840.467	23433
840.604	23364
840.742	23878
840.879	23299
841.016	23425
841.153	23341
841.29	23600
841.427	23452
841.564	23406
841.701	23455
841.838	23372
841.975	23440
842.112	23440
842.249	23406
842.385	23159
842.522	23528
842.659	23265
842.796	23315
842.933	23212
843.069	23174
843.206	23254
843.343	23197
843.479	23261
843.616	23159
843.752	23048
843.889	23185
844.025	23143
844.162	23003
844.298	23056
844.435	22961
844.571	23029
844.708	22896
844.844	23090
844.98	23174
845.117	23029
845.253	22999
845.389	22892
845.525	22858
845.661	22892
845.798	22717
845.934	22740
846.07	22721
846.206	22656
846.342	22850
846.478	22702
846.614	22512
846.75	22421
846.886	22379
847.022	22531
847.158	22493
847.294	22542
847.429	22531
847.565	22424
847.701	22687
847.837	22124
847.972	22169
848.108	22318
848.244	22261
848.379	22055
848.515	22105
848.65	21979
848.786	22204
848.921	22139
849.057	22158
849.192	22124
849.328	22032
849.463	22051
849.598	22051
849.734	21911
849.869	22002
850.004	21762
850.14	21922
850.275	21911
850.41	21743
850.545	21774
850.68	21785
850.815	21724
850.95	21808
851.085	21956
851.22	21937
851.355	21797
851.49	21827
851.625	21816
851.76	21774
851.895	21911
852.03	21629
852.165	21766
852.299	21895
852.434	21960
852.569	21899
852.703	21774
852.838	21915
852.973	22029
853.107	21895
853.242	21857
853.376	21713
853.511	21458
853.645	21583
853.78	21751
853.914	21766
854.048	21686
854.183	21698
854.317	21694
854.451	21774
854.585	21717
854.72	21732
854.854	21652
854.988	21637
855.122	21690
855.256	21397
855.39	21583
855.524	21751
855.658	21717
855.792	21557
855.926	21770
856.06	21709
856.194	21690
856.327	21679
856.461	21545
856.595	21595
856.729	21629
856.862	21644
856.996	21641
857.13	21644
857.263	21698
857.397	21785
857.53	21682
857.664	21724
857.797	21694
857.931	21652
858.064	21622
858.197	21774
858.331	21663
858.464	21629
858.597	21496
858.731	21606
858.864	21667
858.997	21515
859.13	21553
859.263	21580
859.396	21679
859.529	21637
859.662	21610
859.795	21576
859.928	21759
860.061	21812
860.194	21876
860.327	21724
860.46	21698
860.592	21751
860.725	21819
860.858	21698
860.99	21606
861.123	21637
861.256	21458
861.388	21591
861.521	22329
861.653	21595
861.786	21374
861.918	21564
862.05	21595
862.183	21564
862.315	21606
862.447	21591
862.58	21545
862.712	21435
862.844	21412
862.976	21447
863.108	21450
863.24	21644
863.372	21416
863.504	21367
863.636	21294
863.768	21485
863.9	21363
864.032	21184
864.164	21291
864.296	21370
864.428	21466
864.559	21420
864.691	21435
864.823	21336
864.954	21294
865.086	21310
865.217	21317
865.349	21214
865.48	21199
865.612	21298
865.743	21355
865.875	21203
866.006	21176
866.137	21203
866.269	21222
866.4	21283
866.531	21055
866.662	21077
866.793	21325
866.924	21188
867.055	21199
867.186	21199
867.317	21119
867.448	20979
867.579	21222
867.71	21104
867.841	21066
867.972	21161
868.103	21173
868.233	21176
868.364	21055
868.495	21287
868.625	21370
868.756	21572
868.886	21287
869.017	21389
869.147	21549
869.278	21515
869.408	21325
869.539	21481
869.669	21443
869.799	21272
869.929	21530
870.06	21523
870.19	21823
870.32	21622
870.45	21781
870.58	21835
870.71	21880
870.84	21861
870.97	21728
871.1	21762
871.23	21994
871.36	21937
871.489	21876
871.619	21827
871.749	22109
871.879	22090
872.008	22021
872.138	22063
872.267	22090
872.397	21842
872.526	21797
872.656	21781
872.785	21804
872.915	21960
873.044	22120
873.173	22044
873.303	22040
873.432	22082
873.561	22169
873.69	21949
873.819	22017
873.948	22059
874.077	21983
874.206	22010
874.335	21968
874.464	22177
874.593	22276
874.722	22207
874.851	22284
874.979	22348
875.108	22284
875.237	22150
875.365	22074
875.494	21983
875.623	22215
875.751	22211
875.88	22238
876.008	22356
876.136	22508
876.265	22698
876.393	22767
876.521	22649
876.65	22767
876.778	22649
876.906	22645
877.034	22497
877.162	22653
877.29	22565
877.418	22489
877.546	22596
877.674	22516
877.802	22599
877.93	22546
878.058	22580
878.185	22481
878.313	22630
878.441	22527
878.568	22265
878.696	22367
878.824	22561
878.951	22569
879.079	22771
879.206	22763
879.333	22531
879.461	22538
879.588	22706
879.715	22668
879.842	22919
879.97	22584
880.097	22447
880.224	22360
880.351	22394
880.478	22303
880.605	22325
880.732	22382
880.859	22580
880.986	22523
881.112	22451
881.239	22337
881.366	22086
881.493	22013
881.619	21869
881.746	21998
881.872	21945
881.999	22086
882.125	21797
882.252	21960
882.378	21934
882.505	22116
882.631	21835
882.757	21743
882.883	21743
883.01	21701
883.136	21595
883.262	21564
883.388	21583
883.514	21747
883.64	21717
883.766	21663
883.892	21386
884.018	21431
884.143	21717
884.269	21812
884.395	21424
884.52	21317
884.646	21374
884.772	21188
884.897	21233
885.023	21389
885.148	21439
885.274	21401
885.399	21382
885.524	21351
885.65	21306
885.775	21401
885.9	21310
886.025	21416
886.15	21405
886.275	21294
886.4	21146
886.525	21138
886.65	21233
886.775	21233
886.9	21389
887.025	21443
887.149	21176
887.274	21180
887.399	21123
887.523	21051
887.648	21074
887.773	21051
887.897	21165
888.021	21047
888.146	21047
888.27	21192
888.395	21062
888.519	21028
888.643	21017
888.767	21119
888.891	21013
889.015	20864
889.139	20956
889.263	20838
889.387	20925
889.511	21036
889.635	21062
889.759	20765
889.883	20944
890.006	21013
890.13	20971
890.254	20777
890.377	20678
890.501	20583
890.624	20621
890.748	20758
890.871	20598
890.995	20434
891.118	20263
891.241	20499
891.364	20469
891.488	20602
891.611	20454
891.734	20385
891.857	20545
891.98	20393
892.103	20457
892.226	20476
892.349	20400
892.471	20309
892.594	20347
892.717	20324
892.839	20419
892.962	20374
893.085	20393
893.207	20229
893.33	20161
893.452	20161
893.575	20320
893.697	20305
893.819	20602
893.941	20511
894.064	20427
894.186	20320
894.308	20275
894.43	20328
894.552	20446
894.674	20427
894.796	20233
894.918	20320
895.04	20298
895.161	20370
895.283	20313
895.405	20278
895.526	20309
895.648	20275
895.769	20233
895.891	20301
896.012	20469
896.134	20328
896.255	20256
896.376	20195
896.498	20176
896.619	20248
896.74	20187
896.861	20415
896.982	20674
897.103	20762
897.224	20590
897.345	20438
897.466	20450
897.587	20480
897.708	20682
897.828	20446
897.949	20495
898.07	20408
898.19	20396
898.311	20686
898.431	20404
898.552	20545
898.672	20579
898.792	20613
898.913	20545
899.033	20454
899.153	20362
899.273	20278
899.393	20324
899.513	20317
899.633	20347
899.753	20393
899.873	20157
899.993	20282
900.113	20199
900.232	20290
900.352	20168
900.472	20149
900.591	20035
900.711	20138
900.83	19963
900.95	20107
901.069	20096
901.189	19993
901.308	19708
901.427	19597
901.546	19719
901.665	19651
901.784	19559
901.904	19476
902.023	19407
902.141	19331
902.26	19228
902.379	19327
902.498	19095
902.617	19160
902.735	19221
902.854	19137
902.973	19099
903.091	18814
903.21	18772
903.328	18844
903.446	18749
903.565	18707
903.683	18639
903.801	18525
903.919	18593
904.038	18506
904.156	18456
904.274	18471
904.392	18273
904.51	18258
904.627	18311
904.745	18342
904.863	18452
904.981	18133
905.098	18106
905.216	18003
905.334	18083
905.451	18015
905.569	18022
905.686	18117
905.803	18045
905.921	17923
906.038	17923
906.155	17859
906.272	17760
906.389	17779
906.506	17661
906.623	17592
906.74	17524
906.857	17444
906.974	17455
907.091	17684
907.208	17733
907.324	17577
907.441	17429
907.557	17372
907.674	17280
907.79	17326
907.907	17273
908.023	17337
908.139	17265
908.256	17322
908.372	17284
908.488	17193
908.604	17064
908.72	16984
908.836	17025
908.952	16896
909.068	17014
909.184	17143
909.3	17121
909.415	17086
909.531	17048
909.647	16820
909.762	16767
909.878	16710
909.993	16717
910.108	16645
910.224	16691
910.339	16771
910.454	16634
910.57	16580
910.685	16493
910.8	16752
910.915	16717
911.03	16588
911.145	16382
911.259	16284
911.374	16337
911.489	16265
911.604	16173
911.718	16036
911.833	15994
911.947	16029
912.062	15956
912.176	16006
912.291	16040
912.405	16097
912.519	16192
912.633	16169
912.748	16139
912.862	15979
912.976	15876
913.09	15876
913.204	15781
913.318	15808
913.431	15987
913.545	16093
913.659	15888
913.772	15812
913.886	15724
914	15797
914.113	15743
914.226	15842
914.34	15774
914.453	15633
914.566	15713
914.68	15507
914.793	15530
914.906	15348
915.019	15313
915.132	15241
915.245	15275
915.358	15291
915.47	15256
915.583	15336
915.696	15310
915.809	15340
915.921	15382
916.034	15146
916.146	15195
916.259	15180
916.371	15203
916.483	15211
916.595	15123
916.708	15055
916.82	15097
916.932	14994
917.044	15119
917.156	15108
917.268	14998
917.38	14910
917.491	14971
917.603	14864
917.715	14990
917.826	14956
917.938	14807
918.049	14750
918.161	14933
918.272	14956
918.384	14899
918.495	14823
918.606	14712
918.717	14640
918.828	14648
918.939	14754
919.05	14587
919.161	14712
919.272	14457
919.383	14473
919.494	14689
919.604	14956
919.715	14602
919.826	14575
919.936	14659
920.047	14758
920.157	14708
920.267	14796
920.378	14758
920.488	14583
920.598	14735
920.708	14895
920.818	14868
920.928	14727
921.038	14842
921.148	14819
921.258	14644
921.368	14507
921.477	14431
921.587	14259
921.697	14172
921.806	14442
921.916	14393
922.025	14073
922.134	14043
922.244	13951
922.353	13967
922.462	13921
922.571	13791
922.68	13708
922.789	13563
922.898	13677
923.007	13594
923.116	13655
923.224	13639
923.333	13651
923.442	13590
923.55	13441
923.659	13502
923.767	13537
923.876	13369
923.984	13636
924.092	13403
924.201	13407
924.309	13438
924.417	13419
924.525	13396
924.633	13297
924.741	14214
924.849	13129
924.956	13171
925.064	13118
925.172	13053
925.279	13141
925.387	13122
925.494	13110
925.602	13141
925.709	13126
925.816	13084
925.924	13072
926.031	13065
926.138	13019
926.245	13019
926.352	12871
926.459	13072
926.566	13149
926.673	12852
926.779	12867
926.886	12726
926.993	12616
927.099	12555
927.206	12639
927.312	12566
927.419	12620
927.525	12601
927.631	12665
927.737	12475
927.843	12429
927.95	12380
928.056	12376
928.162	12369
928.267	12452
928.373	13072
928.479	12467
928.585	12304
928.69	12410
928.796	12471
928.901	12346
929.007	12140
929.112	12262
929.218	12254
929.323	12182
929.428	12178
929.533	12232
929.638	12182
929.743	12072
929.848	12140
929.953	12232
930.058	12030
930.163	11843
930.267	11882
930.372	12041
930.477	11733
930.581	12064
930.685	11908
930.79	11764
930.894	11764
930.998	11680
931.103	11870
931.207	11482
931.311	11429
931.415	11326
931.519	11143
931.623	11045
