Data from test_V78500241_97.txt Node
Date: Fri Mar 25 15:10:32 CST 2022
User: usil
Spectrometer: V785-0024
Trigger mode: 0
Integration Time (sec): 4.000000E-1
Scans to average: 1
Nonlinearity correction enabled: false
Boxcar width: 0
Storing dark spectrum: false
XAxis mode: Wavelengths
Number of Pixels in Spectrum: 1024
>>>>>Begin Spectral Data<<<<<
801.071	28371
801.214	28382
801.356	28101
801.499	28074
801.641	27884
801.783	27934
801.926	27949
802.068	27816
802.211	27781
802.353	27686
802.496	27523
802.638	27488
802.78	27447
802.923	27515
803.065	27348
803.208	27458
803.35	27488
803.492	27511
803.635	27629
803.777	27538
803.919	27591
804.061	27873
804.204	27576
804.346	27519
804.488	27386
804.63	27439
804.773	27367
804.915	27553
805.057	27610
805.199	27572
805.341	27724
805.483	27698
805.626	27625
805.768	27606
805.91	27606
806.052	27698
806.194	27500
806.336	27892
806.478	27679
806.62	27614
806.762	27641
806.904	27827
807.046	28261
807.188	28082
807.33	28093
807.472	28067
807.614	27987
807.756	28051
807.898	27876
808.04	27819
808.182	27736
808.324	27762
808.465	27827
808.607	27930
808.749	28097
808.891	28192
809.033	28284
809.174	28158
809.316	28257
809.458	28055
809.6	28249
809.741	28185
809.883	28105
810.025	28337
810.166	28352
810.308	28504
810.45	28375
810.591	28291
810.733	28181
810.875	28093
811.016	28013
811.158	28063
811.299	28116
811.441	28139
811.582	28173
811.724	27998
811.865	28188
812.007	28093
812.148	28002
812.29	28097
812.431	28299
812.573	28394
812.714	28508
812.855	28504
812.997	28645
813.138	28809
813.279	28546
813.421	28508
813.562	28561
813.703	28234
813.845	28352
813.986	27964
814.127	27888
814.268	27808
814.41	27705
814.551	27694
814.692	27759
814.833	27511
814.974	27842
815.115	27728
815.256	27641
815.397	27447
815.539	27530
815.68	27412
815.821	27382
815.962	27488
816.103	27405
816.244	27329
816.385	27233
816.526	27017
816.666	26982
816.807	26910
816.948	26872
817.089	27024
817.23	26914
817.371	26887
817.512	26872
817.653	26902
817.793	26781
817.934	26918
818.075	26880
818.216	26872
818.356	26758
818.497	26648
818.638	26503
818.778	26575
818.919	26568
819.06	26587
819.2	26670
819.341	26765
819.481	26689
819.622	26811
819.762	27077
819.903	26971
820.043	26940
820.184	26819
820.324	26960
820.465	26967
820.605	26815
820.746	26708
820.886	26518
821.026	26857
821.167	26826
821.307	26864
821.447	26701
821.588	26484
821.728	26663
821.868	26317
822.008	26256
822.149	26164
822.289	26164
822.429	25993
822.569	25890
822.709	25791
822.849	25704
822.99	25708
823.13	25624
823.27	25693
823.41	25396
823.55	25407
823.69	25529
823.83	25499
823.97	25476
824.11	25198
824.25	25247
824.389	25232
824.529	25270
824.669	25263
824.809	25365
824.949	25190
825.089	25232
825.228	25263
825.368	25114
825.508	25031
825.648	25118
825.787	24935
825.927	25046
826.067	24977
826.206	24939
826.346	25084
826.485	25046
826.625	25114
826.765	25217
826.904	24977
827.044	24700
827.183	24760
827.323	24715
827.462	24642
827.601	24840
827.741	24741
827.88	24661
828.02	24555
828.159	24563
828.298	24612
828.437	24734
828.577	24673
828.716	24741
828.855	24604
828.994	24380
829.134	24517
829.273	24566
829.412	24311
829.551	24224
829.69	24403
829.829	24426
829.968	24426
830.107	24441
830.246	24266
830.385	24323
830.524	24315
830.663	24186
830.802	24045
830.941	23992
831.08	23859
831.219	23973
831.357	24018
831.496	24068
831.635	23893
831.774	23897
831.913	23798
832.051	23710
832.19	23668
832.329	23779
832.467	23581
832.606	23562
832.744	23512
832.883	23512
833.022	23672
833.16	23611
833.299	23547
833.437	23668
833.576	23649
833.714	23627
833.852	23657
833.991	23756
834.129	23676
834.267	23745
834.406	23509
834.544	23646
834.682	23551
834.821	23509
834.959	23672
835.097	23402
835.235	23547
835.373	23585
835.511	23558
835.65	23433
835.788	23535
835.926	23235
836.064	23086
836.202	23326
836.34	23307
836.478	23505
836.615	23239
836.753	23417
836.891	23334
837.029	23425
837.167	23337
837.305	23162
837.443	23307
837.58	23147
837.718	23322
837.856	23246
837.993	23292
838.131	23303
838.269	23121
838.406	23136
838.544	23014
838.681	22900
838.819	22923
838.956	22607
839.094	22599
839.231	22557
839.369	22812
839.506	23064
839.643	22881
839.781	22474
839.918	22656
840.055	22538
840.193	22596
840.33	22580
840.467	22508
840.604	22516
840.742	22835
840.879	22519
841.016	22519
841.153	22382
841.29	22615
841.427	22512
841.564	22451
841.701	22527
841.838	22478
841.975	22363
842.112	22493
842.249	22371
842.385	22314
842.522	22390
842.659	22204
842.796	22253
842.933	22162
843.069	22341
843.206	22097
843.343	22253
843.479	22234
843.616	22177
843.752	22010
843.889	21979
844.025	22185
844.162	21911
844.298	22131
844.435	22010
844.571	22002
844.708	21968
844.844	22143
844.98	22131
845.117	22067
845.253	21907
845.389	21850
845.525	21956
845.661	21873
845.798	21789
845.934	21797
846.07	21667
846.206	21675
846.342	21884
846.478	21690
846.614	21530
846.75	21363
846.886	21511
847.022	21679
847.158	21519
847.294	21431
847.429	21500
847.565	21420
847.701	21701
847.837	21123
847.972	21085
848.108	21260
848.244	21123
848.379	21116
848.515	21043
848.65	21039
848.786	21017
848.921	20914
849.057	21074
849.192	21123
849.328	21085
849.463	21017
849.598	21032
849.734	20956
849.869	20883
850.004	20678
850.14	20739
850.275	20826
850.41	20617
850.545	20697
850.68	20720
850.815	20670
850.95	20746
851.085	20849
851.22	20842
851.355	20743
851.49	20777
851.625	20754
851.76	20746
851.895	20621
852.03	20613
852.165	20739
852.299	20804
852.434	20853
852.569	20762
852.703	20632
852.838	20765
852.973	20804
853.107	20731
853.242	20632
853.376	20575
853.511	20396
853.645	20552
853.78	20609
853.914	20480
854.048	20473
854.183	20590
854.317	20636
854.451	20625
854.585	20583
854.72	20488
854.854	20564
854.988	20465
855.122	20594
855.256	20336
855.39	20571
855.524	20606
855.658	20575
855.792	20507
855.926	20571
856.06	20541
856.194	20617
856.327	20533
856.461	20423
856.595	20431
856.729	20560
856.862	20678
856.996	20499
857.13	20590
857.263	20613
857.397	20579
857.53	20484
857.664	20583
857.797	20541
857.931	20701
858.064	20575
858.197	20674
858.331	20648
858.464	20415
858.597	20385
858.731	20545
858.864	20374
858.997	20564
859.13	20476
859.263	20613
859.396	20609
859.529	20450
859.662	20522
859.795	20552
859.928	20473
860.061	20632
860.194	20689
860.327	20575
860.46	20530
860.592	20617
860.725	20644
860.858	20590
860.99	20461
861.123	20374
861.256	20446
861.388	20396
861.521	21032
861.653	20332
861.786	20324
861.918	20366
862.05	20492
862.183	20560
862.315	20488
862.447	20533
862.58	20434
862.712	20210
862.844	20176
862.976	20218
863.108	20278
863.24	20556
863.372	20050
863.504	20069
863.636	20183
863.768	20282
863.9	20229
864.032	20065
864.164	20157
864.296	20225
864.428	20218
864.559	20267
864.691	20275
864.823	20180
864.954	20157
865.086	20187
865.217	20149
865.349	20065
865.48	20084
865.612	20069
865.743	20256
865.875	20107
866.006	20039
866.137	20077
866.269	20054
866.4	20088
866.531	20069
866.662	19944
866.793	20005
866.924	19997
867.055	20092
867.186	19982
867.317	20043
867.448	19959
867.579	20012
867.71	19974
867.841	19978
867.972	20046
868.103	19887
868.233	20043
868.364	19967
868.495	20073
868.625	20290
868.756	20358
868.886	20092
869.017	20199
869.147	20408
869.278	20362
869.408	20320
869.539	20176
869.669	20328
869.799	20320
869.929	20282
870.06	20374
870.19	20522
870.32	20552
870.45	20682
870.58	20537
870.71	20727
870.84	20682
870.97	20522
871.1	20518
871.23	20758
871.36	20864
871.489	20712
871.619	20823
871.749	20853
871.879	20883
872.008	20883
872.138	20838
872.267	20739
872.397	20636
872.526	20735
872.656	20663
872.785	20606
872.915	20872
873.044	20918
873.173	20918
873.303	20910
873.432	20853
873.561	20838
873.69	20830
873.819	20857
873.948	21009
874.077	20979
874.206	20796
874.335	21001
874.464	20979
874.593	21127
874.722	20990
874.851	21142
874.979	21184
875.108	21165
875.237	21074
875.365	21017
875.494	21157
875.623	21237
875.751	21047
875.88	21108
876.008	21378
876.136	21260
876.265	21542
876.393	21701
876.521	21564
876.65	21553
876.778	21496
876.906	21397
877.034	21389
877.162	21481
877.29	21420
877.418	21435
877.546	21599
877.674	21325
877.802	21511
877.93	21424
878.058	21416
878.185	21291
878.313	21359
878.441	21492
878.568	21275
878.696	21344
878.824	21447
878.951	21534
879.079	21774
879.206	21717
879.333	21785
879.461	21507
879.588	21580
879.715	21732
879.842	21793
879.97	21557
880.097	21287
880.224	21252
880.351	21275
880.478	21351
880.605	21252
880.732	21218
880.859	21515
880.986	21184
881.112	21233
881.239	21184
881.366	21032
881.493	21055
881.619	20773
881.746	20944
881.872	20891
881.999	20895
882.125	20750
882.252	20975
882.378	20857
882.505	20975
882.631	20686
882.757	20686
882.883	20743
883.01	20583
883.136	20552
883.262	20454
883.388	20419
883.514	20556
883.64	20613
883.766	20609
883.892	20343
884.018	20450
884.143	20629
884.269	20727
884.395	20423
884.52	20412
884.646	20221
884.772	20199
884.897	20145
885.023	20240
885.148	20324
885.274	20495
885.399	20419
885.524	20199
885.65	20290
885.775	20259
885.9	20240
886.025	20275
886.15	20278
886.275	20035
886.4	20210
886.525	20176
886.65	20069
886.775	20134
886.9	20317
887.025	20442
887.149	20294
887.274	20046
887.399	19925
887.523	19951
887.648	19928
887.773	19894
887.897	19989
888.021	20008
888.146	19940
888.27	20046
888.395	20065
888.519	19978
888.643	20012
888.767	20012
888.891	19917
889.015	19746
889.139	19845
889.263	19845
889.387	19925
889.511	20046
889.635	19936
889.759	19841
889.883	19898
890.006	19738
890.13	19746
890.254	19719
890.377	19723
890.501	19677
890.624	19518
890.748	19567
890.871	19468
890.995	19396
891.118	19206
891.241	19350
891.364	19350
891.488	19419
891.611	19480
891.734	19384
891.857	19411
891.98	19194
892.103	19419
892.226	19400
892.349	19377
892.471	19168
892.594	19400
892.717	19266
892.839	19228
892.962	19251
893.085	19407
893.207	19331
893.33	19175
893.452	19232
893.575	19377
893.697	19232
893.819	19483
893.941	19403
894.064	19483
894.186	19297
894.308	19076
894.43	19270
894.552	19407
894.674	19377
894.796	19187
894.918	19206
895.04	19148
895.161	19285
895.283	19297
895.405	19232
895.526	19343
895.648	19225
895.769	19415
895.891	19487
896.012	19327
896.134	19304
896.255	19365
896.376	19324
896.498	19316
896.619	19381
896.74	19312
896.861	19301
896.982	19651
897.103	19822
897.224	19624
897.345	19540
897.466	19419
897.587	19609
897.708	19674
897.828	19533
897.949	19537
898.07	19441
898.19	19533
898.311	19651
898.431	19506
898.552	19582
898.672	19613
898.792	19594
898.913	19635
899.033	19445
899.153	19377
899.273	19206
899.393	19175
899.513	19259
899.633	19278
899.753	19244
899.873	19171
899.993	19411
900.113	19148
900.232	19251
900.352	19088
900.472	19118
900.591	19000
900.711	19160
900.83	19012
900.95	19198
901.069	19335
901.189	19015
901.308	18810
901.427	18566
901.546	18612
901.665	18776
901.784	18772
901.904	18582
902.023	18456
902.141	18292
902.26	18201
902.379	18270
902.498	18262
902.617	18095
902.735	18251
902.854	18251
902.973	17988
903.091	17908
903.21	17775
903.328	17897
903.446	17802
903.565	17562
903.683	17687
903.801	17501
903.919	17703
904.038	17646
904.156	17406
904.274	17554
904.392	17337
904.51	17425
904.627	17379
904.745	17417
904.863	17474
904.981	17185
905.098	17079
905.216	17147
905.334	17113
905.451	17102
905.569	17041
905.686	17041
905.803	17113
905.921	16763
906.038	17041
906.155	16946
906.272	16736
906.389	16885
906.506	16748
906.623	16691
906.74	16641
906.857	16516
906.974	16561
907.091	16649
907.208	16618
907.324	16637
907.441	16653
907.557	16451
907.674	16405
907.79	16265
907.907	16249
908.023	16413
908.139	16352
908.256	16196
908.372	16177
908.488	16299
908.604	16154
908.72	15918
908.836	16036
908.952	15937
909.068	15956
909.184	16158
909.3	16044
909.415	16025
909.531	15930
909.647	15797
909.762	15789
909.878	15660
909.993	15705
910.108	15660
910.224	15682
910.339	15663
910.454	15564
910.57	15507
910.685	15473
910.8	15656
910.915	15671
911.03	15534
911.145	15302
911.259	15268
911.374	15321
911.489	15279
911.604	15211
911.718	15051
911.833	15100
911.947	15001
912.062	14845
912.176	14998
912.291	15036
912.405	15020
912.519	15131
912.633	15203
912.748	15062
912.862	14944
912.976	14845
913.09	14758
913.204	14811
913.318	14796
913.431	14902
913.545	14853
913.659	14853
913.772	14754
913.886	14765
914	14655
914.113	14712
914.226	14849
914.34	14777
914.453	14674
914.566	14739
914.68	14629
914.793	14526
914.906	14377
915.019	14389
915.132	14267
915.245	14366
915.358	14389
915.47	14377
915.583	14320
915.696	14438
915.809	14442
915.921	14450
916.034	14339
916.146	14240
916.259	14176
916.371	14320
916.483	14309
916.595	14199
916.708	14199
916.82	14225
916.932	14176
917.044	14107
917.156	14065
917.268	13963
917.38	14016
917.491	13944
917.603	13947
917.715	14001
917.826	14016
917.938	13902
918.049	13845
918.161	13951
918.272	14043
918.384	14008
918.495	13970
918.606	13776
918.717	13731
918.828	13887
918.939	13753
919.05	13636
919.161	13643
919.272	13597
919.383	13616
919.494	13719
919.604	14001
919.715	13734
919.826	13575
919.936	13662
920.047	13681
920.157	13807
920.267	13875
920.378	13723
920.488	13651
920.598	13871
920.708	14005
920.818	13830
920.928	13822
921.038	13967
921.148	13993
921.258	13670
921.368	13518
921.477	13518
921.587	13491
921.697	13320
921.806	13445
921.916	13400
922.025	13198
922.134	13126
922.244	13000
922.353	13099
922.462	12932
922.571	12935
922.68	12817
922.789	12753
922.898	12821
923.007	12764
923.116	12726
923.224	12730
923.333	12662
923.442	12642
923.55	12608
923.659	12585
923.767	12700
923.876	12525
923.984	12521
924.092	12467
924.201	12441
924.309	12574
924.417	12532
924.525	12498
924.633	12536
924.741	13289
924.849	12247
924.956	12403
925.064	12224
925.172	12163
925.279	12277
925.387	12216
925.494	12251
925.602	12353
925.709	12403
925.816	12125
925.924	12251
926.031	12254
926.138	12144
926.245	12171
926.352	12057
926.459	12239
926.566	12292
926.673	12163
926.779	12041
926.886	11927
926.993	11824
927.099	11840
927.206	11729
927.312	11722
927.419	11809
927.525	11764
927.631	11760
927.737	11634
927.843	11665
927.95	11532
928.056	11653
928.162	11630
928.267	11688
928.373	12140
928.479	11688
928.585	11383
928.69	11535
928.796	11611
928.901	11509
929.007	11322
929.112	11512
929.218	11436
929.323	11349
929.428	11341
929.533	11493
929.638	11269
929.743	11337
929.848	11395
929.953	11303
930.058	11185
930.163	11098
930.267	11159
930.372	11250
930.477	11033
930.581	11223
930.685	11041
930.79	11041
930.894	10930
930.998	10965
931.103	11105
931.207	10721
931.311	10630
931.415	10546
931.519	10379
931.623	10344
