Data from test_V78500241_1690.txt Node
Date: Fri Mar 25 15:21:37 CST 2022
User: usil
Spectrometer: V785-0024
Trigger mode: 0
Integration Time (sec): 4.000000E-1
Scans to average: 1
Nonlinearity correction enabled: false
Boxcar width: 0
Storing dark spectrum: false
XAxis mode: Wavelengths
Number of Pixels in Spectrum: 1024
>>>>>Begin Spectral Data<<<<<
801.071	28147
801.214	28078
801.356	27838
801.499	27732
801.641	27720
801.783	27732
801.926	27663
802.068	27724
802.211	27408
802.353	27496
802.496	27313
802.638	27237
802.78	27195
802.923	27233
803.065	27195
803.208	27142
803.35	27211
803.492	27370
803.635	27458
803.777	27252
803.919	27553
804.061	27652
804.204	27473
804.346	27443
804.488	27545
804.63	27359
804.773	27397
804.915	27500
805.057	27583
805.199	27363
805.341	27386
805.483	27724
805.626	27675
805.768	27412
805.91	27542
806.052	27709
806.194	27511
806.336	27633
806.478	27610
806.62	27507
806.762	27701
806.904	27873
807.046	28154
807.188	28112
807.33	27972
807.472	28059
807.614	27930
807.756	28036
807.898	27914
808.04	27972
808.182	27930
808.324	27846
808.465	27937
808.607	28166
808.749	28246
808.891	28314
809.033	28356
809.174	28272
809.316	28177
809.458	28219
809.6	28154
809.741	28421
809.883	28390
810.025	28462
810.166	28580
810.308	28557
810.45	28409
810.591	28428
810.733	28226
810.875	28200
811.016	28226
811.158	28215
811.299	28310
811.441	28329
811.582	28394
811.724	28272
811.865	28329
812.007	28086
812.148	28078
812.29	28272
812.431	28466
812.573	28542
812.714	28668
812.855	28710
812.997	28835
813.138	29041
813.279	28900
813.421	28774
813.562	28854
813.703	28752
813.845	28478
813.986	28124
814.127	28249
814.268	27918
814.41	27994
814.551	27949
814.692	27960
814.833	27888
814.974	27903
815.115	27968
815.256	27819
815.397	27911
815.539	27880
815.68	27751
815.821	27785
815.962	27774
816.103	27759
816.244	27599
816.385	27534
816.526	27496
816.666	27310
816.807	27329
816.948	27218
817.089	27298
817.23	27302
817.371	27150
817.512	27310
817.653	27363
817.793	27096
817.934	27123
818.075	27237
818.216	27203
818.356	27230
818.497	27135
818.638	26971
818.778	27074
818.919	26899
819.06	27154
819.2	27138
819.341	27230
819.481	27214
819.622	27374
819.762	27496
819.903	27534
820.043	27340
820.184	27439
820.324	27317
820.465	27412
820.605	27351
820.746	27310
820.886	27260
821.026	27310
821.167	27294
821.307	27348
821.447	27211
821.588	27192
821.728	27085
821.868	26952
822.008	26560
822.149	26651
822.289	26598
822.429	26453
822.569	26400
822.709	26393
822.849	26282
822.99	26370
823.13	26157
823.27	26153
823.41	26096
823.55	25868
823.69	25959
823.83	26035
823.97	26073
824.11	25780
824.25	25833
824.389	25868
824.529	25879
824.669	25898
824.809	25894
824.949	25947
825.089	25894
825.228	25902
825.368	25757
825.508	25772
825.648	25811
825.787	25681
825.927	25757
826.067	25685
826.206	25822
826.346	25776
826.485	25822
826.625	25776
826.765	25712
826.904	25807
827.044	25575
827.183	25510
827.323	25384
827.462	25499
827.601	25495
827.741	25422
827.88	25540
828.02	25453
828.159	25483
828.298	25373
828.437	25540
828.577	25365
828.716	25529
828.855	25381
828.994	25312
829.134	25118
829.273	25255
829.412	25168
829.551	25042
829.69	25194
829.829	25129
829.968	25202
830.107	25171
830.246	25209
830.385	25061
830.524	25110
830.663	24958
830.802	24871
830.941	24749
831.08	24951
831.219	24844
831.357	24856
831.496	24985
831.635	24772
831.774	24585
831.913	24639
832.051	24597
832.19	24578
832.329	24566
832.467	24483
832.606	24498
832.744	24429
832.883	24426
833.022	24380
833.16	24456
833.299	24429
833.437	24464
833.576	24540
833.714	24418
833.852	24498
833.991	24547
834.129	24494
834.267	24623
834.406	24563
834.544	24563
834.682	24388
834.821	24509
834.959	24627
835.097	24399
835.235	24620
835.373	24505
835.511	24528
835.65	24365
835.788	24296
835.926	24209
836.064	24087
836.202	24182
836.34	24281
836.478	24433
836.615	24353
836.753	24308
836.891	24395
837.029	24365
837.167	24342
837.305	24171
837.443	24247
837.58	24129
837.718	24273
837.856	24273
837.993	24216
838.131	24266
838.269	24026
838.406	24129
838.544	23954
838.681	23927
838.819	23863
838.956	23604
839.094	23714
839.231	23775
839.369	23832
839.506	24110
839.643	23832
839.781	23501
839.918	23528
840.055	23596
840.193	23596
840.33	23570
840.467	23657
840.604	23463
840.742	23710
840.879	23436
841.016	23433
841.153	23417
841.29	23611
841.427	23573
841.564	23634
841.701	23566
841.838	23604
841.975	23391
842.112	23493
842.249	23520
842.385	23204
842.522	23467
842.659	23417
842.796	23353
842.933	23288
843.069	23288
843.206	23337
843.343	23417
843.479	23330
843.616	23280
843.752	23041
843.889	23075
844.025	23280
844.162	23003
844.298	23102
844.435	23193
844.571	23014
844.708	23075
844.844	23280
844.98	23204
845.117	23189
845.253	22953
845.389	23014
845.525	23041
845.661	22995
845.798	22930
845.934	22961
846.07	22782
846.206	22881
846.342	22949
846.478	22744
846.614	22622
846.75	22474
846.886	22577
847.022	22508
847.158	22481
847.294	22668
847.429	22561
847.565	22580
847.701	22786
847.837	22272
847.972	22310
848.108	22413
848.244	22249
848.379	22200
848.515	22093
848.65	22048
848.786	22215
848.921	22135
849.057	22303
849.192	22242
849.328	22154
849.463	22124
849.598	22070
849.734	21953
849.869	22010
850.004	21918
850.14	21979
850.275	21945
850.41	21789
850.545	21816
850.68	21941
850.815	21926
850.95	21838
851.085	22051
851.22	22013
851.355	21899
851.49	21880
851.625	21911
851.76	21861
851.895	21781
852.03	21949
852.165	21926
852.299	21895
852.434	22010
852.569	21895
852.703	21945
852.838	22044
852.973	22029
853.107	22055
853.242	21850
853.376	21759
853.511	21561
853.645	21736
853.78	21797
853.914	21831
854.048	21701
854.183	21682
854.317	21808
854.451	21903
854.585	21667
854.72	21736
854.854	21603
854.988	21633
855.122	21599
855.256	21545
855.39	21739
855.524	21808
855.658	21713
855.792	21797
855.926	21747
856.06	21778
856.194	21831
856.327	21629
856.461	21648
856.595	21587
856.729	21827
856.862	21747
856.996	21781
857.13	21838
857.263	21907
857.397	21785
857.53	21637
857.664	21770
857.797	21736
857.931	21964
858.064	21701
858.197	21804
858.331	21705
858.464	21629
858.597	21667
858.731	21759
858.864	21781
858.997	21732
859.13	21698
859.263	21694
859.396	21812
859.529	21755
859.662	21709
859.795	21671
859.928	21899
860.061	21937
860.194	21915
860.327	21827
860.46	21751
860.592	21838
860.725	21903
860.858	21770
860.99	21686
861.123	21667
861.256	21724
861.388	21720
861.521	22440
861.653	21625
861.786	21511
861.918	21564
862.05	21648
862.183	21663
862.315	21736
862.447	21629
862.58	21466
862.712	21511
862.844	21488
862.976	21629
863.108	21477
863.24	21895
863.372	21351
863.504	21477
863.636	21435
863.768	21466
863.9	21469
864.032	21500
864.164	21424
864.296	21397
864.428	21595
864.559	21477
864.691	21587
864.823	21534
864.954	21367
865.086	21481
865.217	21416
865.349	21268
865.48	21294
865.612	21222
865.743	21454
865.875	21370
866.006	21294
866.137	21260
866.269	21363
866.4	21294
866.531	21233
866.662	21203
866.793	21241
866.924	21180
867.055	21264
867.186	21310
867.317	21199
867.448	21211
867.579	21176
867.71	21100
867.841	21112
867.972	21211
868.103	21287
868.233	21260
868.364	21378
868.495	21340
868.625	21344
868.756	21644
868.886	21469
869.017	21595
869.147	21526
869.278	21526
869.408	21595
869.539	21492
869.669	21564
869.799	21477
869.929	21641
870.06	21568
870.19	21835
870.32	21743
870.45	21686
870.58	21789
870.71	21930
870.84	22010
870.97	21911
871.1	21907
871.23	22139
871.36	22112
871.489	22093
871.619	22055
871.749	21994
871.879	22147
872.008	22181
872.138	22051
872.267	22063
872.397	21869
872.526	21895
872.656	21983
872.785	21789
872.915	22196
873.044	22082
873.173	22025
873.303	22169
873.432	22128
873.561	22261
873.69	22093
873.819	21998
873.948	22105
874.077	22059
874.206	22017
874.335	22044
874.464	22268
874.593	22352
874.722	22158
874.851	22303
874.979	22398
875.108	22371
875.237	22303
875.365	22192
875.494	22230
875.623	22280
875.751	22333
875.88	22341
876.008	22375
876.136	22493
876.265	22721
876.393	22873
876.521	22759
876.65	22790
876.778	22626
876.906	22729
877.034	22672
877.162	22698
877.29	22546
877.418	22683
877.546	22767
877.674	22660
877.802	22637
877.93	22683
878.058	22634
878.185	22481
878.313	22649
878.441	22615
878.568	22519
878.696	22618
878.824	22733
878.951	22668
879.079	22843
879.206	22908
879.333	22824
879.461	22542
879.588	22729
879.715	22805
879.842	22885
879.97	22694
880.097	22538
880.224	22523
880.351	22508
880.478	22436
880.605	22405
880.732	22470
880.859	22729
880.986	22466
881.112	22466
881.239	22379
881.366	22272
881.493	22112
881.619	21987
881.746	22166
881.872	22116
881.999	22082
882.125	22017
882.252	22177
882.378	22044
882.505	22223
882.631	21930
882.757	21797
882.883	21812
883.01	21698
883.136	21762
883.262	21576
883.388	21542
883.514	21823
883.64	21762
883.766	21587
883.892	21401
884.018	21583
884.143	21671
884.269	21751
884.395	21542
884.52	21401
884.646	21424
884.772	21386
884.897	21332
885.023	21424
885.148	21435
885.274	21656
885.399	21488
885.524	21351
885.65	21351
885.775	21443
885.9	21386
886.025	21500
886.15	21378
886.275	21367
886.4	21272
886.525	21249
886.65	21245
886.775	21325
886.9	21496
887.025	21622
887.149	21481
887.274	21199
887.399	21165
887.523	21192
887.648	21188
887.773	21123
887.897	21184
888.021	21150
888.146	21169
888.27	21173
888.395	21180
888.519	21146
888.643	21138
888.767	21161
888.891	21070
889.015	21093
889.139	21039
889.263	20921
889.387	21131
889.511	21146
889.635	21024
889.759	20842
889.883	20918
890.006	20990
890.13	21036
890.254	20887
890.377	20861
890.501	20629
890.624	20697
890.748	20773
890.871	20629
890.995	20549
891.118	20438
891.241	20602
891.364	20507
891.488	20602
891.611	20560
891.734	20602
891.857	20545
891.98	20514
892.103	20568
892.226	20457
892.349	20366
892.471	20301
892.594	20412
892.717	20518
892.839	20396
892.962	20450
893.085	20469
893.207	20476
893.33	20313
893.452	20358
893.575	20457
893.697	20355
893.819	20568
893.941	20571
894.064	20514
894.186	20286
894.308	20294
894.43	20507
894.552	20575
894.674	20514
894.796	20313
894.918	20412
895.04	20400
895.161	20389
895.283	20480
895.405	20374
895.526	20465
895.648	20355
895.769	20431
895.891	20480
896.012	20412
896.134	20396
896.255	20434
896.376	20377
896.498	20282
896.619	20457
896.74	20328
896.861	20412
896.982	20838
897.103	20769
897.224	20693
897.345	20530
897.466	20651
897.587	20606
897.708	20735
897.828	20701
897.949	20545
898.07	20511
898.19	20537
898.311	20724
898.431	20404
898.552	20583
898.672	20735
898.792	20800
898.913	20602
899.033	20476
899.153	20469
899.273	20370
899.393	20324
899.513	20400
899.633	20385
899.753	20336
899.873	20233
899.993	20442
900.113	20400
900.232	20317
900.352	20240
900.472	20096
900.591	20035
900.711	20164
900.83	20069
900.95	20180
901.069	20244
901.189	19959
901.308	19788
901.427	19616
901.546	19674
901.665	19674
901.784	19757
901.904	19529
902.023	19582
902.141	19228
902.26	19297
902.379	19308
902.498	19274
902.617	19274
902.735	19160
902.854	19103
902.973	19148
903.091	18996
903.21	18878
903.328	18764
903.446	18894
903.565	18760
903.683	18707
903.801	18566
903.919	18646
904.038	18574
904.156	18429
904.274	18445
904.392	18460
904.51	18475
904.627	18460
904.745	18437
904.863	18544
904.981	18380
905.098	18174
905.216	18171
905.334	18171
905.451	18159
905.569	18110
905.686	18152
905.803	18003
905.921	17954
906.038	17980
906.155	17946
906.272	17809
906.389	17874
906.506	17600
906.623	17737
906.74	17627
906.857	17558
906.974	17543
907.091	17741
907.208	17668
907.324	17623
907.441	17535
907.557	17387
907.674	17387
907.79	17204
907.907	17326
908.023	17398
908.139	17364
908.256	17318
908.372	17147
908.488	17277
908.604	17006
908.72	17079
908.836	17064
908.952	17136
909.068	17162
909.184	17197
909.3	16961
909.415	17208
909.531	16991
909.647	16835
909.762	16835
909.878	16679
909.993	16797
910.108	16755
910.224	16721
910.339	16740
910.454	16637
910.57	16599
910.685	16630
910.8	16835
910.915	16641
911.03	16660
911.145	16390
911.259	16363
911.374	16318
911.489	16242
911.604	16211
911.718	16074
911.833	16230
911.947	16017
912.062	15945
912.176	16059
912.291	16086
912.405	16021
912.519	16238
912.633	16318
912.748	16204
912.862	15960
912.976	15937
913.09	15842
913.204	15915
913.318	15930
913.431	16074
913.545	16040
913.659	16021
913.772	15846
913.886	15728
914	15652
914.113	15797
914.226	15797
914.34	15831
914.453	15629
914.566	15705
914.68	15549
914.793	15610
914.906	15447
915.019	15264
915.132	15344
915.245	15256
915.358	15340
915.47	15252
915.583	15329
915.696	15317
915.809	15488
915.921	15435
916.034	15192
916.146	15199
916.259	15165
916.371	15233
916.483	15317
916.595	14979
916.708	15112
916.82	15108
916.932	15005
917.044	15131
917.156	15074
917.268	15058
917.38	14963
917.491	14918
917.603	14982
917.715	15081
917.826	15070
917.938	14853
918.049	14758
918.161	14971
918.272	14998
918.384	14963
918.495	14830
918.606	14811
918.717	14708
918.828	14686
918.939	14792
919.05	14621
919.161	14788
919.272	14446
919.383	14632
919.494	14754
919.604	14944
919.715	14727
919.826	14651
919.936	14587
920.047	14781
920.157	14629
920.267	14815
920.378	14701
920.488	14720
920.598	14823
920.708	15020
920.818	14788
920.928	14785
921.038	14952
921.148	14944
921.258	14663
921.368	14518
921.477	14423
921.587	14438
921.697	14358
921.806	14454
921.916	14347
922.025	14058
922.134	14115
922.244	13997
922.353	14054
922.462	13837
922.571	13928
922.68	13765
922.789	13700
922.898	13742
923.007	13571
923.116	13674
923.224	13693
923.333	13586
923.442	13594
923.55	13537
923.659	13529
923.767	13616
923.876	13521
923.984	13590
924.092	13434
924.201	13415
924.309	13510
924.417	13438
924.525	13327
924.633	13343
924.741	14111
924.849	13221
924.956	13244
925.064	13103
925.172	13084
925.279	13031
925.387	13183
925.494	13137
925.602	13209
925.709	13137
925.816	12916
925.924	13046
926.031	13129
926.138	13091
926.245	13053
926.352	12894
926.459	13110
926.566	13198
926.673	12947
926.779	12817
926.886	12840
926.993	12654
927.099	12722
927.206	12646
927.312	12589
927.419	12711
927.525	12635
927.631	12635
927.737	12597
927.843	12490
927.95	12380
928.056	12494
928.162	12566
928.267	12528
928.373	13050
928.479	12547
928.585	12353
928.69	12426
928.796	12475
928.901	12285
929.007	12133
929.112	12338
929.218	12251
929.323	12190
929.428	12167
929.533	12315
929.638	12049
929.743	12136
929.848	12205
929.953	12175
930.058	11996
930.163	11859
930.267	11927
930.372	11977
930.477	11722
930.581	12015
930.685	11908
930.79	11779
930.894	11813
930.998	11745
931.103	11885
931.207	11547
931.311	11467
931.415	11398
931.519	11166
931.623	11109
