Data from test_V78500241_3062.txt Node
Date: Fri Mar 25 15:31:10 CST 2022
User: usil
Spectrometer: V785-0024
Trigger mode: 0
Integration Time (sec): 4.000000E-1
Scans to average: 1
Nonlinearity correction enabled: false
Boxcar width: 0
Storing dark spectrum: false
XAxis mode: Wavelengths
Number of Pixels in Spectrum: 1024
>>>>>Begin Spectral Data<<<<<
801.071	27332
801.214	27245
801.356	26998
801.499	26815
801.641	26716
801.783	26758
801.926	26788
802.068	26758
802.211	26785
802.353	26625
802.496	26446
802.638	26507
802.78	26374
802.923	26294
803.065	26313
803.208	26358
803.35	26415
803.492	26564
803.635	26629
803.777	26366
803.919	26530
804.061	26891
804.204	26556
804.346	26473
804.488	26526
804.63	26507
804.773	26625
804.915	26644
805.057	26758
805.199	26602
805.341	26514
805.483	26655
805.626	26712
805.768	26659
805.91	26594
806.052	26758
806.194	26693
806.336	26883
806.478	26644
806.62	26815
806.762	26781
806.904	26918
807.046	27089
807.188	27089
807.33	27047
807.472	27169
807.614	27104
807.756	27028
807.898	26861
808.04	26891
808.182	26925
808.324	26944
808.465	26895
808.607	27184
808.749	27199
808.891	27545
809.033	27488
809.174	27351
809.316	27272
809.458	27096
809.6	27226
809.741	27252
809.883	27374
810.025	27534
810.166	27515
810.308	27682
810.45	27500
810.591	27412
810.733	27272
810.875	27230
811.016	27287
811.158	27157
811.299	27386
811.441	27454
811.582	27302
811.724	27222
811.865	27146
812.007	27195
812.148	27188
812.29	27424
812.431	27473
812.573	27682
812.714	27606
812.855	27686
812.997	27850
813.138	28013
813.279	27808
813.421	27720
813.562	27831
813.703	27564
813.845	27447
813.986	27116
814.127	26921
814.268	26921
814.41	26944
814.551	26811
814.692	26975
814.833	26948
814.974	26921
815.115	27001
815.256	26842
815.397	26773
815.539	26834
815.68	26731
815.821	26575
815.962	26659
816.103	26762
816.244	26480
816.385	26549
816.526	26526
816.666	26309
816.807	26210
816.948	26282
817.089	26248
817.23	26267
817.371	26180
817.512	26142
817.653	26191
817.793	26103
817.934	26233
818.075	26065
818.216	26100
818.356	26164
818.497	26107
818.638	25883
818.778	26024
818.919	25894
819.06	26039
819.2	26035
819.341	26145
819.481	26221
819.622	26450
819.762	26484
819.903	26446
820.043	26339
820.184	26259
820.324	26225
820.465	26332
820.605	26252
820.746	26214
820.886	25993
821.026	26328
821.167	26161
821.307	26267
821.447	26176
821.588	26005
821.728	25940
821.868	25883
822.008	25616
822.149	25567
822.289	25731
822.429	25411
822.569	25285
822.709	25506
822.849	25129
822.99	25084
823.13	25076
823.27	25042
823.41	24962
823.55	24924
823.69	24905
823.83	24981
823.97	24901
824.11	24688
824.25	24738
824.389	24741
824.529	24875
824.669	24795
824.809	24783
824.949	24928
825.089	24901
825.228	24711
825.368	24627
825.508	24528
825.648	24528
825.787	24757
825.927	24730
826.067	24658
826.206	24574
826.346	24612
826.485	24703
826.625	24559
826.765	24935
826.904	24620
827.044	24475
827.183	24517
827.323	24334
827.462	24498
827.601	24422
827.741	24327
827.88	24365
828.02	24258
828.159	24273
828.298	24380
828.437	24486
828.577	24353
828.716	24353
828.855	24304
828.994	23965
829.134	23889
829.273	24064
829.412	23969
829.551	24018
829.69	24106
829.829	24228
829.968	24072
830.107	24220
830.246	24038
830.385	24205
830.524	24003
830.663	23908
830.802	23775
830.941	23767
831.08	23653
831.219	23794
831.357	23745
831.496	23863
831.635	23611
831.774	23566
831.913	23551
832.051	23387
832.19	23379
832.329	23402
832.467	23315
832.606	23254
832.744	23345
832.883	23341
833.022	23322
833.16	23322
833.299	23425
833.437	23239
833.576	23440
833.714	23490
833.852	23448
833.991	23429
834.129	23417
834.267	23455
834.406	23345
834.544	23433
834.682	23341
834.821	23364
834.959	23642
835.097	23280
835.235	23535
835.373	23356
835.511	23452
835.65	23216
835.788	23292
835.926	23128
836.064	23060
836.202	23029
836.34	23246
836.478	23467
836.615	23170
836.753	23166
836.891	23307
837.029	23254
837.167	23197
837.305	23170
837.443	23189
837.58	23079
837.718	23216
837.856	23029
837.993	23010
838.131	23086
838.269	23048
838.406	22987
838.544	22889
838.681	22812
838.819	22820
838.956	22580
839.094	22516
839.231	22672
839.369	22774
839.506	22900
839.643	22858
839.781	22573
839.918	22565
840.055	22569
840.193	22485
840.33	22451
840.467	22611
840.604	22615
840.742	22771
840.879	22436
841.016	22409
841.153	22405
841.29	22371
841.427	22424
841.564	22535
841.701	22531
841.838	22485
841.975	22337
842.112	22386
842.249	22367
842.385	22360
842.522	22516
842.659	22436
842.796	22226
842.933	22322
843.069	22280
843.206	22147
843.343	22421
843.479	22363
843.616	22257
843.752	21975
843.889	22112
844.025	22169
844.162	22036
844.298	22246
844.435	22044
844.571	21941
844.708	22074
844.844	22124
844.98	22192
845.117	22105
845.253	21926
845.389	21865
845.525	21937
845.661	21895
845.798	21812
845.934	21850
846.07	21724
846.206	21724
846.342	21926
846.478	21755
846.614	21583
846.75	21310
846.886	21485
847.022	21713
847.158	21641
847.294	21519
847.429	21500
847.565	21504
847.701	21679
847.837	21241
847.972	21176
848.108	21279
848.244	21256
848.379	21154
848.515	21047
848.65	20994
848.786	21112
848.921	21119
849.057	21211
849.192	21169
849.328	21195
849.463	21081
849.598	21112
849.734	21028
849.869	20868
850.004	20910
850.14	20842
850.275	20834
850.41	20883
850.545	20830
850.68	20883
850.815	20925
850.95	20933
851.085	21043
851.22	20960
851.355	20891
851.49	20815
851.625	20830
851.76	20921
851.895	20758
852.03	20849
852.165	20750
852.299	20910
852.434	20967
852.569	20956
852.703	20864
852.838	20807
852.973	21032
853.107	20948
853.242	20746
853.376	20644
853.511	20537
853.645	20670
853.78	20743
853.914	20739
854.048	20712
854.183	20762
854.317	20731
854.451	20830
854.585	20583
854.72	20678
854.854	20781
854.988	20682
855.122	20689
855.256	20522
855.39	20617
855.524	20686
855.658	20712
855.792	20526
855.926	20769
856.06	20731
856.194	20712
856.327	20602
856.461	20670
856.595	20701
856.729	20495
856.862	20773
856.996	20731
857.13	20644
857.263	20708
857.397	20804
857.53	20659
857.664	20705
857.797	20750
857.931	20773
858.064	20823
858.197	20815
858.331	20541
858.464	20613
858.597	20625
858.731	20655
858.864	20617
858.997	20636
859.13	20819
859.263	20629
859.396	20727
859.529	20724
859.662	20743
859.795	20583
859.928	20746
860.061	20811
860.194	20876
860.327	20720
860.46	20678
860.592	20762
860.725	20921
860.858	20785
860.99	20689
861.123	20579
861.256	20667
861.388	20689
861.521	21291
861.653	20583
861.786	20495
861.918	20526
862.05	20598
862.183	20590
862.315	20518
862.447	20686
862.58	20644
862.712	20450
862.844	20511
862.976	20556
863.108	20469
863.24	20716
863.372	20290
863.504	20461
863.636	20419
863.768	20412
863.9	20434
864.032	20298
864.164	20374
864.296	20381
864.428	20499
864.559	20427
864.691	20465
864.823	20298
864.954	20389
865.086	20415
865.217	20286
865.349	20153
865.48	20377
865.612	20412
865.743	20412
865.875	20370
866.006	20343
866.137	20324
866.269	20282
866.4	20336
866.531	20164
866.662	20336
866.793	20290
866.924	20233
867.055	20317
867.186	20351
867.317	20183
867.448	20138
867.579	20161
867.71	20142
867.841	20168
867.972	20290
868.103	20157
868.233	20199
868.364	20259
868.495	20294
868.625	20594
868.756	20568
868.886	20564
869.017	20419
869.147	20469
869.278	20549
869.408	20415
869.539	20480
869.669	20549
869.799	20648
869.929	20587
870.06	20636
870.19	20804
870.32	20746
870.45	20868
870.58	20834
870.71	21047
870.84	20982
870.97	20921
871.1	20864
871.23	21119
871.36	21184
871.489	20982
871.619	20956
871.749	21058
871.879	21108
872.008	21085
872.138	21108
872.267	21043
872.397	20979
872.526	20826
872.656	20857
872.785	20971
872.915	21093
873.044	21260
873.173	21131
873.303	21192
873.432	21096
873.561	21252
873.69	21157
873.819	21051
873.948	21161
874.077	21116
874.206	21195
874.335	21131
874.464	21264
874.593	21424
874.722	21336
874.851	21306
874.979	21389
875.108	21294
875.237	21359
875.365	21211
875.494	21302
875.623	21363
875.751	21310
875.88	21511
876.008	21599
876.136	21504
876.265	21789
876.393	21926
876.521	21835
876.65	21770
876.778	21766
876.906	21641
877.034	21739
877.162	21701
877.29	21675
877.418	21705
877.546	21797
877.674	21652
877.802	21694
877.93	21816
878.058	21637
878.185	21519
878.313	21576
878.441	21671
878.568	21538
878.696	21660
878.824	21671
878.951	21827
879.079	22002
879.206	22025
879.333	21819
879.461	21838
879.588	21709
879.715	21899
879.842	22067
879.97	21819
880.097	21568
880.224	21496
880.351	21538
880.478	21557
880.605	21477
880.732	21359
880.859	21739
880.986	21648
881.112	21561
881.239	21374
881.366	21233
881.493	21211
881.619	21093
881.746	21127
881.872	21070
881.999	20982
882.125	21047
882.252	21138
882.378	21005
882.505	21203
882.631	20906
882.757	20880
882.883	20933
883.01	20819
883.136	20872
883.262	20686
883.388	20655
883.514	20792
883.64	20800
883.766	20720
883.892	20598
884.018	20549
884.143	20826
884.269	20804
884.395	20575
884.52	20385
884.646	20575
884.772	20305
884.897	20328
885.023	20480
885.148	20571
885.274	20594
885.399	20594
885.524	20446
885.65	20434
885.775	20454
885.9	20427
886.025	20617
886.15	20377
886.275	20377
886.4	20503
886.525	20301
886.65	20434
886.775	20484
886.9	20507
887.025	20735
887.149	20495
887.274	20351
887.399	20206
887.523	20149
887.648	20161
887.773	20134
887.897	20415
888.021	20195
888.146	20218
888.27	20393
888.395	20298
888.519	20206
888.643	20210
888.767	20218
888.891	20134
889.015	19978
889.139	20145
889.263	19974
889.387	20180
889.511	20263
889.635	20100
889.759	20058
889.883	20043
890.006	20065
890.13	20130
890.254	20005
890.377	19898
890.501	19830
890.624	19746
890.748	19769
890.871	19871
890.995	19727
891.118	19651
891.241	19597
891.364	19620
891.488	19803
891.611	19601
891.734	19658
891.857	19715
891.98	19670
892.103	19677
892.226	19662
892.349	19544
892.471	19533
892.594	19464
892.717	19537
892.839	19460
892.962	19590
893.085	19582
893.207	19655
893.33	19403
893.452	19430
893.575	19540
893.697	19495
893.819	19681
893.941	19655
894.064	19613
894.186	19480
894.308	19502
894.43	19655
894.552	19666
894.674	19537
894.796	19419
894.918	19575
895.04	19525
895.161	19594
895.283	19677
895.405	19510
895.526	19556
895.648	19419
895.769	19578
895.891	19575
896.012	19742
896.134	19727
896.255	19620
896.376	19476
896.498	19556
896.619	19586
896.74	19643
896.861	19613
896.982	19986
897.103	19970
897.224	19803
897.345	19803
897.466	19791
897.587	19772
897.708	19928
897.828	19860
897.949	19811
898.07	19655
898.19	19712
898.311	19864
898.431	19772
898.552	19811
898.672	19830
898.792	19826
898.913	19746
899.033	19594
899.153	19624
899.273	19537
899.393	19487
899.513	19670
899.633	19483
899.753	19575
899.873	19616
899.993	19563
900.113	19506
900.232	19537
900.352	19434
900.472	19354
900.591	19316
900.711	19327
900.83	19251
900.95	19369
901.069	19430
901.189	19247
901.308	18993
901.427	18954
901.546	18970
901.665	19004
901.784	18878
901.904	18821
902.023	18684
902.141	18555
902.26	18418
902.379	18555
902.498	18441
902.617	18490
902.735	18563
902.854	18429
902.973	18319
903.091	18117
903.21	18102
903.328	18034
903.446	18057
903.565	17939
903.683	17897
903.801	17748
903.919	17885
904.038	17859
904.156	17684
904.274	17821
904.392	17608
904.51	17718
904.627	17687
904.745	17691
904.863	17733
904.981	17497
905.098	17337
905.216	17387
905.334	17292
905.451	17307
905.569	17330
905.686	17429
905.803	17379
905.921	17159
906.038	17239
906.155	17159
906.272	16965
906.389	17174
906.506	16938
906.623	16896
906.74	16831
906.857	16694
906.974	16752
907.091	16919
907.208	16934
907.324	16839
907.441	16748
907.557	16691
907.674	16660
907.79	16588
907.907	16630
908.023	16698
908.139	16634
908.256	16508
908.372	16523
908.488	16538
908.604	16428
908.72	16284
908.836	16386
908.952	16230
909.068	16272
909.184	16466
909.3	16386
909.415	16386
909.531	16367
909.647	16116
909.762	16051
909.878	16013
909.993	16025
910.108	15956
910.224	16074
910.339	16158
910.454	15972
910.57	15964
910.685	15789
910.8	16109
910.915	16021
911.03	15930
911.145	15686
911.259	15701
911.374	15622
911.489	15561
911.604	15538
911.718	15405
911.833	15462
911.947	15344
912.062	15359
912.176	15561
912.291	15386
912.405	15435
912.519	15633
912.633	15618
912.748	15397
912.862	15386
912.976	15302
913.09	15211
913.204	15188
913.318	15310
913.431	15344
913.545	15332
913.659	15416
913.772	15097
913.886	15165
914	15066
914.113	15195
914.226	15230
914.34	15093
914.453	14937
914.566	15024
914.68	14918
914.793	14876
914.906	14705
915.019	14701
915.132	14655
915.245	14754
915.358	14678
915.47	14682
915.583	14678
915.696	14621
915.809	14781
915.921	14842
916.034	14674
916.146	14625
916.259	14621
916.371	14632
916.483	14670
916.595	14530
916.708	14476
916.82	14499
916.932	14530
917.044	14385
917.156	14480
917.268	14339
917.38	14374
917.491	14275
917.603	14393
917.715	14427
917.826	14480
917.938	14244
918.049	14214
918.161	14412
918.272	14476
918.384	14412
918.495	14305
918.606	14221
918.717	14027
918.828	14153
918.939	14119
919.05	14130
919.161	14119
919.272	13970
919.383	13951
919.494	14157
919.604	14332
919.715	14145
919.826	14065
919.936	14062
920.047	14100
920.157	14065
920.267	14225
920.378	14153
920.488	14008
920.598	14328
920.708	14404
920.818	14199
920.928	14294
921.038	14442
921.148	14377
921.258	14035
921.368	13887
921.477	13970
921.587	13803
921.697	13776
921.806	13871
921.916	13677
922.025	13491
922.134	13521
922.244	13434
922.353	13571
922.462	13354
922.571	13331
922.68	13194
922.789	13179
922.898	13228
923.007	13012
923.116	13171
923.224	13190
923.333	13023
923.442	13042
923.55	12989
923.659	12909
923.767	13000
923.876	12844
923.984	12966
924.092	12905
924.201	12977
924.309	12871
924.417	12905
924.525	12772
924.633	12837
924.741	13738
924.849	12616
924.956	12741
925.064	12684
925.172	12475
925.279	12544
925.387	12730
925.494	12608
925.602	12642
925.709	12593
925.816	12422
925.924	12551
926.031	12642
926.138	12601
926.245	12593
926.352	12547
926.459	12631
926.566	12574
926.673	12494
926.779	12399
926.886	12353
926.993	12254
927.099	12190
927.206	12095
927.312	12072
927.419	12182
927.525	12136
927.631	12136
927.737	12091
927.843	11996
927.95	11817
928.056	11961
928.162	11996
928.267	12026
928.373	12677
928.479	11999
928.585	11779
928.69	11965
928.796	11935
928.901	11817
929.007	11718
929.112	11794
929.218	11847
929.323	11828
929.428	11661
929.533	11912
929.638	11691
929.743	11695
929.848	11710
929.953	11642
930.058	11532
930.163	11493
930.267	11448
930.372	11554
930.477	11433
930.581	11646
930.685	11509
930.79	11322
930.894	11364
930.998	11288
931.103	11356
931.207	11094
931.311	11048
931.415	10938
931.519	10714
931.623	10698
