Data from test_V78500241_1309.txt Node
Date: Fri Mar 25 15:18:58 CST 2022
User: usil
Spectrometer: V785-0024
Trigger mode: 0
Integration Time (sec): 4.000000E-1
Scans to average: 1
Nonlinearity correction enabled: false
Boxcar width: 0
Storing dark spectrum: false
XAxis mode: Wavelengths
Number of Pixels in Spectrum: 1024
>>>>>Begin Spectral Data<<<<<
801.071	28013
801.214	27838
801.356	27675
801.499	27629
801.641	27416
801.783	27435
801.926	27485
802.068	27618
802.211	27359
802.353	27469
802.496	27188
802.638	27252
802.78	27218
802.923	27135
803.065	27043
803.208	27207
803.35	27260
803.492	27405
803.635	27412
803.777	27272
803.919	27572
804.061	27759
804.204	27268
804.346	27363
804.488	27405
804.63	27294
804.773	27291
804.915	27447
805.057	27488
805.199	27397
805.341	27534
805.483	27583
805.626	27511
805.768	27397
805.91	27534
806.052	27454
806.194	27595
806.336	27713
806.478	27534
806.62	27656
806.762	27553
806.904	27789
807.046	28070
807.188	27869
807.33	28101
807.472	28181
807.614	27937
807.756	28021
807.898	27823
808.04	27812
808.182	27835
808.324	27694
808.465	27774
808.607	27994
808.749	28242
808.891	28234
809.033	28421
809.174	28246
809.316	28196
809.458	28249
809.6	28120
809.741	28234
809.883	28360
810.025	28577
810.166	28409
810.308	28459
810.45	28455
810.591	28363
810.733	28287
810.875	28192
811.016	28109
811.158	28010
811.299	28200
811.441	28257
811.582	28417
811.724	28143
811.865	28128
812.007	28082
812.148	28314
812.29	28188
812.431	28268
812.573	28405
812.714	28630
812.855	28717
812.997	28892
813.138	28858
813.279	28904
813.421	28656
813.562	28668
813.703	28421
813.845	28485
813.986	28173
814.127	28002
814.268	27861
814.41	27945
814.551	27911
814.692	27937
814.833	27816
814.974	27732
815.115	27846
815.256	27656
815.397	27854
815.539	27808
815.68	27671
815.821	27652
815.962	27713
816.103	27679
816.244	27561
816.385	27435
816.526	27462
816.666	27199
816.807	27135
816.948	27218
817.089	27393
817.23	27268
817.371	27173
817.512	27268
817.653	27252
817.793	27017
817.934	27233
818.075	27245
818.216	27199
818.356	27131
818.497	26967
818.638	27036
818.778	27020
818.919	26971
819.06	26883
819.2	26899
819.341	27024
819.481	27096
819.622	27302
819.762	27538
819.903	27287
820.043	27389
820.184	27340
820.324	27363
820.465	27477
820.605	27313
820.746	27306
820.886	27154
821.026	27264
821.167	27207
821.307	27222
821.447	27062
821.588	27013
821.728	26925
821.868	26891
822.008	26644
822.149	26598
822.289	26678
822.429	26370
822.569	26355
822.709	26370
822.849	26199
822.99	26305
823.13	26077
823.27	26176
823.41	25837
823.55	25856
823.69	25959
823.83	25944
823.97	25925
824.11	25769
824.25	25833
824.389	25883
824.529	25925
824.669	25757
824.809	25917
824.949	25909
825.089	25791
825.228	25955
825.368	25689
825.508	25639
825.648	25765
825.787	25757
825.927	25655
826.067	25556
826.206	25738
826.346	25742
826.485	25674
826.625	25616
826.765	25818
826.904	25780
827.044	25434
827.183	25533
827.323	25289
827.462	25518
827.601	25396
827.741	25453
827.88	25354
828.02	25175
828.159	25331
828.298	25430
828.437	25457
828.577	25297
828.716	25384
828.855	25133
828.994	25126
829.134	25061
829.273	25122
829.412	24992
829.551	25061
829.69	25137
829.829	25118
829.968	25076
830.107	25107
830.246	25168
830.385	25118
830.524	24996
830.663	24882
830.802	24844
830.941	24692
831.08	24620
831.219	24700
831.357	24753
831.496	24989
831.635	24650
831.774	24696
831.913	24684
832.051	24525
832.19	24566
832.329	24498
832.467	24479
832.606	24289
832.744	24346
832.883	24232
833.022	24270
833.16	24327
833.299	24433
833.437	24376
833.576	24365
833.714	24418
833.852	24323
833.991	24559
834.129	24544
834.267	24547
834.406	24445
834.544	24437
834.682	24505
834.821	24304
834.959	24570
835.097	24277
835.235	24502
835.373	24456
835.511	24357
835.65	24334
835.788	24220
835.926	24148
836.064	24163
836.202	24106
836.34	24273
836.478	24334
836.615	24266
836.753	24194
836.891	24429
837.029	24197
837.167	24258
837.305	24159
837.443	24220
837.58	24190
837.718	24262
837.856	24167
837.993	24125
838.131	24064
838.269	24003
838.406	24034
838.544	23897
838.681	23733
838.819	23805
838.956	23539
839.094	23600
839.231	23665
839.369	23760
839.506	24053
839.643	23836
839.781	23653
839.918	23425
840.055	23539
840.193	23535
840.33	23455
840.467	23482
840.604	23398
840.742	23737
840.879	23356
841.016	23341
841.153	23299
841.29	23627
841.427	23501
841.564	23509
841.701	23551
841.838	23406
841.975	23433
842.112	23269
842.249	23284
842.385	23250
842.522	23486
842.659	23174
842.796	23223
842.933	23181
843.069	23200
843.206	23113
843.343	23292
843.479	23429
843.616	23136
843.752	23018
843.889	22976
844.025	23227
844.162	23067
844.298	23124
844.435	22995
844.571	23064
844.708	23029
844.844	23094
844.98	23094
845.117	23261
845.253	23033
845.389	22828
845.525	22911
845.661	22786
845.798	22790
845.934	22877
846.07	22702
846.206	22790
846.342	22847
846.478	22717
846.614	22713
846.75	22375
846.886	22451
847.022	22653
847.158	22561
847.294	22516
847.429	22565
847.565	22352
847.701	22664
847.837	22238
847.972	22131
848.108	22242
848.244	22299
848.379	22226
848.515	22093
848.65	22097
848.786	21987
848.921	22124
849.057	22246
849.192	22207
849.328	22188
849.463	22139
849.598	22044
849.734	21899
849.869	21918
850.004	21751
850.14	21911
850.275	21793
850.41	21846
850.545	21785
850.68	21736
850.815	21888
850.95	21728
851.085	22044
851.22	21975
851.355	21850
851.49	21755
851.625	21838
851.76	21785
851.895	21644
852.03	21842
852.165	21709
852.299	21842
852.434	22040
852.569	21789
852.703	21949
852.838	21869
852.973	22013
853.107	21972
853.242	21739
853.376	21667
853.511	21644
853.645	21614
853.78	21835
853.914	21747
854.048	21580
854.183	21637
854.317	21755
854.451	21979
854.585	21629
854.72	21534
854.854	21785
854.988	21618
855.122	21633
855.256	21603
855.39	21641
855.524	21808
855.658	21709
855.792	21637
855.926	21720
856.06	21652
856.194	21808
856.327	21759
856.461	21701
856.595	21595
856.729	21679
856.862	21808
856.996	21755
857.13	21766
857.263	21701
857.397	21831
857.53	21644
857.664	21724
857.797	21724
857.931	21781
858.064	21633
858.197	21739
858.331	21739
858.464	21606
858.597	21515
858.731	21652
858.864	21747
858.997	21641
859.13	21641
859.263	21663
859.396	21793
859.529	21652
859.662	21568
859.795	21629
859.928	21797
860.061	21846
860.194	21956
860.327	21690
860.46	21739
860.592	21781
860.725	21876
860.858	21736
860.99	21561
861.123	21595
861.256	21743
861.388	21656
861.521	22432
861.653	21485
861.786	21386
861.918	21637
862.05	21686
862.183	21671
862.315	21671
862.447	21675
862.58	21496
862.712	21332
862.844	21408
862.976	21614
863.108	21389
863.24	21739
863.372	21329
863.504	21492
863.636	21370
863.768	21477
863.9	21412
864.032	21306
864.164	21412
864.296	21321
864.428	21519
864.559	21458
864.691	21363
864.823	21408
864.954	21359
865.086	21378
865.217	21264
865.349	21157
865.48	21218
865.612	21370
865.743	21340
865.875	21382
866.006	21268
866.137	21241
866.269	21241
866.4	21348
866.531	21150
866.662	21214
866.793	21260
866.924	21211
867.055	21237
867.186	21211
867.317	21184
867.448	21070
867.579	21085
867.71	21207
867.841	21036
867.972	21169
868.103	21180
868.233	21195
868.364	21150
868.495	21313
868.625	21500
868.756	21515
868.886	21408
869.017	21306
869.147	21534
869.278	21447
869.408	21435
869.539	21344
869.669	21557
869.799	21412
869.929	21629
870.06	21561
870.19	21789
870.32	21671
870.45	21892
870.58	21819
870.71	21903
870.84	21922
870.97	21751
871.1	21922
871.23	22006
871.36	22067
871.489	22013
871.619	21987
871.749	22029
871.879	22158
872.008	22158
872.138	22055
872.267	22082
872.397	21972
872.526	21903
872.656	21835
872.785	21918
872.915	22082
873.044	21994
873.173	22048
873.303	22078
873.432	22051
873.561	22131
873.69	22002
873.819	22021
873.948	22109
874.077	22109
874.206	22086
874.335	22070
874.464	22109
874.593	22242
874.722	22196
874.851	22512
874.979	22329
875.108	22413
875.237	22246
875.365	22097
875.494	22207
875.623	22325
875.751	22299
875.88	22394
876.008	22405
876.136	22489
876.265	22698
876.393	22774
876.521	22930
876.65	22763
876.778	22577
876.906	22618
877.034	22527
877.162	22577
877.29	22599
877.418	22698
877.546	22615
877.674	22675
877.802	22668
877.93	22599
878.058	22641
878.185	22409
878.313	22637
878.441	22527
878.568	22531
878.696	22641
878.824	22649
878.951	22721
879.079	22801
879.206	22885
879.333	22778
879.461	22664
879.588	22702
879.715	22748
879.842	22961
879.97	22603
880.097	22440
880.224	22462
880.351	22611
880.478	22500
880.605	22447
880.732	22424
880.859	22713
880.986	22531
881.112	22443
881.239	22280
881.366	22242
881.493	22070
881.619	22105
881.746	22032
881.872	22063
881.999	22040
882.125	22013
882.252	21972
882.378	21972
882.505	22051
882.631	21835
882.757	21698
882.883	21785
883.01	21751
883.136	21713
883.262	21568
883.388	21523
883.514	21705
883.64	21736
883.766	21717
883.892	21473
884.018	21519
884.143	21614
884.269	21690
884.395	21329
884.52	21275
884.646	21351
884.772	21310
884.897	21252
885.023	21439
885.148	21382
885.274	21511
885.399	21545
885.524	21294
885.65	21294
885.775	21428
885.9	21272
886.025	21386
886.15	21321
886.275	21176
886.4	21150
886.525	21374
886.65	21279
886.775	21310
886.9	21469
887.025	21618
887.149	21363
887.274	21176
887.399	21039
887.523	21173
887.648	21051
887.773	21093
887.897	21199
888.021	21154
888.146	20963
888.27	21207
888.395	21260
888.519	21062
888.643	21146
888.767	21100
888.891	21009
889.015	20937
889.139	20948
889.263	20887
889.387	21028
889.511	21108
889.635	21058
889.759	20967
889.883	20979
890.006	20960
890.13	20902
890.254	20918
890.377	20815
890.501	20632
890.624	20792
890.748	20667
890.871	20644
890.995	20377
891.118	20400
891.241	20381
891.364	20457
891.488	20609
891.611	20507
891.734	20461
891.857	20552
891.98	20389
892.103	20571
892.226	20492
892.349	20275
892.471	20195
892.594	20457
892.717	20320
892.839	20377
892.962	20244
893.085	20480
893.207	20404
893.33	20259
893.452	20324
893.575	20313
893.697	20328
893.819	20499
893.941	20518
894.064	20450
894.186	20206
894.308	20278
894.43	20393
894.552	20423
894.674	20560
894.796	20370
894.918	20271
895.04	20419
895.161	20415
895.283	20469
895.405	20271
895.526	20457
895.648	20415
895.769	20400
895.891	20339
896.012	20552
896.134	20442
896.255	20347
896.376	20317
896.498	20438
896.619	20400
896.74	20320
896.861	20366
896.982	20640
897.103	20807
897.224	20735
897.345	20701
897.466	20431
897.587	20507
897.708	20689
897.828	20602
897.949	20587
898.07	20377
898.19	20571
898.311	20552
898.431	20446
898.552	20431
898.672	20727
898.792	20674
898.913	20571
899.033	20442
899.153	20419
899.273	20336
899.393	20225
899.513	20339
899.633	20358
899.753	20294
899.873	20180
899.993	20244
900.113	20202
900.232	20248
900.352	20324
900.472	20062
900.591	20183
900.711	20138
900.83	20088
900.95	20149
901.069	20282
901.189	20001
901.308	19791
901.427	19719
901.546	19761
901.665	19753
901.784	19696
901.904	19575
902.023	19480
902.141	19324
902.26	19141
902.379	19362
902.498	19110
902.617	19152
902.735	19221
902.854	19145
902.973	19050
903.091	18817
903.21	18867
903.328	18749
903.446	18730
903.565	18730
903.683	18711
903.801	18388
903.919	18692
904.038	18585
904.156	18483
904.274	18540
904.392	18429
904.51	18327
904.627	18452
904.745	18448
904.863	18395
904.981	18281
905.098	18102
905.216	18148
905.334	18167
905.451	18095
905.569	18106
905.686	18087
905.803	18019
905.921	17885
906.038	17973
906.155	17999
906.272	17783
906.389	17828
906.506	17672
906.623	17649
906.74	17566
906.857	17474
906.974	17600
907.091	17668
907.208	17691
907.324	17623
907.441	17539
907.557	17235
907.674	17356
907.79	17220
907.907	17250
908.023	17402
908.139	17341
908.256	17250
908.372	17326
908.488	17223
908.604	17098
908.72	17048
908.836	17189
908.952	16957
909.068	17010
909.184	17197
909.3	17033
909.415	17067
909.531	17102
909.647	16774
909.762	16710
909.878	16660
909.993	16706
910.108	16710
910.224	16759
910.339	16660
910.454	16683
910.57	16485
910.685	16481
910.8	16816
910.915	16759
911.03	16485
911.145	16436
911.259	16356
911.374	16398
911.489	16173
911.604	16154
911.718	16120
911.833	16051
911.947	15979
912.062	15873
912.176	16071
912.291	16181
912.405	16071
912.519	16154
912.633	16265
912.748	16215
912.862	16059
912.976	15888
913.09	15812
913.204	15956
913.318	15903
913.431	15979
913.545	16006
913.659	16010
913.772	15831
913.886	15781
914	15682
914.113	15823
914.226	15831
914.34	15682
914.453	15675
914.566	15637
914.68	15641
914.793	15561
914.906	15389
915.019	15260
915.132	15214
915.245	15241
915.358	15306
915.47	15340
915.583	15382
915.696	15294
915.809	15401
915.921	15450
916.034	15222
916.146	15241
916.259	15195
916.371	15283
916.483	15275
916.595	15116
916.708	15142
916.82	15138
916.932	15013
917.044	15104
917.156	15062
917.268	14982
917.38	14906
917.491	14914
917.603	14921
917.715	15043
917.826	14952
917.938	14925
918.049	14788
918.161	14876
918.272	14994
918.384	14982
918.495	14861
918.606	14830
918.717	14689
918.828	14670
918.939	14758
919.05	14590
919.161	14610
919.272	14522
919.383	14537
919.494	14648
919.604	14921
919.715	14564
919.826	14571
919.936	14617
920.047	14674
920.157	14583
920.267	14857
920.378	14743
920.488	14636
920.598	14914
920.708	14941
920.818	14796
920.928	14720
921.038	14948
921.148	14864
921.258	14564
921.368	14556
921.477	14355
921.587	14389
921.697	14267
921.806	14415
921.916	14263
922.025	14149
922.134	14008
922.244	14001
922.353	14005
922.462	13906
922.571	13837
922.68	13727
922.789	13723
922.898	13700
923.007	13632
923.116	13597
923.224	13681
923.333	13655
923.442	13533
923.55	13544
923.659	13544
923.767	13552
923.876	13499
923.984	13567
924.092	13373
924.201	13499
924.309	13403
924.417	13480
924.525	13335
924.633	13419
924.741	14358
924.849	13225
924.956	13350
925.064	13213
925.172	13023
925.279	12993
925.387	13107
925.494	13168
925.602	13187
925.709	13247
925.816	13042
925.924	12981
926.031	13213
926.138	13057
926.245	13122
926.352	12954
926.459	13065
926.566	13141
926.673	13008
926.779	12821
926.886	12859
926.993	12620
927.099	12764
927.206	12642
927.312	12654
927.419	12745
927.525	12662
927.631	12635
927.737	12593
927.843	12502
927.95	12372
928.056	12448
928.162	12494
928.267	12585
928.373	13103
928.479	12604
928.585	12330
928.69	12460
928.796	12456
928.901	12323
929.007	12224
929.112	12399
929.218	12414
929.323	12224
929.428	12342
929.533	12365
929.638	12129
929.743	12220
929.848	12136
929.953	12110
930.058	12057
930.163	11885
930.267	11904
930.372	11992
930.477	11920
930.581	12068
930.685	11840
930.79	11851
930.894	11729
930.998	11794
931.103	11961
931.207	11551
931.311	11414
931.415	11429
931.519	11254
931.623	11140
