Data from test_V78500241_2650.txt Node
Date: Fri Mar 25 15:28:18 CST 2022
User: usil
Spectrometer: V785-0024
Trigger mode: 0
Integration Time (sec): 4.000000E-1
Scans to average: 1
Nonlinearity correction enabled: false
Boxcar width: 0
Storing dark spectrum: false
XAxis mode: Wavelengths
Number of Pixels in Spectrum: 1024
>>>>>Begin Spectral Data<<<<<
801.071	27024
801.214	26975
801.356	26830
801.499	26845
801.641	26522
801.783	26533
801.926	26670
802.068	26625
802.211	26461
802.353	26389
802.496	26278
802.638	26172
802.78	26149
802.923	26153
803.065	26096
803.208	26119
803.35	26290
803.492	26396
803.635	26457
803.777	26202
803.919	26366
804.061	26655
804.204	26362
804.346	26248
804.488	26290
804.63	26377
804.773	26206
804.915	26366
805.057	26423
805.199	26267
805.341	26438
805.483	26499
805.626	26461
805.768	26282
805.91	26537
806.052	26339
806.194	26328
806.336	26663
806.478	26469
806.62	26419
806.762	26476
806.904	26697
807.046	26891
807.188	26807
807.33	26933
807.472	26815
807.614	26708
807.756	26815
807.898	26720
808.04	26606
808.182	26804
808.324	26712
808.465	26720
808.607	26933
808.749	26948
808.891	27081
809.033	27173
809.174	27112
809.316	26971
809.458	27017
809.6	27017
809.741	27173
809.883	27135
810.025	27275
810.166	27260
810.308	27260
810.45	27154
810.591	27264
810.733	27055
810.875	26857
811.016	26800
811.158	26902
811.299	27104
811.441	27116
811.582	27294
811.724	27077
811.865	27024
812.007	26937
812.148	26940
812.29	27009
812.431	27188
812.573	27389
812.714	27374
812.855	27378
812.997	27412
813.138	27774
813.279	27462
813.421	27443
813.562	27424
813.703	27382
813.845	27104
813.986	26788
814.127	26864
814.268	26606
814.41	26701
814.551	26609
814.692	26758
814.833	26594
814.974	26606
815.115	26701
815.256	26613
815.397	26476
815.539	26549
815.68	26366
815.821	26336
815.962	26324
816.103	26434
816.244	26161
816.385	26202
816.526	26237
816.666	25978
816.807	25898
816.948	25951
817.089	25982
817.23	25947
817.371	25727
817.512	25887
817.653	25795
817.793	25906
817.934	25883
818.075	25993
818.216	25978
818.356	25852
818.497	25677
818.638	25658
818.778	25738
818.919	25746
819.06	25666
819.2	25830
819.341	25818
819.481	25871
819.622	26084
819.762	26252
819.903	26073
820.043	26046
820.184	26115
820.324	25951
820.465	26043
820.605	25993
820.746	26027
820.886	25879
821.026	26005
821.167	25818
821.307	25936
821.447	25947
821.588	25776
821.728	25628
821.868	25544
822.008	25464
822.149	25316
822.289	25400
822.429	25072
822.569	25004
822.709	24970
822.849	25027
822.99	24772
823.13	24905
823.27	24844
823.41	24612
823.55	24646
823.69	24749
823.83	24719
823.97	24764
824.11	24521
824.25	24414
824.389	24376
824.529	24642
824.669	24502
824.809	24593
824.949	24532
825.089	24494
825.228	24502
825.368	24281
825.508	24254
825.648	24403
825.787	24258
825.927	24445
826.067	24232
826.206	24285
826.346	24505
826.485	24414
826.625	24414
826.765	24365
826.904	24311
827.044	24152
827.183	24091
827.323	24011
827.462	24110
827.601	24232
827.741	24003
827.88	24091
828.02	24030
828.159	24049
828.298	23916
828.437	24030
828.577	23920
828.716	24106
828.855	24045
828.994	23703
829.134	23714
829.273	23836
829.412	23775
829.551	23703
829.69	23737
829.829	23851
829.968	23843
830.107	23912
830.246	23748
830.385	23843
830.524	23657
830.663	23627
830.802	23573
830.941	23497
831.08	23448
831.219	23558
831.357	23520
831.496	23535
831.635	23326
831.774	23410
831.913	23277
832.051	23200
832.19	23155
832.329	23124
832.467	23052
832.606	23121
832.744	22980
832.883	23083
833.022	23086
833.16	23048
833.299	23166
833.437	23090
833.576	23258
833.714	23044
833.852	23178
833.991	23277
834.129	23193
834.267	23113
834.406	23136
834.544	23235
834.682	23117
834.821	23109
834.959	23284
835.097	23094
835.235	22995
835.373	23132
835.511	23060
835.65	23071
835.788	23029
835.926	22896
836.064	22717
836.202	22767
836.34	22869
836.478	23098
836.615	23029
836.753	23071
836.891	23056
837.029	22976
837.167	22885
837.305	22900
837.443	22824
837.58	22896
837.718	22889
837.856	22927
837.993	22660
838.131	22786
838.269	22687
838.406	22820
838.544	22649
838.681	22504
838.819	22424
838.956	22489
839.094	22352
839.231	22398
839.369	22523
839.506	22733
839.643	22637
839.781	22318
839.918	22242
840.055	22322
840.193	22299
840.33	22173
840.467	22238
840.604	22402
840.742	22664
840.879	22154
841.016	22109
841.153	22166
841.29	22333
841.427	22272
841.564	22219
841.701	22246
841.838	22173
841.975	22097
842.112	22215
842.249	22078
842.385	22025
842.522	22341
842.659	22116
842.796	22112
842.933	22112
843.069	22013
843.206	21911
843.343	22036
843.479	22131
843.616	22131
843.752	21755
843.889	21800
844.025	21987
844.162	21785
844.298	21827
844.435	21743
844.571	21766
844.708	21743
844.844	21991
844.98	21945
845.117	21884
845.253	21857
845.389	21553
845.525	21663
845.661	21641
845.798	21511
845.934	21553
846.07	21545
846.206	21561
846.342	21629
846.478	21462
846.614	21279
846.75	21123
846.886	21272
847.022	21302
847.158	21207
847.294	21256
847.429	21386
847.565	21268
847.701	21389
847.837	20933
847.972	21009
848.108	21146
848.244	21013
848.379	20899
848.515	20804
848.65	20941
848.786	20891
848.921	21009
849.057	21074
849.192	20872
849.328	20914
849.463	20921
849.598	20754
849.734	20792
849.869	20705
850.004	20606
850.14	20564
850.275	20697
850.41	20518
850.545	20575
850.68	20609
850.815	20845
850.95	20617
851.085	20727
851.22	20705
851.355	20564
851.49	20579
851.625	20651
851.76	20568
851.895	20575
852.03	20621
852.165	20594
852.299	20720
852.434	20689
852.569	20476
852.703	20613
852.838	20682
852.973	20648
853.107	20659
853.242	20575
853.376	20503
853.511	20301
853.645	20381
853.78	20537
853.914	20514
854.048	20415
854.183	20396
854.317	20404
854.451	20575
854.585	20423
854.72	20454
854.854	20560
854.988	20370
855.122	20476
855.256	20404
855.39	20412
855.524	20583
855.658	20427
855.792	20446
855.926	20552
856.06	20511
856.194	20465
856.327	20423
856.461	20503
856.595	20419
856.729	20473
856.862	20480
856.996	20404
857.13	20533
857.263	20648
857.397	20427
857.53	20438
857.664	20518
857.797	20488
857.931	20568
858.064	20545
858.197	20644
858.331	20358
858.464	20476
858.597	20370
858.731	20343
858.864	20362
858.997	20362
859.13	20434
859.263	20412
859.396	20533
859.529	20381
859.662	20442
859.795	20218
859.928	20423
860.061	20541
860.194	20678
860.327	20503
860.46	20415
860.592	20560
860.725	20686
860.858	20457
860.99	20454
861.123	20396
861.256	20530
861.388	20412
861.521	21173
861.653	20278
861.786	20187
861.918	20214
862.05	20324
862.183	20377
862.315	20396
862.447	20518
862.58	20305
862.712	20240
862.844	20157
862.976	20202
863.108	20336
863.24	20625
863.372	20035
863.504	20191
863.636	20142
863.768	20176
863.9	20164
864.032	20107
864.164	20115
864.296	20267
864.428	20191
864.559	20142
864.691	20202
864.823	20195
864.954	20134
865.086	20206
865.217	20054
865.349	20126
865.48	20103
865.612	20126
865.743	20206
865.875	20244
866.006	20062
866.137	20103
866.269	20168
866.4	20039
866.531	19951
866.662	19959
866.793	19951
866.924	19944
867.055	19925
867.186	19970
867.317	20027
867.448	19879
867.579	20016
867.71	19917
867.841	19807
867.972	20096
868.103	20077
868.233	20050
868.364	19875
868.495	20206
868.625	20248
868.756	20374
868.886	20176
869.017	20263
869.147	20374
869.278	20522
869.408	20233
869.539	20221
869.669	20332
869.799	20256
869.929	20457
870.06	20400
870.19	20511
870.32	20503
870.45	20602
870.58	20621
870.71	20720
870.84	20674
870.97	20746
871.1	20651
871.23	20861
871.36	20811
871.489	20815
871.619	20845
871.749	20800
871.879	20944
872.008	21032
872.138	20785
872.267	20872
872.397	20769
872.526	20655
872.656	20724
872.785	20678
872.915	20800
873.044	21070
873.173	20895
873.303	21001
873.432	20902
873.561	20998
873.69	20944
873.819	20929
873.948	20830
874.077	21096
874.206	20735
874.335	20914
874.464	21001
874.593	21195
874.722	21062
874.851	21020
874.979	21233
875.108	21135
875.237	21093
875.365	21108
875.494	21032
875.623	21192
875.751	21066
875.88	21203
876.008	21302
876.136	21321
876.265	21557
876.393	21622
876.521	21698
876.65	21614
876.778	21526
876.906	21515
877.034	21542
877.162	21515
877.29	21534
877.418	21443
877.546	21408
877.674	21469
877.802	21481
877.93	21481
878.058	21428
878.185	21298
878.313	21374
878.441	21378
878.568	21233
878.696	21344
878.824	21488
878.951	21606
879.079	21667
879.206	21816
879.333	21618
879.461	21428
879.588	21564
879.715	21656
879.842	21717
879.97	21641
880.097	21310
880.224	21313
880.351	21405
880.478	21336
880.605	21260
880.732	21222
880.859	21492
880.986	21203
881.112	21302
881.239	21211
881.366	21024
881.493	21036
881.619	20876
881.746	20918
881.872	21001
881.999	20925
882.125	20792
882.252	20914
882.378	20876
882.505	21001
882.631	20857
882.757	20640
882.883	20644
883.01	20716
883.136	20564
883.262	20480
883.388	20511
883.514	20594
883.64	20701
883.766	20511
883.892	20423
884.018	20377
884.143	20731
884.269	20617
884.395	20389
884.52	20298
884.646	20244
884.772	20168
884.897	20195
885.023	20290
885.148	20389
885.274	20415
885.399	20393
885.524	20355
885.65	20259
885.775	20142
885.9	20191
886.025	20393
886.15	20324
886.275	20161
886.4	20122
886.525	20225
886.65	20176
886.775	20126
886.9	20434
887.025	20434
887.149	20164
887.274	20088
887.399	20050
887.523	19986
887.648	19967
887.773	20027
887.897	20172
888.021	19974
888.146	19932
888.27	20183
888.395	20138
888.519	19997
888.643	20100
888.767	19993
888.891	20058
889.015	19909
889.139	19898
889.263	19837
889.387	20046
889.511	19936
889.635	20081
889.759	19894
889.883	19795
890.006	19879
890.13	20012
890.254	19734
890.377	19788
890.501	19480
890.624	19628
890.748	19674
890.871	19540
890.995	19449
891.118	19411
891.241	19506
891.364	19548
891.488	19491
891.611	19502
891.734	19426
891.857	19476
891.98	19449
892.103	19499
892.226	19457
892.349	19411
892.471	19339
892.594	19415
892.717	19358
892.839	19331
892.962	19358
893.085	19400
893.207	19365
893.33	19339
893.452	19331
893.575	19358
893.697	19449
893.819	19506
893.941	19502
894.064	19670
894.186	19358
894.308	19335
894.43	19354
894.552	19594
894.674	19537
894.796	19236
894.918	19362
895.04	19362
895.161	19468
895.283	19434
895.405	19274
895.526	19506
895.648	19400
895.769	19464
895.891	19495
896.012	19430
896.134	19411
896.255	19457
896.376	19350
896.498	19419
896.619	19407
896.74	19324
896.861	19495
896.982	19704
897.103	19803
897.224	19761
897.345	19567
897.466	19559
897.587	19647
897.708	19776
897.828	19590
897.949	19472
898.07	19438
898.19	19590
898.311	19670
898.431	19594
898.552	19655
898.672	19757
898.792	19677
898.913	19693
899.033	19559
899.153	19460
899.273	19346
899.393	19327
899.513	19472
899.633	19373
899.753	19324
899.873	19225
899.993	19308
900.113	19392
900.232	19316
900.352	19301
900.472	19141
900.591	19232
900.711	19251
900.83	19126
900.95	19316
901.069	19213
901.189	18996
901.308	18791
901.427	18753
901.546	18806
901.665	18745
901.784	18741
901.904	18627
902.023	18566
902.141	18361
902.26	18254
902.379	18334
902.498	18194
902.617	18194
902.735	18311
902.854	18205
902.973	18232
903.091	17977
903.21	17897
903.328	18011
903.446	17912
903.565	17882
903.683	17783
903.801	17653
903.919	17767
904.038	17703
904.156	17501
904.274	17634
904.392	17482
904.51	17630
904.627	17444
904.745	17551
904.863	17558
904.981	17330
905.098	17269
905.216	17250
905.334	17220
905.451	17193
905.569	17151
905.686	17246
905.803	17181
905.921	17064
906.038	17170
906.155	16995
906.272	16862
906.389	16980
906.506	16771
906.623	16797
906.74	16771
906.857	16653
906.974	16729
907.091	16839
907.208	16805
907.324	16721
907.441	16706
907.557	16546
907.674	16512
907.79	16535
907.907	16599
908.023	16516
908.139	16497
908.256	16405
908.372	16402
908.488	16436
908.604	16230
908.72	16112
908.836	16310
908.952	16249
909.068	16181
909.184	16318
909.3	16242
909.415	16249
909.531	16181
909.647	15956
909.762	15934
909.878	15899
909.993	15926
910.108	15842
910.224	15854
910.339	15941
910.454	15972
910.57	15781
910.685	15641
910.8	15975
910.915	15827
911.03	15751
911.145	15545
911.259	15553
911.374	15530
911.489	15435
911.604	15317
911.718	15344
911.833	15386
911.947	15237
912.062	15165
912.176	15317
912.291	15359
912.405	15283
912.519	15504
912.633	15530
912.748	15283
912.862	15222
912.976	15161
913.09	15051
913.204	15055
913.318	15180
913.431	15249
913.545	15176
913.659	15264
913.772	15074
913.886	14967
914	14899
914.113	14967
914.226	15001
914.34	14963
914.453	14720
914.566	14891
914.68	14906
914.793	14758
914.906	14556
915.019	14598
915.132	14522
915.245	14476
915.358	14575
915.47	14522
915.583	14552
915.696	14640
915.809	14765
915.921	14594
916.034	14438
916.146	14393
916.259	14438
916.371	14446
916.483	14469
916.595	14328
916.708	14343
916.82	14461
916.932	14351
917.044	14492
917.156	14370
917.268	14195
917.38	14210
917.491	14218
917.603	14240
917.715	14259
917.826	14305
917.938	14172
918.049	14157
918.161	14126
918.272	14298
918.384	14309
918.495	14199
918.606	14008
918.717	13986
918.828	14020
918.939	14062
919.05	13928
919.161	13951
919.272	13814
919.383	13727
919.494	14031
919.604	14161
919.715	14020
919.826	13856
919.936	13925
920.047	14005
920.157	14005
920.267	14142
920.378	13947
920.488	13951
920.598	14111
920.708	14328
920.818	14161
920.928	14157
921.038	14214
921.148	14252
921.258	13860
921.368	13780
921.477	13776
921.587	13616
921.697	13601
921.806	13643
921.916	13571
922.025	13476
922.134	13316
922.244	13324
922.353	13445
922.462	13171
922.571	13187
922.68	13149
922.789	12966
922.898	12989
923.007	12924
923.116	13012
923.224	13038
923.333	12916
923.442	12795
923.55	12825
923.659	12825
923.767	12916
923.876	12730
923.984	12848
924.092	12772
924.201	12779
924.309	12757
924.417	12791
924.525	12700
924.633	12677
924.741	13613
924.849	12483
924.956	12612
925.064	12483
925.172	12361
925.279	12445
925.387	12509
925.494	12456
925.602	12601
925.709	12460
925.816	12308
925.924	12384
926.031	12555
926.138	12350
926.245	12509
926.352	12395
926.459	12422
926.566	12445
926.673	12334
926.779	12213
926.886	12213
926.993	12038
927.099	12015
927.206	11965
927.312	12003
927.419	12022
927.525	12076
927.631	12076
927.737	11942
927.843	11954
927.95	11828
928.056	11828
928.162	11882
928.267	11893
928.373	12445
928.479	11935
928.585	11649
928.69	11840
928.796	11920
928.901	11760
929.007	11604
929.112	11733
929.218	11752
929.323	11539
929.428	11596
929.533	11767
929.638	11520
929.743	11524
929.848	11562
929.953	11486
930.058	11459
930.163	11231
930.267	11406
930.372	11505
930.477	11273
930.581	11501
930.685	11292
930.79	11136
930.894	11220
930.998	11155
931.103	11364
931.207	10892
931.311	10866
931.415	10809
931.519	10641
931.623	10596
