Data from test_V78500241_3045.txt Node
Date: Fri Mar 25 15:31:03 CST 2022
User: usil
Spectrometer: V785-0024
Trigger mode: 0
Integration Time (sec): 4.000000E-1
Scans to average: 1
Nonlinearity correction enabled: false
Boxcar width: 0
Storing dark spectrum: false
XAxis mode: Wavelengths
Number of Pixels in Spectrum: 1024
>>>>>Begin Spectral Data<<<<<
801.071	27176
801.214	27260
801.356	26967
801.499	26845
801.641	26868
801.783	26667
801.926	26743
802.068	26678
802.211	26678
802.353	26670
802.496	26499
802.638	26442
802.78	26423
802.923	26351
803.065	26199
803.208	26294
803.35	26393
803.492	26632
803.635	26640
803.777	26480
803.919	26590
804.061	26868
804.204	26537
804.346	26438
804.488	26537
804.63	26518
804.773	26450
804.915	26568
805.057	26644
805.199	26484
805.341	26686
805.483	26648
805.626	26590
805.768	26568
805.91	26689
806.052	26716
806.194	26579
806.336	26910
806.478	26720
806.62	26602
806.762	26777
806.904	26963
807.046	27100
807.188	27096
807.33	27222
807.472	27260
807.614	26960
807.756	27093
807.898	27013
808.04	26883
808.182	26857
808.324	27089
808.465	26925
808.607	27043
808.749	27344
808.891	27336
809.033	27466
809.174	27397
809.316	27279
809.458	27298
809.6	27275
809.741	27420
809.883	27348
810.025	27553
810.166	27424
810.308	27595
810.45	27458
810.591	27386
810.733	27256
810.875	27256
811.016	27230
811.158	27283
811.299	27401
811.441	27393
811.582	27393
811.724	27336
811.865	27252
812.007	27230
812.148	27241
812.29	27199
812.431	27359
812.573	27561
812.714	27736
812.855	27774
812.997	27766
813.138	27804
813.279	27804
813.421	27701
813.562	27690
813.703	27656
813.845	27450
813.986	27104
814.127	27043
814.268	26804
814.41	26895
814.551	26834
814.692	26986
814.833	26819
814.974	26785
815.115	26960
815.256	26876
815.397	26861
815.539	26746
815.68	26819
815.821	26602
815.962	26701
816.103	26674
816.244	26552
816.385	26480
816.526	26446
816.666	26267
816.807	26020
816.948	26168
817.089	26313
817.23	26218
817.371	26100
817.512	26149
817.653	26168
817.793	26054
817.934	26183
818.075	26320
818.216	26153
818.356	26138
818.497	25989
818.638	25871
818.778	25947
818.919	25974
819.06	25963
819.2	26119
819.341	26122
819.481	26065
819.622	26415
819.762	26575
819.903	26484
820.043	26332
820.184	26237
820.324	26336
820.465	26324
820.605	26214
820.746	26275
820.886	26286
821.026	26252
821.167	26282
821.307	26355
821.447	26176
821.588	26096
821.728	25989
821.868	25811
822.008	25727
822.149	25731
822.289	25590
822.429	25308
822.569	25472
822.709	25316
822.849	25072
822.99	25019
823.13	24977
823.27	25027
823.41	25053
823.55	24886
823.69	25114
823.83	24905
823.97	24840
824.11	24700
824.25	24688
824.389	24700
824.529	24875
824.669	24684
824.809	24962
824.949	24928
825.089	24817
825.228	24734
825.368	24635
825.508	24483
825.648	24612
825.787	24661
825.927	24722
826.067	24589
826.206	24620
826.346	24677
826.485	24711
826.625	24715
826.765	24661
826.904	24730
827.044	24327
827.183	24418
827.323	24490
827.462	24292
827.601	24376
827.741	24361
827.88	24308
828.02	24232
828.159	24296
828.298	24197
828.437	24369
828.577	24350
828.716	24445
828.855	24201
828.994	24133
829.134	24011
829.273	24121
829.412	24038
829.551	23916
829.69	24007
829.829	24076
829.968	24064
830.107	24117
830.246	24026
830.385	23920
830.524	23961
830.663	23882
830.802	23714
830.941	23680
831.08	23695
831.219	23722
831.357	23760
831.496	23927
831.635	23649
831.774	23528
831.913	23448
832.051	23505
832.19	23429
832.329	23364
832.467	23299
832.606	23277
832.744	23254
832.883	23326
833.022	23311
833.16	23318
833.299	23459
833.437	23345
833.576	23391
833.714	23395
833.852	23433
833.991	23372
834.129	23501
834.267	23543
834.406	23455
834.544	23303
834.682	23429
834.821	23364
834.959	23478
835.097	23292
835.235	23414
835.373	23379
835.511	23356
835.65	23303
835.788	23280
835.926	23132
836.064	22972
836.202	23022
836.34	23277
836.478	23364
836.615	23315
836.753	23216
836.891	23242
837.029	23349
837.167	23181
837.305	23143
837.443	23071
837.58	22995
837.718	23296
837.856	23159
837.993	22896
838.131	23086
838.269	22965
838.406	23067
838.544	22904
838.681	22679
838.819	22630
838.956	22504
839.094	22538
839.231	22717
839.369	22706
839.506	22995
839.643	22706
839.781	22455
839.918	22523
840.055	22481
840.193	22371
840.33	22417
840.467	22436
840.604	22637
840.742	22774
840.879	22382
841.016	22519
841.153	22306
841.29	22626
841.427	22371
841.564	22363
841.701	22497
841.838	22386
841.975	22379
842.112	22356
842.249	22390
842.385	22295
842.522	22538
842.659	22337
842.796	22230
842.933	22116
843.069	22135
843.206	22173
843.343	22310
843.479	22185
843.616	22249
843.752	22063
843.889	21998
844.025	22162
844.162	22002
844.298	22067
844.435	22078
844.571	21937
844.708	22097
844.844	22116
844.98	22055
845.117	22029
845.253	21987
845.389	21998
845.525	21926
845.661	21842
845.798	21755
845.934	21793
846.07	21671
846.206	21846
846.342	21873
846.478	21743
846.614	21701
846.75	21469
846.886	21428
847.022	21568
847.158	21500
847.294	21561
847.429	21542
847.565	21450
847.701	21854
847.837	21138
847.972	21233
848.108	21329
848.244	21313
848.379	21062
848.515	21074
848.65	21039
848.786	21112
848.921	21066
849.057	21127
849.192	21173
849.328	21138
849.463	20998
849.598	20975
849.734	20933
849.869	20948
850.004	21013
850.14	20815
850.275	20925
850.41	20708
850.545	20781
850.68	20777
850.815	20739
850.95	20731
851.085	21009
851.22	20975
851.355	20834
851.49	20762
851.625	20830
851.76	20754
851.895	20777
852.03	20769
852.165	20762
852.299	20929
852.434	20883
852.569	20895
852.703	20937
852.838	21020
852.973	20990
853.107	20921
853.242	20750
853.376	20659
853.511	20522
853.645	20678
853.78	20819
853.914	20670
854.048	20663
854.183	20613
854.317	20708
854.451	20872
854.585	20636
854.72	20720
854.854	20842
854.988	20674
855.122	20716
855.256	20514
855.39	20606
855.524	20746
855.658	20655
855.792	20716
855.926	20648
856.06	20686
856.194	20746
856.327	20629
856.461	20503
856.595	20598
856.729	20590
856.862	20769
856.996	20689
857.13	20758
857.263	20838
857.397	20640
857.53	20621
857.664	20663
857.797	20708
857.931	20746
858.064	20686
858.197	20758
858.331	20636
858.464	20632
858.597	20575
858.731	20602
858.864	20625
858.997	20594
859.13	20602
859.263	20678
859.396	20663
859.529	20575
859.662	20697
859.795	20629
859.928	20613
860.061	20819
860.194	20849
860.327	20663
860.46	20750
860.592	20838
860.725	20727
860.858	20804
860.99	20594
861.123	20552
861.256	20545
861.388	20663
861.521	21275
861.653	20518
861.786	20526
861.918	20552
862.05	20556
862.183	20488
862.315	20606
862.447	20598
862.58	20530
862.712	20431
862.844	20309
862.976	20499
863.108	20393
863.24	20861
863.372	20358
863.504	20404
863.636	20438
863.768	20377
863.9	20438
864.032	20218
864.164	20336
864.296	20431
864.428	20427
864.559	20434
864.691	20465
864.823	20412
864.954	20336
865.086	20336
865.217	20259
865.349	20138
865.48	20221
865.612	20343
865.743	20431
865.875	20355
866.006	20278
866.137	20271
866.269	20286
866.4	20244
866.531	20164
866.662	20229
866.793	20240
866.924	20229
867.055	20271
867.186	20240
867.317	20191
867.448	20122
867.579	20145
867.71	20016
867.841	20111
867.972	20271
868.103	20153
868.233	20126
868.364	20332
868.495	20286
868.625	20465
868.756	20545
868.886	20317
869.017	20252
869.147	20571
869.278	20583
869.408	20476
869.539	20412
869.669	20488
869.799	20431
869.929	20507
870.06	20495
870.19	20830
870.32	20815
870.45	20750
870.58	20807
870.71	20906
870.84	20952
870.97	20887
871.1	20933
871.23	21024
871.36	20971
871.489	20952
871.619	21036
871.749	20963
871.879	21058
872.008	21142
872.138	21024
872.267	20982
872.397	20883
872.526	20899
872.656	20845
872.785	20948
872.915	21096
873.044	21074
873.173	21180
873.303	21100
873.432	21161
873.561	21188
873.69	21081
873.819	21055
873.948	21154
874.077	20941
874.206	20979
874.335	21036
874.464	21214
874.593	21351
874.722	21264
874.851	21279
874.979	21393
875.108	21511
875.237	21294
875.365	21211
875.494	21348
875.623	21443
875.751	21241
875.88	21382
876.008	21481
876.136	21553
876.265	21747
876.393	21934
876.521	21781
876.65	21823
876.778	21816
876.906	21690
877.034	21686
877.162	21736
877.29	21778
877.418	21622
877.546	21701
877.674	21717
877.802	21736
877.93	21648
878.058	21591
878.185	21477
878.313	21755
878.441	21622
878.568	21469
878.696	21542
878.824	21679
878.951	21686
879.079	21800
879.206	21884
879.333	21857
879.461	21682
879.588	21797
879.715	21922
879.842	21930
879.97	21660
880.097	21504
880.224	21564
880.351	21663
880.478	21485
880.605	21515
880.732	21568
880.859	21812
880.986	21462
881.112	21447
881.239	21321
881.366	21291
881.493	21154
881.619	21218
881.746	21184
881.872	21070
881.999	21089
882.125	21055
882.252	21131
882.378	21028
882.505	21062
882.631	20982
882.757	20842
882.883	20864
883.01	20929
883.136	20823
883.262	20640
883.388	20617
883.514	20746
883.64	20781
883.766	20689
883.892	20476
884.018	20587
884.143	20777
884.269	20944
884.395	20507
884.52	20377
884.646	20522
884.772	20400
884.897	20313
885.023	20621
885.148	20533
885.274	20617
885.399	20587
885.524	20442
885.65	20518
885.775	20438
885.9	20351
886.025	20522
886.15	20583
886.275	20385
886.4	20328
886.525	20427
886.65	20415
886.775	20400
886.9	20503
887.025	20617
887.149	20465
887.274	20218
887.399	20134
887.523	20161
887.648	20176
887.773	20221
887.897	20191
888.021	20252
888.146	20187
888.27	20259
888.395	20495
888.519	20244
888.643	20298
888.767	20347
888.891	20202
889.015	20035
889.139	20115
889.263	19993
889.387	20183
889.511	20256
889.635	20183
889.759	19974
889.883	19940
890.006	20107
890.13	20172
890.254	20043
890.377	20024
890.501	19689
890.624	19788
890.748	19909
890.871	19693
890.995	19651
891.118	19548
891.241	19689
891.364	19590
891.488	19712
891.611	19655
891.734	19594
891.857	19666
891.98	19597
892.103	19723
892.226	19632
892.349	19658
892.471	19354
892.594	19559
892.717	19506
892.839	19575
892.962	19514
893.085	19582
893.207	19609
893.33	19339
893.452	19369
893.575	19609
893.697	19586
893.819	19776
893.941	19890
894.064	19723
894.186	19422
894.308	19540
894.43	19632
894.552	19658
894.674	19742
894.796	19388
894.918	19537
895.04	19472
895.161	19605
895.283	19521
895.405	19499
895.526	19540
895.648	19575
895.769	19559
895.891	19624
896.012	19635
896.134	19586
896.255	19499
896.376	19468
896.498	19601
896.619	19620
896.74	19578
896.861	19559
896.982	19898
897.103	20054
897.224	19856
897.345	19727
897.466	19719
897.587	19791
897.708	19894
897.828	19883
897.949	19689
898.07	19681
898.19	19712
898.311	19826
898.431	19807
898.552	19685
898.672	19811
898.792	19883
898.913	19750
899.033	19689
899.153	19624
899.273	19540
899.393	19495
899.513	19552
899.633	19567
899.753	19567
899.873	19575
899.993	19495
900.113	19510
900.232	19575
900.352	19438
900.472	19392
900.591	19354
900.711	19362
900.83	19312
900.95	19464
901.069	19377
901.189	19251
901.308	18966
901.427	18981
901.546	18928
901.665	18962
901.784	18996
901.904	18745
902.023	18661
902.141	18490
902.26	18464
902.379	18536
902.498	18528
902.617	18308
902.735	18517
902.854	18475
902.973	18376
903.091	18171
903.21	18182
903.328	18079
903.446	18019
903.565	17942
903.683	17954
903.801	17843
903.919	17908
904.038	17828
904.156	17657
904.274	17775
904.392	17623
904.51	17657
904.627	17623
904.745	17752
904.863	17668
904.981	17463
905.098	17406
905.216	17398
905.334	17520
905.451	17307
905.569	17387
905.686	17429
905.803	17178
905.921	17246
906.038	17197
906.155	17193
906.272	17067
906.389	17025
906.506	16877
906.623	16877
906.74	16923
906.857	16881
906.974	16831
907.091	16942
907.208	16965
907.324	16938
907.441	16820
907.557	16816
907.674	16660
907.79	16656
907.907	16729
908.023	16641
908.139	16679
908.256	16603
908.372	16481
908.488	16394
908.604	16375
908.72	16432
908.836	16436
908.952	16375
909.068	16344
909.184	16451
909.3	16360
909.415	16371
909.531	16348
909.647	16048
909.762	16211
909.878	15953
909.993	16074
910.108	16044
910.224	16002
910.339	16044
910.454	15915
910.57	15873
910.685	15804
910.8	16116
910.915	16025
911.03	15732
911.145	15698
911.259	15618
911.374	15675
911.489	15572
911.604	15511
911.718	15405
911.833	15469
911.947	15435
912.062	15298
912.176	15496
912.291	15462
912.405	15408
912.519	15606
912.633	15599
912.748	15519
912.862	15386
912.976	15184
913.09	15138
913.204	15241
913.318	15230
913.431	15386
913.545	15230
913.659	15260
913.772	15184
913.886	15161
914	15043
914.113	15032
914.226	15233
914.34	15062
914.453	15024
914.566	15036
914.68	14956
914.793	14921
914.906	14724
915.019	14655
915.132	14617
915.245	14708
915.358	14625
915.47	14705
915.583	14716
915.696	14651
915.809	14674
915.921	14785
916.034	14613
916.146	14503
916.259	14522
916.371	14632
916.483	14674
916.595	14594
916.708	14461
916.82	14610
916.932	14484
917.044	14522
917.156	14454
917.268	14339
917.38	14404
917.491	14317
917.603	14267
917.715	14374
917.826	14423
917.938	14309
918.049	14199
918.161	14199
918.272	14370
918.384	14473
918.495	14259
918.606	14130
918.717	14134
918.828	14130
918.939	14191
919.05	14088
919.161	14210
919.272	13917
919.383	13959
919.494	14145
919.604	14259
919.715	14088
919.826	14069
919.936	14084
920.047	14240
920.157	14073
920.267	14187
920.378	14100
920.488	14039
920.598	14244
920.708	14358
920.818	14256
920.928	14130
921.038	14355
921.148	14263
921.258	13986
921.368	13925
921.477	13807
921.587	13845
921.697	13742
921.806	13795
921.916	13784
922.025	13647
922.134	13525
922.244	13419
922.353	13506
922.462	13434
922.571	13301
922.68	13217
922.789	13122
922.898	13053
923.007	13099
923.116	13122
923.224	13072
923.333	13168
923.442	13004
923.55	12954
923.659	13015
923.767	12985
923.876	12909
923.984	12943
924.092	12894
924.201	12844
924.309	12890
924.417	12897
924.525	12757
924.633	12844
924.741	13750
924.849	12620
924.956	12730
925.064	12570
925.172	12513
925.279	12509
925.387	12593
925.494	12532
925.602	12719
925.709	12574
925.816	12376
925.924	12437
926.031	12654
926.138	12532
926.245	12620
926.352	12372
926.459	12521
926.566	12589
926.673	12445
926.779	12315
926.886	12407
926.993	12209
927.099	12121
927.206	12072
927.312	12079
927.419	12194
927.525	12106
927.631	12178
927.737	12072
927.843	11999
927.95	11878
928.056	11954
928.162	11912
928.267	12026
928.373	12566
928.479	12068
928.585	11809
928.69	11916
928.796	11969
928.901	11912
929.007	11665
929.112	11832
929.218	11817
929.323	11748
929.428	11729
929.533	11817
929.638	11676
929.743	11726
929.848	11684
929.953	11703
930.058	11524
930.163	11337
930.267	11383
930.372	11528
930.477	11379
930.581	11566
930.685	11535
930.79	11311
930.894	11265
930.998	11292
931.103	11330
931.207	11060
931.311	10972
931.415	10984
931.519	10714
931.623	10714
