Data from test_V78500241_3343.txt Node
Date: Fri Mar 25 15:33:08 CST 2022
User: usil
Spectrometer: V785-0024
Trigger mode: 0
Integration Time (sec): 4.000000E-1
Scans to average: 1
Nonlinearity correction enabled: false
Boxcar width: 0
Storing dark spectrum: false
XAxis mode: Wavelengths
Number of Pixels in Spectrum: 1024
>>>>>Begin Spectral Data<<<<<
801.071	27135
801.214	27150
801.356	27074
801.499	26914
801.641	26857
801.783	26754
801.926	26792
802.068	26800
802.211	26731
802.353	26785
802.496	26651
802.638	26499
802.78	26374
802.923	26453
803.065	26256
803.208	26438
803.35	26320
803.492	26522
803.635	26739
803.777	26495
803.919	26625
804.061	26876
804.204	26606
804.346	26541
804.488	26446
804.63	26568
804.773	26495
804.915	26621
805.057	26746
805.199	26598
805.341	26583
805.483	26682
805.626	26788
805.768	26530
805.91	26758
806.052	26663
806.194	26640
806.336	26880
806.478	26663
806.62	26708
806.762	26762
806.904	26963
807.046	27188
807.188	27032
807.33	27161
807.472	27249
807.614	27047
807.756	26944
807.898	27036
808.04	26914
808.182	26899
808.324	26906
808.465	26960
808.607	27142
808.749	27397
808.891	27416
809.033	27504
809.174	27386
809.316	27218
809.458	27093
809.6	27214
809.741	27427
809.883	27310
810.025	27568
810.166	27724
810.308	27549
810.45	27553
810.591	27378
810.733	27401
810.875	27302
811.016	27154
811.158	27077
811.299	27363
811.441	27485
811.582	27332
811.724	27272
811.865	27214
812.007	27203
812.148	27226
812.29	27302
812.431	27416
812.573	27408
812.714	27648
812.855	27823
812.997	27778
813.138	27964
813.279	27869
813.421	27728
813.562	27694
813.703	27595
813.845	27393
813.986	27203
814.127	26982
814.268	27013
814.41	26998
814.551	26811
814.692	26804
814.833	26845
814.974	26933
815.115	26933
815.256	26804
815.397	26758
815.539	26735
815.68	26739
815.821	26765
815.962	26682
816.103	26693
816.244	26530
816.385	26381
816.526	26488
816.666	26328
816.807	26202
816.948	26267
817.089	26370
817.23	26237
817.371	26126
817.512	26206
817.653	26248
817.793	26199
817.934	26122
818.075	26183
818.216	26183
818.356	26229
818.497	26027
818.638	26035
818.778	25860
818.919	25974
819.06	25955
819.2	26092
819.341	26088
819.481	26058
819.622	26427
819.762	26511
819.903	26492
820.043	26385
820.184	26214
820.324	26259
820.465	26431
820.605	26362
820.746	26256
820.886	26221
821.026	26149
821.167	26278
821.307	26195
821.447	26119
821.588	26058
821.728	26069
821.868	25746
822.008	25635
822.149	25590
822.289	25601
822.429	25434
822.569	25346
822.709	25350
822.849	25244
822.99	25148
823.13	25027
823.27	25069
823.41	25019
823.55	24856
823.69	24981
823.83	24890
823.97	24920
824.11	24787
824.25	24867
824.389	24791
824.529	24776
824.669	24703
824.809	24802
824.949	24711
825.089	24840
825.228	24783
825.368	24688
825.508	24673
825.648	24616
825.787	24616
825.927	24669
826.067	24563
826.206	24616
826.346	24642
826.485	24661
826.625	24654
826.765	24802
826.904	24741
827.044	24555
827.183	24441
827.323	24486
827.462	24471
827.601	24330
827.741	24418
827.88	24315
828.02	24224
828.159	24357
828.298	24467
828.437	24277
828.577	24235
828.716	24418
828.855	24342
828.994	24159
829.134	24125
829.273	24121
829.412	24079
829.551	23992
829.69	24053
829.829	24163
829.968	24148
830.107	24201
830.246	24144
830.385	23931
830.524	23996
830.663	23893
830.802	23805
830.941	23691
831.08	23802
831.219	23817
831.357	23764
831.496	23885
831.635	23634
831.774	23668
831.913	23611
832.051	23444
832.19	23448
832.329	23592
832.467	23330
832.606	23334
832.744	23311
832.883	23387
833.022	23353
833.16	23246
833.299	23360
833.437	23452
833.576	23478
833.714	23406
833.852	23455
833.991	23520
834.129	23577
834.267	23482
834.406	23372
834.544	23585
834.682	23528
834.821	23383
834.959	23611
835.097	23311
835.235	23543
835.373	23486
835.511	23528
835.65	23212
835.788	23216
835.926	23261
836.064	23113
836.202	23044
836.34	23277
836.478	23337
836.615	23345
836.753	23387
836.891	23337
837.029	23368
837.167	23391
837.305	23197
837.443	23303
837.58	23162
837.718	23242
837.856	23242
837.993	23208
838.131	23170
838.269	23083
838.406	23113
838.544	22968
838.681	22767
838.819	22824
838.956	22767
839.094	22557
839.231	22679
839.369	22786
839.506	23018
839.643	22839
839.781	22588
839.918	22588
840.055	22577
840.193	22592
840.33	22615
840.467	22592
840.604	22713
840.742	22812
840.879	22421
841.016	22596
841.153	22421
841.29	22653
841.427	22664
841.564	22462
841.701	22538
841.838	22519
841.975	22474
842.112	22565
842.249	22424
842.385	22348
842.522	22607
842.659	22303
842.796	22360
842.933	22344
843.069	22409
843.206	22405
843.343	22405
843.479	22363
843.616	22341
843.752	22063
843.889	22135
844.025	22310
844.162	22090
844.298	22150
844.435	22109
844.571	22120
844.708	22215
844.844	22306
844.98	22242
845.117	22322
845.253	22086
845.389	21945
845.525	21991
845.661	21934
845.798	21808
845.934	21915
846.07	21869
846.206	21918
846.342	22036
846.478	21960
846.614	21648
846.75	21603
846.886	21576
847.022	21618
847.158	21709
847.294	21545
847.429	21591
847.565	21507
847.701	21838
847.837	21355
847.972	21241
848.108	21336
848.244	21355
848.379	21306
848.515	21074
848.65	21237
848.786	21176
848.921	21093
849.057	21154
849.192	21169
849.328	21165
849.463	21157
849.598	21203
849.734	21039
849.869	21024
850.004	20963
850.14	21013
850.275	20842
850.41	20781
850.545	20887
850.68	20895
850.815	20880
850.95	20910
851.085	21013
851.22	20952
851.355	20906
851.49	20944
851.625	20834
851.76	20887
851.895	20781
852.03	20807
852.165	20929
852.299	20910
852.434	20929
852.569	20967
852.703	20914
852.838	20990
852.973	21135
853.107	21112
853.242	20769
853.376	20705
853.511	20750
853.645	20663
853.78	20830
853.914	20781
854.048	20716
854.183	20792
854.317	20678
854.451	21001
854.585	20773
854.72	20701
854.854	20857
854.988	20693
855.122	20773
855.256	20693
855.39	20792
855.524	20823
855.658	20773
855.792	20743
855.926	20796
856.06	20788
856.194	20864
856.327	20758
856.461	20682
856.595	20716
856.729	20807
856.862	20967
856.996	20788
857.13	20861
857.263	20899
857.397	20830
857.53	20686
857.664	20731
857.797	20754
857.931	20868
858.064	20743
858.197	20929
858.331	20609
858.464	20735
858.597	20697
858.731	20788
858.864	20739
858.997	20651
859.13	20716
859.263	20705
859.396	20853
859.529	20807
859.662	20701
859.795	20773
859.928	20735
860.061	20845
860.194	20918
860.327	20663
860.46	20830
860.592	20891
860.725	20910
860.858	20807
860.99	20777
861.123	20625
861.256	20655
861.388	20781
861.521	21485
861.653	20667
861.786	20541
861.918	20549
862.05	20625
862.183	20655
862.315	20693
862.447	20735
862.58	20659
862.712	20480
862.844	20503
862.976	20670
863.108	20457
863.24	20902
863.372	20454
863.504	20473
863.636	20568
863.768	20518
863.9	20476
864.032	20488
864.164	20545
864.296	20545
864.428	20583
864.559	20533
864.691	20526
864.823	20457
864.954	20518
865.086	20511
865.217	20362
865.349	20366
865.48	20328
865.612	20381
865.743	20518
865.875	20454
866.006	20366
866.137	20415
866.269	20366
866.4	20225
866.531	20385
866.662	20309
866.793	20294
866.924	20229
867.055	20336
867.186	20362
867.317	20290
867.448	20153
867.579	20336
867.71	20229
867.841	20233
867.972	20347
868.103	20214
868.233	20294
868.364	20332
868.495	20438
868.625	20454
868.756	20682
868.886	20442
869.017	20617
869.147	20636
869.278	20686
869.408	20507
869.539	20465
869.669	20644
869.799	20476
869.929	20602
870.06	20571
870.19	20933
870.32	20834
870.45	20933
870.58	20899
870.71	21043
870.84	20990
870.97	21043
871.1	20982
871.23	21146
871.36	21252
871.489	20994
871.619	21180
871.749	21074
871.879	21241
872.008	21363
872.138	21173
872.267	21211
872.397	21051
872.526	21024
872.656	21070
872.785	20956
872.915	21123
873.044	21264
873.173	21032
873.303	21195
873.432	21218
873.561	21218
873.69	21173
873.819	21127
873.948	21233
874.077	21188
874.206	21161
874.335	21135
874.464	21260
874.593	21408
874.722	21397
874.851	21515
874.979	21424
875.108	21538
875.237	21405
875.365	21321
875.494	21348
875.623	21523
875.751	21325
875.88	21488
876.008	21523
876.136	21595
876.265	21937
876.393	21979
876.521	21857
876.65	21846
876.778	21778
876.906	21789
877.034	21880
877.162	21804
877.29	21709
877.418	21831
877.546	21835
877.674	21899
877.802	21842
877.93	21873
878.058	21797
878.185	21534
878.313	21701
878.441	21694
878.568	21629
878.696	21720
878.824	21842
878.951	21774
879.079	21865
879.206	22013
879.333	21816
879.461	21759
879.588	21838
879.715	21918
879.842	22002
879.97	21770
880.097	21652
880.224	21618
880.351	21705
880.478	21663
880.605	21523
880.732	21625
880.859	21797
880.986	21614
881.112	21591
881.239	21542
881.366	21370
881.493	21313
881.619	21176
881.746	21180
881.872	21116
881.999	21150
882.125	21119
882.252	21264
882.378	21074
882.505	21230
882.631	21077
882.757	20967
882.883	20933
883.01	20887
883.136	20952
883.262	20788
883.388	20644
883.514	20937
883.64	20765
883.766	20891
883.892	20571
884.018	20750
884.143	20815
884.269	20853
884.395	20735
884.52	20644
884.646	20480
884.772	20533
884.897	20511
885.023	20602
885.148	20640
885.274	20754
885.399	20590
885.524	20526
885.65	20587
885.775	20526
885.9	20476
886.025	20617
886.15	20632
886.275	20442
886.4	20461
886.525	20488
886.65	20431
886.775	20362
886.9	20629
887.025	20667
887.149	20446
887.274	20313
887.399	20290
887.523	20324
887.648	20328
887.773	20290
887.897	20423
888.021	20328
888.146	20233
888.27	20484
888.395	20469
888.519	20427
888.643	20377
888.767	20415
888.891	20252
889.015	20069
889.139	20225
889.263	20176
889.387	20271
889.511	20191
889.635	20149
889.759	20210
889.883	20122
890.006	20183
890.13	20206
890.254	19970
890.377	20069
890.501	19852
890.624	19814
890.748	19959
890.871	19795
890.995	19597
891.118	19772
891.241	19742
891.364	19681
891.488	19788
891.611	19685
891.734	19651
891.857	19807
891.98	19639
892.103	19628
892.226	19620
892.349	19696
892.471	19548
892.594	19578
892.717	19559
892.839	19594
892.962	19689
893.085	19803
893.207	19628
893.33	19476
893.452	19518
893.575	19662
893.697	19632
893.819	19757
893.941	19693
894.064	19578
894.186	19651
894.308	19525
894.43	19715
894.552	19613
894.674	19757
894.796	19624
894.918	19567
895.04	19533
895.161	19681
895.283	19544
895.405	19548
895.526	19582
895.648	19620
895.769	19616
895.891	19563
896.012	19632
896.134	19635
896.255	19647
896.376	19647
896.498	19601
896.619	19769
896.74	19578
896.861	19677
896.982	19883
897.103	20164
897.224	19951
897.345	19837
897.466	19761
897.587	19757
897.708	19917
897.828	19936
897.949	19776
898.07	19613
898.19	19742
898.311	19875
898.431	19822
898.552	19841
898.672	19944
898.792	19841
898.913	19887
899.033	19852
899.153	19712
899.273	19502
899.393	19537
899.513	19712
899.633	19472
899.753	19723
899.873	19552
899.993	19662
900.113	19586
900.232	19586
900.352	19548
900.472	19491
900.591	19384
900.711	19438
900.83	19259
900.95	19480
901.069	19495
901.189	19247
901.308	18981
901.427	19050
901.546	18916
901.665	19031
901.784	19031
901.904	18795
902.023	18684
902.141	18604
902.26	18483
902.379	18570
902.498	18566
902.617	18384
902.735	18585
902.854	18559
902.973	18384
903.091	18228
903.21	18102
903.328	18049
903.446	18087
903.565	17988
903.683	18015
903.801	17912
903.919	17961
904.038	17942
904.156	17752
904.274	17786
904.392	17859
904.51	17707
904.627	17691
904.745	17847
904.863	17897
904.981	17551
905.098	17353
905.216	17459
905.334	17512
905.451	17528
905.569	17402
905.686	17372
905.803	17395
905.921	17265
906.038	17235
906.155	17265
906.272	17200
906.389	17288
906.506	17037
906.623	16946
906.74	16889
906.857	16797
906.974	16938
907.091	16972
907.208	16938
907.324	17018
907.441	16816
907.557	16748
907.674	16771
907.79	16565
907.907	16573
908.023	16656
908.139	16710
908.256	16580
908.372	16580
908.488	16599
908.604	16428
908.72	16531
908.836	16424
908.952	16443
909.068	16394
909.184	16588
909.3	16394
909.415	16485
909.531	16375
909.647	16181
909.762	16048
909.878	16086
909.993	16128
910.108	16006
910.224	16067
910.339	16131
910.454	16010
910.57	15854
910.685	15934
910.8	16067
910.915	16162
911.03	15979
911.145	15819
911.259	15656
911.374	15713
911.489	15641
911.604	15644
911.718	15496
911.833	15424
911.947	15454
912.062	15298
912.176	15515
912.291	15564
912.405	15458
912.519	15667
912.633	15690
912.748	15473
912.862	15485
912.976	15351
913.09	15195
913.204	15256
913.318	15321
913.431	15405
913.545	15317
913.659	15393
913.772	15173
913.886	15142
914	15135
914.113	15119
914.226	15222
914.34	15150
914.453	14979
914.566	15142
914.68	14963
914.793	14891
914.906	14872
915.019	14667
915.132	14693
915.245	14670
915.358	14746
915.47	14743
915.583	14720
915.696	14773
915.809	14857
915.921	14830
916.034	14689
916.146	14602
916.259	14705
916.371	14716
916.483	14785
916.595	14659
916.708	14537
916.82	14568
916.932	14492
917.044	14522
917.156	14499
917.268	14389
917.38	14396
917.491	14351
917.603	14377
917.715	14415
917.826	14499
917.938	14339
918.049	14069
918.161	14351
918.272	14438
918.384	14473
918.495	14317
918.606	14107
918.717	14142
918.828	14176
918.939	14142
919.05	13947
919.161	14050
919.272	13932
919.383	13967
919.494	14240
919.604	14419
919.715	14259
919.826	14054
919.936	14096
920.047	14145
920.157	14123
920.267	14332
920.378	14126
920.488	13978
920.598	14309
920.708	14347
920.818	14202
920.928	14183
921.038	14492
921.148	14267
921.258	13997
921.368	14058
921.477	13921
921.587	13902
921.697	13811
921.806	13772
921.916	13674
922.025	13655
922.134	13464
922.244	13495
922.353	13559
922.462	13388
922.571	13293
922.68	13072
922.789	13202
922.898	13149
923.007	13076
923.116	13247
923.224	13179
923.333	13069
923.442	12989
923.55	13042
923.659	12993
923.767	13046
923.876	13015
923.984	12973
924.092	12810
924.201	12935
924.309	12871
924.417	12867
924.525	12897
924.633	12916
924.741	13791
924.849	12673
924.956	12829
925.064	12745
925.172	12494
925.279	12566
925.387	12547
925.494	12631
925.602	12768
925.709	12703
925.816	12509
925.924	12547
926.031	12635
926.138	12528
926.245	12528
926.352	12414
926.459	12532
926.566	12623
926.673	12445
926.779	12296
926.886	12426
926.993	12232
927.099	12289
927.206	12098
927.312	12045
927.419	12266
927.525	12125
927.631	12144
927.737	12117
927.843	12087
927.95	11923
928.056	12022
928.162	12152
928.267	11999
928.373	12448
928.479	12079
928.585	11821
928.69	11954
928.796	12011
928.901	11843
929.007	11790
929.112	11885
929.218	11798
929.323	11767
929.428	11737
929.533	11843
929.638	11642
929.743	11802
929.848	11699
929.953	11676
930.058	11596
930.163	11425
930.267	11497
930.372	11581
930.477	11402
930.581	11657
930.685	11471
930.79	11341
930.894	11356
930.998	11296
931.103	11421
931.207	11056
931.311	11025
931.415	10793
931.519	10698
931.623	10710
