Data from test_V78500241_2338.txt Node
Date: Fri Mar 25 15:26:08 CST 2022
User: usil
Spectrometer: V785-0024
Trigger mode: 0
Integration Time (sec): 4.000000E-1
Scans to average: 1
Nonlinearity correction enabled: false
Boxcar width: 0
Storing dark spectrum: false
XAxis mode: Wavelengths
Number of Pixels in Spectrum: 1024
>>>>>Begin Spectral Data<<<<<
801.071	27340
801.214	27412
801.356	27131
801.499	27108
801.641	27032
801.783	27055
801.926	27047
802.068	27028
802.211	26960
802.353	26868
802.496	26830
802.638	26560
802.78	26617
802.923	26453
803.065	26526
803.208	26541
803.35	26545
803.492	26804
803.635	26826
803.777	26663
803.919	26891
804.061	27077
804.204	26788
804.346	26720
804.488	26651
804.63	26804
804.773	26746
804.915	26864
805.057	26849
805.199	26636
805.341	26754
805.483	26933
805.626	26872
805.768	26853
805.91	26933
806.052	26967
806.194	26918
806.336	27058
806.478	26937
806.62	26899
806.762	27058
806.904	27306
807.046	27450
807.188	27348
807.33	27344
807.472	27351
807.614	27317
807.756	27298
807.898	27245
808.04	27142
808.182	27199
808.324	27382
808.465	27230
808.607	27355
808.749	27370
808.891	27648
809.033	27671
809.174	27492
809.316	27511
809.458	27488
809.6	27538
809.741	27591
809.883	27629
810.025	27717
810.166	27774
810.308	27766
810.45	27671
810.591	27610
810.733	27496
810.875	27272
811.016	27405
811.158	27161
811.299	27538
811.441	27622
811.582	27492
811.724	27466
811.865	27485
812.007	27618
812.148	27526
812.29	27496
812.431	27618
812.573	27793
812.714	27937
812.855	28006
812.997	28044
813.138	28131
813.279	28078
813.421	28143
813.562	28017
813.703	27781
813.845	27743
813.986	27523
814.127	27355
814.268	27127
814.41	27154
814.551	27096
814.692	27195
814.833	27245
814.974	27165
815.115	27085
815.256	27055
815.397	27093
815.539	27077
815.68	27039
815.821	26796
815.962	27005
816.103	26899
816.244	26785
816.385	26625
816.526	26629
816.666	26667
816.807	26484
816.948	26434
817.089	26693
817.23	26613
817.371	26446
817.512	26377
817.653	26465
817.793	26305
817.934	26263
818.075	26492
818.216	26488
818.356	26450
818.497	26317
818.638	26206
818.778	26214
818.919	26180
819.06	26339
819.2	26301
819.341	26396
819.481	26526
819.622	26556
819.762	26678
819.903	26674
820.043	26629
820.184	26575
820.324	26583
820.465	26495
820.605	26659
820.746	26442
820.886	26358
821.026	26583
821.167	26453
821.307	26427
821.447	26442
821.588	26374
821.728	26259
821.868	26122
822.008	26039
822.149	25906
822.289	25936
822.429	25685
822.569	25677
822.709	25537
822.849	25422
822.99	25445
823.13	25377
823.27	25354
823.41	25400
823.55	25118
823.69	25358
823.83	25217
823.97	25171
824.11	25129
824.25	24897
824.389	24901
824.529	25236
824.669	25133
824.809	25118
824.949	25148
825.089	25145
825.228	25126
825.368	24760
825.508	24837
825.648	24924
825.787	24897
825.927	25004
826.067	24833
826.206	24954
826.346	24981
826.485	25069
826.625	24947
826.765	25034
826.904	24951
827.044	24745
827.183	24612
827.323	24490
827.462	24635
827.601	24730
827.741	24582
827.88	24623
828.02	24532
828.159	24620
828.298	24627
828.437	24753
828.577	24570
828.716	24734
828.855	24532
828.994	24388
829.134	24407
829.273	24235
829.412	24190
829.551	24277
829.69	24209
829.829	24376
829.968	24311
830.107	24422
830.246	24372
830.385	24251
830.524	24178
830.663	24140
830.802	24083
830.941	23969
831.08	23923
831.219	24060
831.357	23980
831.496	24117
831.635	23942
831.774	23916
831.913	23802
832.051	23809
832.19	23707
832.329	23707
832.467	23596
832.606	23558
832.744	23524
832.883	23676
833.022	23414
833.16	23680
833.299	23665
833.437	23737
833.576	23722
833.714	23661
833.852	23714
833.991	23608
834.129	23642
834.267	23684
834.406	23676
834.544	23600
834.682	23684
834.821	23604
834.959	23847
835.097	23577
835.235	23771
835.373	23615
835.511	23638
835.65	23543
835.788	23471
835.926	23452
836.064	23349
836.202	23356
836.34	23444
836.478	23551
836.615	23326
836.753	23531
836.891	23589
837.029	23547
837.167	23425
837.305	23509
837.443	23322
837.58	23368
837.718	23330
837.856	23379
837.993	23315
838.131	23311
838.269	23083
838.406	23265
838.544	23132
838.681	22915
838.819	23014
838.956	22793
839.094	22900
839.231	22938
839.369	22953
839.506	23254
839.643	23037
839.781	22828
839.918	22805
840.055	22809
840.193	22668
840.33	22725
840.467	22790
840.604	22896
840.742	22873
840.879	22561
841.016	22729
841.153	22694
841.29	22873
841.427	22778
841.564	22733
841.701	22698
841.838	22679
841.975	22599
842.112	22683
842.249	22573
842.385	22485
842.522	22710
842.659	22432
842.796	22474
842.933	22504
843.069	22493
843.206	22413
843.343	22630
843.479	22584
843.616	22474
843.752	22196
843.889	22382
844.025	22306
844.162	22306
844.298	22249
844.435	22261
844.571	22303
844.708	22379
844.844	22337
844.98	22310
845.117	22405
845.253	22246
845.389	22097
845.525	22131
845.661	22139
845.798	22048
845.934	22063
846.07	21945
846.206	21972
846.342	22097
846.478	21956
846.614	21736
846.75	21728
846.886	21850
847.022	21720
847.158	21895
847.294	21816
847.429	21774
847.565	21682
847.701	21915
847.837	21587
847.972	21519
848.108	21576
848.244	21564
848.379	21435
848.515	21317
848.65	21325
848.786	21275
848.921	21340
849.057	21382
849.192	21408
849.328	21386
849.463	21313
849.598	21256
849.734	21275
849.869	21222
850.004	21005
850.14	21165
850.275	21077
850.41	21024
850.545	21070
850.68	21070
850.815	20971
850.95	21112
851.085	21336
851.22	21252
851.355	21226
851.49	21112
851.625	20998
851.76	20933
851.895	21005
852.03	21051
852.165	20956
852.299	21116
852.434	21291
852.569	21226
852.703	21062
852.838	21214
852.973	21260
853.107	21207
853.242	21005
853.376	20872
853.511	20823
853.645	20967
853.78	21013
853.914	20941
854.048	20929
854.183	20880
854.317	20998
854.451	21013
854.585	20906
854.72	20918
854.854	21020
854.988	20883
855.122	20902
855.256	20826
855.39	20895
855.524	20929
855.658	20994
855.792	20925
855.926	20918
856.06	21112
856.194	20990
856.327	20929
856.461	20811
856.595	20868
856.729	20925
856.862	21119
856.996	21089
857.13	20948
857.263	20982
857.397	21009
857.53	21039
857.664	21001
857.797	21039
857.931	21081
858.064	20975
858.197	21081
858.331	20883
858.464	20804
858.597	20895
858.731	20967
858.864	20941
858.997	20925
859.13	20773
859.263	20857
859.396	20883
859.529	20895
859.662	20975
859.795	20918
859.928	21043
860.061	21157
860.194	21112
860.327	20990
860.46	20872
860.592	20960
860.725	21051
860.858	21032
860.99	21017
861.123	20777
861.256	20872
861.388	20925
861.521	21428
861.653	20819
861.786	20724
861.918	20807
862.05	20880
862.183	20895
862.315	20811
862.447	20880
862.58	20895
862.712	20636
862.844	20587
862.976	20765
863.108	20716
863.24	21096
863.372	20613
863.504	20735
863.636	20686
863.768	20670
863.9	20674
864.032	20571
864.164	20514
864.296	20617
864.428	20720
864.559	20804
864.691	20792
864.823	20735
864.954	20560
865.086	20697
865.217	20598
865.349	20568
865.48	20556
865.612	20640
865.743	20788
865.875	20518
866.006	20431
866.137	20556
866.269	20473
866.4	20514
866.531	20431
866.662	20431
866.793	20461
866.924	20454
867.055	20461
867.186	20442
867.317	20415
867.448	20431
867.579	20476
867.71	20309
867.841	20389
867.972	20530
868.103	20514
868.233	20495
868.364	20571
868.495	20495
868.625	20613
868.756	20788
868.886	20663
869.017	20670
869.147	20731
869.278	20944
869.408	20720
869.539	20697
869.669	20872
869.799	20777
869.929	20906
870.06	20819
870.19	20914
870.32	20979
870.45	21055
870.58	21020
870.71	21123
870.84	21188
870.97	21058
871.1	21116
871.23	21313
871.36	21355
871.489	21233
871.619	21146
871.749	21298
871.879	21355
872.008	21454
872.138	21420
872.267	21329
872.397	21089
872.526	21154
872.656	21211
872.785	21112
872.915	21279
873.044	21466
873.173	21241
873.303	21370
873.432	21382
873.561	21408
873.69	21374
873.819	21260
873.948	21473
874.077	21348
874.206	21363
874.335	21393
874.464	21412
874.593	21599
874.722	21416
874.851	21545
874.979	21606
875.108	21660
875.237	21519
875.365	21580
875.494	21576
875.623	21633
875.751	21466
875.88	21622
876.008	21694
876.136	21861
876.265	22006
876.393	22143
876.521	22090
876.65	21968
876.778	21968
876.906	21998
877.034	21945
877.162	22006
877.29	21755
877.418	21888
877.546	21922
877.674	21899
877.802	21930
877.93	21968
878.058	21915
878.185	21755
878.313	21819
878.441	21884
878.568	21739
878.696	21892
878.824	21922
878.951	22017
879.079	22059
879.206	22192
879.333	22116
879.461	21915
879.588	22036
879.715	22173
879.842	22105
879.97	22059
880.097	21736
880.224	21857
880.351	21743
880.478	21797
880.605	21770
880.732	21778
880.859	21953
880.986	21724
881.112	21823
881.239	21587
881.366	21386
881.493	21439
881.619	21393
881.746	21332
881.872	21389
881.999	21340
882.125	21184
882.252	21389
882.378	21329
882.505	21424
882.631	21089
882.757	21150
882.883	21157
883.01	20986
883.136	20918
883.262	20910
883.388	20762
883.514	21028
883.64	20986
883.766	20868
883.892	20941
884.018	20914
884.143	20910
884.269	20986
884.395	20788
884.52	20602
884.646	20682
884.772	20640
884.897	20648
885.023	20727
885.148	20826
885.274	20861
885.399	20785
885.524	20590
885.65	20708
885.775	20659
885.9	20613
886.025	20701
886.15	20758
886.275	20602
886.4	20571
886.525	20644
886.65	20511
886.775	20522
886.9	20807
887.025	20887
887.149	20526
887.274	20579
887.399	20495
887.523	20511
887.648	20393
887.773	20355
887.897	20499
888.021	20355
888.146	20400
888.27	20507
888.395	20438
888.519	20484
888.643	20511
888.767	20351
888.891	20351
889.015	20191
889.139	20328
889.263	20161
889.387	20328
889.511	20446
889.635	20381
889.759	20282
889.883	20256
890.006	20294
890.13	20267
890.254	20206
890.377	20122
890.501	19947
890.624	19967
890.748	20084
890.871	19993
890.995	19898
891.118	19757
891.241	19803
891.364	19890
891.488	19951
891.611	19776
891.734	19852
891.857	19974
891.98	19860
892.103	19852
892.226	19868
892.349	19852
892.471	19639
892.594	19849
892.717	19753
892.839	19712
892.962	19772
893.085	19898
893.207	19765
893.33	19674
893.452	19723
893.575	19746
893.697	19864
893.819	20050
893.941	19993
894.064	19974
894.186	19734
894.308	19658
894.43	19944
894.552	19951
894.674	19898
894.796	19635
894.918	19864
895.04	19757
895.161	19860
895.283	19738
895.405	19712
895.526	19833
895.648	19742
895.769	19868
895.891	19799
896.012	19906
896.134	19780
896.255	19788
896.376	19772
896.498	19677
896.619	19799
896.74	19849
896.861	19906
896.982	20065
897.103	20229
897.224	20187
897.345	20031
897.466	19974
897.587	20081
897.708	20126
897.828	20092
897.949	20054
898.07	19898
898.19	19833
898.311	20088
898.431	19890
898.552	20012
898.672	20046
898.792	20081
898.913	20020
899.033	19757
899.153	19803
899.273	19719
899.393	19811
899.513	19769
899.633	19731
899.753	19822
899.873	19742
899.993	19826
900.113	19704
900.232	19563
900.352	19613
900.472	19632
900.591	19529
900.711	19708
900.83	19502
900.95	19677
901.069	19567
901.189	19476
901.308	19240
901.427	19110
901.546	19164
901.665	19217
901.784	19118
901.904	19065
902.023	18894
902.141	18745
902.26	18620
902.379	18833
902.498	18593
902.617	18532
902.735	18601
902.854	18642
902.973	18608
903.091	18391
903.21	18277
903.328	18418
903.446	18167
903.565	18098
903.683	18148
903.801	18015
903.919	18140
904.038	18045
904.156	17882
904.274	18019
904.392	17992
904.51	17752
904.627	17889
904.745	17961
904.863	18026
904.981	17699
905.098	17653
905.216	17379
905.334	17668
905.451	17611
905.569	17505
905.686	17596
905.803	17490
905.921	17296
906.038	17455
906.155	17421
906.272	17227
906.389	17254
906.506	17193
906.623	17094
906.74	17033
906.857	16976
906.974	16999
907.091	17102
907.208	17143
907.324	17174
907.441	17029
907.557	16968
907.674	16904
907.79	16812
907.907	16683
908.023	16763
908.139	16691
908.256	16774
908.372	16733
908.488	16672
908.604	16554
908.72	16493
908.836	16630
908.952	16596
909.068	16584
909.184	16599
909.3	16535
909.415	16634
909.531	16485
909.647	16253
909.762	16242
909.878	16147
909.993	16169
910.108	16295
910.224	16265
910.339	16223
910.454	16090
910.57	16082
910.685	15998
910.8	16341
910.915	16230
911.03	16067
911.145	15991
911.259	15869
911.374	15850
911.489	15861
911.604	15557
911.718	15587
911.833	15660
911.947	15553
912.062	15466
912.176	15564
912.291	15564
912.405	15584
912.519	15766
912.633	15857
912.748	15656
912.862	15572
912.976	15473
913.09	15325
913.204	15359
913.318	15397
913.431	15435
913.545	15443
913.659	15557
913.772	15363
913.886	15260
914	15249
914.113	15340
914.226	15283
914.34	15249
914.453	15112
914.566	15173
914.68	15188
914.793	15028
914.906	14952
915.019	14853
915.132	14781
915.245	14895
915.358	14864
915.47	14921
915.583	14880
915.696	14777
915.809	14918
915.921	15001
916.034	14663
916.146	14781
916.259	14765
916.371	14857
916.483	14758
916.595	14705
916.708	14701
916.82	14731
916.932	14670
917.044	14598
917.156	14556
917.268	14503
917.38	14648
917.491	14476
917.603	14564
917.715	14651
917.826	14549
917.938	14427
918.049	14389
918.161	14537
918.272	14629
918.384	14602
918.495	14434
918.606	14320
918.717	14309
918.828	14317
918.939	14256
919.05	14237
919.161	14225
919.272	14073
919.383	14130
919.494	14282
919.604	14480
919.715	14320
919.826	14115
919.936	14248
920.047	14199
920.157	14168
920.267	14419
920.378	14309
920.488	14195
920.598	14415
920.708	14465
920.818	14419
920.928	14259
921.038	14461
921.148	14457
921.258	14278
921.368	14130
921.477	14088
921.587	13982
921.697	13864
921.806	13936
921.916	13959
922.025	13681
922.134	13723
922.244	13655
922.353	13601
922.462	13472
922.571	13324
922.68	13282
922.789	13213
922.898	13293
923.007	13217
923.116	13339
923.224	13259
923.333	13175
923.442	13057
923.55	13061
923.659	13137
923.767	13122
923.876	12985
923.984	13175
924.092	12977
924.201	13027
924.309	13076
924.417	13084
924.525	13004
924.633	12806
924.741	13799
924.849	12791
924.956	12871
925.064	12760
925.172	12684
925.279	12696
925.387	12646
925.494	12642
925.602	12848
925.709	12715
925.816	12700
925.924	12719
926.031	12719
926.138	12623
926.245	12612
926.352	12525
926.459	12734
926.566	12753
926.673	12604
926.779	12509
926.886	12448
926.993	12365
927.099	12262
927.206	12254
927.312	12258
927.419	12304
927.525	12292
927.631	12277
927.737	12216
927.843	12091
927.95	12015
928.056	12144
928.162	12041
928.267	12167
928.373	12730
928.479	12140
928.585	11935
928.69	12091
928.796	12133
928.901	12034
929.007	11897
929.112	11882
929.218	11904
929.323	11794
929.428	11874
929.533	12015
929.638	11813
929.743	11790
929.848	11821
929.953	11817
930.058	11752
930.163	11532
930.267	11642
930.372	11646
930.477	11524
930.581	11714
930.685	11589
930.79	11398
930.894	11467
930.998	11345
931.103	11478
931.207	11227
931.311	11143
931.415	10953
931.519	10812
931.623	10805
