Data from test_V78500241_2613.txt Node
Date: Fri Mar 25 15:28:03 CST 2022
User: usil
Spectrometer: V785-0024
Trigger mode: 0
Integration Time (sec): 4.000000E-1
Scans to average: 1
Nonlinearity correction enabled: false
Boxcar width: 0
Storing dark spectrum: false
XAxis mode: Wavelengths
Number of Pixels in Spectrum: 1024
>>>>>Begin Spectral Data<<<<<
801.071	27157
801.214	27214
801.356	26785
801.499	26940
801.641	26750
801.783	26811
801.926	26735
802.068	26804
802.211	26571
802.353	26575
802.496	26579
802.638	26256
802.78	26461
802.923	26286
803.065	26362
803.208	26298
803.35	26199
803.492	26343
803.635	26469
803.777	26385
803.919	26366
804.061	26739
804.204	26613
804.346	26453
804.488	26351
804.63	26453
804.773	26480
804.915	26488
805.057	26682
805.199	26556
805.341	26568
805.483	26617
805.626	26750
805.768	26590
805.91	26693
806.052	26632
806.194	26629
806.336	26743
806.478	26629
806.62	26655
806.762	26792
806.904	26830
807.046	27180
807.188	27077
807.33	27112
807.472	27043
807.614	27036
807.756	27043
807.898	26906
808.04	26906
808.182	26800
808.324	26990
808.465	26864
808.607	27093
808.749	27142
808.891	27180
809.033	27382
809.174	27310
809.316	27195
809.458	27173
809.6	27188
809.741	27252
809.883	27408
810.025	27435
810.166	27561
810.308	27427
810.45	27332
810.591	27435
810.733	27348
810.875	27214
811.016	27104
811.158	27039
811.299	27264
811.441	27462
811.582	27332
811.724	27249
811.865	27089
812.007	27119
812.148	27058
812.29	27256
812.431	27283
812.573	27488
812.714	27431
812.855	27698
812.997	27762
813.138	27880
813.279	27846
813.421	27599
813.562	27690
813.703	27557
813.845	27435
813.986	27104
814.127	26929
814.268	26826
814.41	26925
814.551	26956
814.692	26979
814.833	26765
814.974	26773
815.115	26883
815.256	26655
815.397	26754
815.539	26705
815.68	26609
815.821	26571
815.962	26674
816.103	26705
816.244	26473
816.385	26263
816.526	26438
816.666	26202
816.807	26115
816.948	26187
817.089	26195
817.23	26149
817.371	26142
817.512	26046
817.653	26107
817.793	25963
817.934	26088
818.075	26153
818.216	26107
818.356	26020
818.497	26027
818.638	25890
818.778	25928
818.919	25879
819.06	26039
819.2	26054
819.341	26005
819.481	25986
819.622	26172
819.762	26419
819.903	26343
820.043	26301
820.184	26187
820.324	26206
820.465	26305
820.605	26229
820.746	26191
820.886	26016
821.026	26130
821.167	26168
821.307	26172
821.447	26100
821.588	26172
821.728	25986
821.868	25727
822.008	25715
822.149	25533
822.289	25605
822.429	25358
822.569	25221
822.709	25358
822.849	25099
822.99	25080
823.13	25152
823.27	25004
823.41	24905
823.55	24692
823.69	25038
823.83	24905
823.97	24837
824.11	24650
824.25	24658
824.389	24563
824.529	24795
824.669	24726
824.809	24726
824.949	24753
825.089	24764
825.228	24700
825.368	24601
825.508	24544
825.648	24646
825.787	24681
825.927	24692
826.067	24608
826.206	24578
826.346	24658
826.485	24604
826.625	24540
826.765	24692
826.904	24601
827.044	24471
827.183	24338
827.323	24346
827.462	24452
827.601	24448
827.741	24292
827.88	24182
828.02	24178
828.159	24277
828.298	24342
828.437	24403
828.577	24201
828.716	24460
828.855	24334
828.994	24076
829.134	24076
829.273	24022
829.412	23996
829.551	23893
829.69	23935
829.829	24053
829.968	24106
830.107	24057
830.246	24022
830.385	23897
830.524	23798
830.663	23802
830.802	23851
830.941	23783
831.08	23531
831.219	23638
831.357	23771
831.496	23931
831.635	23699
831.774	23638
831.913	23478
832.051	23482
832.19	23402
832.329	23364
832.467	23296
832.606	23318
832.744	23220
832.883	23360
833.022	23341
833.16	23284
833.299	23398
833.437	23444
833.576	23417
833.714	23337
833.852	23246
833.991	23273
834.129	23425
834.267	23474
834.406	23444
834.544	23376
834.682	23376
834.821	23387
834.959	23501
835.097	23395
835.235	23436
835.373	23417
835.511	23421
835.65	23185
835.788	23212
835.926	23083
836.064	23067
836.202	23197
836.34	23159
836.478	23376
836.615	23216
836.753	23159
836.891	23261
837.029	23185
837.167	23269
837.305	23162
837.443	23056
837.58	23025
837.718	23098
837.856	23098
837.993	22946
838.131	23155
838.269	23060
838.406	23025
838.544	22942
838.681	22729
838.819	22752
838.956	22588
839.094	22618
839.231	22569
839.369	22801
839.506	22896
839.643	22843
839.781	22599
839.918	22531
840.055	22527
840.193	22565
840.33	22546
840.467	22519
840.604	22573
840.742	22812
840.879	22394
841.016	22607
841.153	22459
841.29	22626
841.427	22481
841.564	22451
841.701	22428
841.838	22424
841.975	22424
842.112	22371
842.249	22421
842.385	22276
842.522	22436
842.659	22154
842.796	22207
842.933	22207
843.069	22242
843.206	22185
843.343	22265
843.479	22215
843.616	22280
843.752	22013
843.889	22116
844.025	22169
844.162	21983
844.298	22074
844.435	21979
844.571	22006
844.708	22055
844.844	22207
844.98	22090
845.117	22059
845.253	21975
845.389	21770
845.525	21941
845.661	21838
845.798	21747
845.934	21903
846.07	21667
846.206	21835
846.342	21899
846.478	21728
846.614	21511
846.75	21572
846.886	21496
847.022	21545
847.158	21492
847.294	21492
847.429	21450
847.565	21401
847.701	21823
847.837	21291
847.972	21195
848.108	21291
848.244	21367
848.379	21100
848.515	21062
848.65	21058
848.786	21036
848.921	21070
849.057	21291
849.192	21237
849.328	21192
849.463	21188
849.598	21066
849.734	21055
849.869	20944
850.004	20910
850.14	20765
850.275	20876
850.41	20811
850.545	20902
850.68	20758
850.815	20910
850.95	20948
851.085	21036
851.22	20982
851.355	20792
851.49	20895
851.625	20815
851.76	20830
851.895	20815
852.03	20826
852.165	20830
852.299	20845
852.434	20956
852.569	20883
852.703	20910
852.838	20902
852.973	20941
853.107	20971
853.242	20830
853.376	20739
853.511	20648
853.645	20575
853.78	20701
853.914	20686
854.048	20663
854.183	20727
854.317	20792
854.451	20971
854.585	20678
854.72	20705
854.854	20807
854.988	20617
855.122	20708
855.256	20533
855.39	20796
855.524	20834
855.658	20769
855.792	20724
855.926	20773
856.06	20655
856.194	20640
856.327	20659
856.461	20667
856.595	20762
856.729	20617
856.862	20765
856.996	20708
857.13	20724
857.263	20777
857.397	20830
857.53	20708
857.664	20716
857.797	20788
857.931	20765
858.064	20674
858.197	20735
858.331	20602
858.464	20609
858.597	20514
858.731	20594
858.864	20579
858.997	20735
859.13	20716
859.263	20769
859.396	20781
859.529	20667
859.662	20625
859.795	20678
859.928	20670
860.061	20788
860.194	20853
860.327	20788
860.46	20701
860.592	20857
860.725	20914
860.858	20750
860.99	20796
861.123	20587
861.256	20625
861.388	20731
861.521	21329
861.653	20530
861.786	20469
861.918	20522
862.05	20552
862.183	20530
862.315	20682
862.447	20568
862.58	20636
862.712	20495
862.844	20473
862.976	20347
863.108	20549
863.24	20872
863.372	20423
863.504	20484
863.636	20442
863.768	20381
863.9	20362
864.032	20301
864.164	20404
864.296	20328
864.428	20450
864.559	20560
864.691	20659
864.823	20438
864.954	20370
865.086	20336
865.217	20374
865.349	20183
865.48	20412
865.612	20374
865.743	20446
865.875	20358
866.006	20240
866.137	20313
866.269	20351
866.4	20259
866.531	20290
866.662	20244
866.793	20412
866.924	20229
867.055	20271
867.186	20244
867.317	20259
867.448	20100
867.579	20187
867.71	20191
867.841	20153
867.972	20263
868.103	20153
868.233	20202
868.364	20332
868.495	20339
868.625	20488
868.756	20495
868.886	20434
869.017	20533
869.147	20579
869.278	20632
869.408	20442
869.539	20465
869.669	20568
869.799	20461
869.929	20651
870.06	20629
870.19	20861
870.32	20644
870.45	20785
870.58	20876
870.71	21013
870.84	20914
870.97	20975
871.1	20891
871.23	21070
871.36	20941
871.489	21024
871.619	21058
871.749	21093
871.879	21024
872.008	21222
872.138	20986
872.267	21131
872.397	21123
872.526	20967
872.656	21032
872.785	20880
872.915	21127
873.044	21116
873.173	21154
873.303	21195
873.432	21131
873.561	21184
873.69	21180
873.819	21131
873.948	21203
874.077	21104
874.206	21051
874.335	21051
874.464	21302
874.593	21428
874.722	21226
874.851	21420
874.979	21447
875.108	21336
875.237	21313
875.365	21272
875.494	21534
875.623	21450
875.751	21306
875.88	21408
876.008	21488
876.136	21542
876.265	21808
876.393	21930
876.521	21762
876.65	21766
876.778	21838
876.906	21797
877.034	21614
877.162	21766
877.29	21625
877.418	21774
877.546	21770
877.674	21652
877.802	21660
877.93	21751
878.058	21778
878.185	21622
878.313	21663
878.441	21648
878.568	21610
878.696	21633
878.824	21694
878.951	21785
879.079	21903
879.206	22051
879.333	21926
879.461	21778
879.588	21854
879.715	21876
879.842	21941
879.97	21705
880.097	21595
880.224	21496
880.351	21625
880.478	21644
880.605	21439
880.732	21557
880.859	21755
880.986	21538
881.112	21606
881.239	21359
881.366	21199
881.493	21279
881.619	21222
881.746	21096
881.872	21142
881.999	21112
882.125	21066
882.252	21116
882.378	21039
882.505	21192
882.631	21085
882.757	20796
882.883	20963
883.01	20758
883.136	20815
883.262	20716
883.388	20697
883.514	20883
883.64	20876
883.766	20785
883.892	20602
884.018	20667
884.143	20811
884.269	20853
884.395	20568
884.52	20457
884.646	20507
884.772	20450
884.897	20366
885.023	20473
885.148	20625
885.274	20564
885.399	20625
885.524	20575
885.65	20526
885.775	20488
885.9	20450
886.025	20522
886.15	20602
886.275	20427
886.4	20393
886.525	20469
886.65	20362
886.775	20385
886.9	20514
887.025	20636
887.149	20454
887.274	20229
887.399	20210
887.523	20400
887.648	20271
887.773	20202
887.897	20305
888.021	20396
888.146	20122
888.27	20305
888.395	20332
888.519	20244
888.643	20370
888.767	20332
888.891	20187
889.015	20134
889.139	20031
889.263	20069
889.387	20164
889.511	20142
889.635	20142
889.759	20046
889.883	20027
890.006	20046
890.13	20145
890.254	19986
890.377	20043
890.501	19826
890.624	19826
890.748	19883
890.871	19727
890.995	19616
891.118	19670
891.241	19685
891.364	19803
891.488	19723
891.611	19624
891.734	19662
891.857	19670
891.98	19704
892.103	19616
892.226	19609
892.349	19578
892.471	19464
892.594	19510
892.717	19537
892.839	19632
892.962	19544
893.085	19613
893.207	19578
893.33	19388
893.452	19487
893.575	19578
893.697	19533
893.819	19731
893.941	19833
894.064	19655
894.186	19567
894.308	19449
894.43	19662
894.552	19666
894.674	19575
894.796	19518
894.918	19582
895.04	19571
895.161	19529
895.283	19540
895.405	19460
895.526	19643
895.648	19502
895.769	19571
895.891	19582
896.012	19620
896.134	19575
896.255	19499
896.376	19510
896.498	19480
896.619	19681
896.74	19620
896.861	19529
896.982	19887
897.103	20020
897.224	19822
897.345	19803
897.466	19734
897.587	19742
897.708	20043
897.828	19898
897.949	19681
898.07	19578
898.19	19670
898.311	19803
898.431	19727
898.552	19803
898.672	19799
898.792	19868
898.913	19917
899.033	19666
899.153	19624
899.273	19415
899.393	19483
899.513	19647
899.633	19449
899.753	19731
899.873	19460
899.993	19616
900.113	19575
900.232	19521
900.352	19457
900.472	19339
900.591	19304
900.711	19377
900.83	19282
900.95	19419
901.069	19403
901.189	19107
901.308	19004
901.427	18787
901.546	18863
901.665	18935
901.784	18890
901.904	18681
902.023	18696
902.141	18547
902.26	18502
902.379	18372
902.498	18384
902.617	18376
902.735	18433
902.854	18338
902.973	18296
903.091	18190
903.21	17961
903.328	18106
903.446	18057
903.565	17889
903.683	17882
903.801	17901
903.919	17916
904.038	17897
904.156	17661
904.274	17866
904.392	17775
904.51	17646
904.627	17767
904.745	17710
904.863	17684
904.981	17539
905.098	17364
905.216	17330
905.334	17345
905.451	17467
905.569	17360
905.686	17566
905.803	17307
905.921	17151
906.038	17383
906.155	17231
906.272	17159
906.389	17105
906.506	16885
906.623	16862
906.74	16881
906.857	16839
906.974	16858
907.091	16919
907.208	17018
907.324	16946
907.441	16748
907.557	16736
907.674	16626
907.79	16508
907.907	16500
908.023	16558
908.139	16626
908.256	16542
908.372	16561
908.488	16424
908.604	16436
908.72	16261
908.836	16348
908.952	16341
909.068	16352
909.184	16474
909.3	16314
909.415	16386
909.531	16390
909.647	16116
909.762	16044
909.878	16036
909.993	16185
910.108	16059
910.224	15998
910.339	15998
910.454	15972
910.57	15808
910.685	15831
910.8	15998
910.915	16025
911.03	15922
911.145	15717
911.259	15686
911.374	15629
911.489	15530
911.604	15492
911.718	15389
911.833	15431
911.947	15397
912.062	15279
912.176	15485
912.291	15515
912.405	15526
912.519	15686
912.633	15599
912.748	15561
912.862	15348
912.976	15146
913.09	15100
913.204	15081
913.318	15245
913.431	15279
913.545	15211
913.659	15272
913.772	15249
913.886	15142
914	15085
914.113	15123
914.226	15058
914.34	15097
914.453	14925
914.566	15032
914.68	14883
914.793	15001
914.906	14590
915.019	14845
915.132	14545
915.245	14587
915.358	14731
915.47	14663
915.583	14674
915.696	14625
915.809	14796
915.921	14811
916.034	14716
916.146	14625
916.259	14667
916.371	14640
916.483	14678
916.595	14476
916.708	14533
916.82	14503
916.932	14488
917.044	14507
917.156	14355
917.268	14366
917.38	14362
917.491	14423
917.603	14343
917.715	14286
917.826	14446
917.938	14252
918.049	14229
918.161	14332
918.272	14404
918.384	14484
918.495	14271
918.606	14149
918.717	14035
918.828	14126
918.939	14069
919.05	14005
919.161	14001
919.272	13959
919.383	13993
919.494	14103
919.604	14320
919.715	14058
919.826	14024
919.936	13989
920.047	14168
920.157	14065
920.267	14282
920.378	14043
920.488	14024
920.598	14134
920.708	14370
920.818	14221
920.928	14100
921.038	14412
921.148	14389
921.258	14054
921.368	13963
921.477	13826
921.587	13780
921.697	13704
921.806	13807
921.916	13693
922.025	13483
922.134	13411
922.244	13422
922.353	13582
922.462	13373
922.571	13274
922.68	13027
922.789	13091
922.898	13179
923.007	13034
923.116	13141
923.224	13164
923.333	13069
923.442	12958
923.55	12886
923.659	12996
923.767	13019
923.876	12897
923.984	12935
924.092	12859
924.201	12905
924.309	12875
924.417	12913
924.525	12848
924.633	12890
924.741	13772
924.849	12589
924.956	12654
925.064	12650
925.172	12551
925.279	12509
925.387	12578
925.494	12597
925.602	12673
925.709	12570
925.816	12422
925.924	12437
926.031	12582
926.138	12528
926.245	12452
926.352	12445
926.459	12494
926.566	12616
926.673	12395
926.779	12308
926.886	12289
926.993	12159
927.099	12125
927.206	12007
927.312	12159
927.419	12186
927.525	12155
927.631	12201
927.737	12091
927.843	12007
927.95	11958
928.056	11988
928.162	11977
928.267	12026
928.373	12593
928.479	12068
928.585	11863
928.69	11931
928.796	12011
928.901	11802
929.007	11745
929.112	11805
929.218	11870
929.323	11703
929.428	11661
929.533	11790
929.638	11600
929.743	11604
929.848	11668
929.953	11600
930.058	11615
930.163	11345
930.267	11364
930.372	11520
930.477	11368
930.581	11589
930.685	11383
930.79	11288
930.894	11353
930.998	11280
931.103	11372
931.207	11025
931.311	10995
931.415	10908
931.519	10668
931.623	10611
