Data from test_V78500241_3142.txt Node
Date: Fri Mar 25 15:31:44 CST 2022
User: usil
Spectrometer: V785-0024
Trigger mode: 0
Integration Time (sec): 4.000000E-1
Scans to average: 1
Nonlinearity correction enabled: false
Boxcar width: 0
Storing dark spectrum: false
XAxis mode: Wavelengths
Number of Pixels in Spectrum: 1024
>>>>>Begin Spectral Data<<<<<
801.071	27283
801.214	27058
801.356	26914
801.499	26811
801.641	26697
801.783	26640
801.926	26792
802.068	26720
802.211	26686
802.353	26507
802.496	26503
802.638	26381
802.78	26290
802.923	26301
803.065	26221
803.208	26282
803.35	26298
803.492	26396
803.635	26564
803.777	26427
803.919	26488
804.061	26754
804.204	26682
804.346	26358
804.488	26305
804.63	26503
804.773	26320
804.915	26549
805.057	26511
805.199	26446
805.341	26552
805.483	26613
805.626	26705
805.768	26377
805.91	26670
806.052	26541
806.194	26530
806.336	26674
806.478	26594
806.62	26560
806.762	26739
806.904	26773
807.046	27055
807.188	27001
807.33	27009
807.472	26960
807.614	26960
807.756	26906
807.898	26864
808.04	26804
808.182	26887
808.324	26826
808.465	26788
808.607	27074
808.749	27214
808.891	27291
809.033	27492
809.174	27093
809.316	27184
809.458	27108
809.6	27131
809.741	27279
809.883	27233
810.025	27443
810.166	27416
810.308	27462
810.45	27424
810.591	27359
810.733	27226
810.875	27226
811.016	27043
811.158	27081
811.299	27245
811.441	27351
811.582	27473
811.724	27241
811.865	27173
812.007	27241
812.148	27116
812.29	27165
812.431	27405
812.573	27519
812.714	27492
812.855	27831
812.997	27759
813.138	27968
813.279	27819
813.421	27789
813.562	27648
813.703	27492
813.845	27363
813.986	27032
814.127	26982
814.268	26845
814.41	26963
814.551	26800
814.692	26834
814.833	26765
814.974	26720
815.115	26910
815.256	26545
815.397	26731
815.539	26765
815.68	26552
815.821	26670
815.962	26682
816.103	26796
816.244	26530
816.385	26492
816.526	26351
816.666	26183
816.807	26088
816.948	26130
817.089	26294
817.23	26149
817.371	26142
817.512	26016
817.653	26043
817.793	26043
817.934	26134
818.075	26233
818.216	26130
818.356	26096
818.497	25902
818.638	25746
818.778	25780
818.919	25909
819.06	26077
819.2	26077
819.341	25902
819.481	25894
819.622	26286
819.762	26453
819.903	26343
820.043	26172
820.184	26172
820.324	26218
820.465	26267
820.605	26214
820.746	26081
820.886	26001
821.026	26256
821.167	26081
821.307	26210
821.447	26138
821.588	26020
821.728	25856
821.868	25658
822.008	25655
822.149	25643
822.289	25468
822.429	25232
822.569	25411
822.709	25289
822.849	25050
822.99	25137
823.13	24928
823.27	24962
823.41	24924
823.55	24829
823.69	24935
823.83	24741
823.97	24791
824.11	24715
824.25	24703
824.389	24669
824.529	24776
824.669	24631
824.809	24776
824.949	24749
825.089	24589
825.228	24749
825.368	24513
825.508	24620
825.648	24551
825.787	24612
825.927	24475
826.067	24456
826.206	24566
826.346	24620
826.485	24722
826.625	24505
826.765	24661
826.904	24639
827.044	24365
827.183	24304
827.323	24190
827.462	24323
827.601	24350
827.741	24205
827.88	24369
828.02	24224
828.159	24201
828.298	24300
828.437	24342
828.577	24194
828.716	24414
828.855	24247
828.994	24079
829.134	24007
829.273	24022
829.412	23889
829.551	23912
829.69	23859
829.829	24015
829.968	24072
830.107	24007
830.246	23920
830.385	23920
830.524	23946
830.663	23798
830.802	23699
830.941	23680
831.08	23604
831.219	23653
831.357	23672
831.496	23775
831.635	23604
831.774	23570
831.913	23376
832.051	23326
832.19	23429
832.329	23356
832.467	23200
832.606	23284
832.744	23109
832.883	23337
833.022	23273
833.16	23284
833.299	23288
833.437	23227
833.576	23337
833.714	23391
833.852	23356
833.991	23379
834.129	23417
834.267	23493
834.406	23372
834.544	23410
834.682	23486
834.821	23334
834.959	23486
835.097	23265
835.235	23455
835.373	23345
835.511	23292
835.65	23220
835.788	23349
835.926	23052
836.064	22896
836.202	22999
836.34	23212
836.478	23315
836.615	23117
836.753	23170
836.891	23280
837.029	23098
837.167	23155
837.305	23037
837.443	23052
837.58	23018
837.718	23113
837.856	23102
837.993	23018
838.131	22946
838.269	22938
838.406	22927
838.544	22949
838.681	22729
838.819	22668
838.956	22523
839.094	22527
839.231	22538
839.369	22687
839.506	22839
839.643	22835
839.781	22470
839.918	22447
840.055	22356
840.193	22500
840.33	22405
840.467	22447
840.604	22447
840.742	22763
840.879	22268
841.016	22219
841.153	22303
841.29	22561
841.427	22432
841.564	22527
841.701	22432
841.838	22531
841.975	22261
842.112	22375
842.249	22333
842.385	22261
842.522	22474
842.659	22386
842.796	22200
842.933	22185
843.069	22181
843.206	22162
843.343	22162
843.479	22226
843.616	22150
843.752	21991
843.889	22010
844.025	22059
844.162	21956
844.298	22070
844.435	22036
844.571	21880
844.708	22166
844.844	22120
844.98	22169
845.117	22029
845.253	22002
845.389	21831
845.525	21869
845.661	21808
845.798	21728
845.934	21819
846.07	21652
846.206	21713
846.342	21778
846.478	21709
846.614	21561
846.75	21481
846.886	21431
847.022	21515
847.158	21439
847.294	21466
847.429	21488
847.565	21473
847.701	21644
847.837	21184
847.972	21264
848.108	21340
848.244	21176
848.379	21074
848.515	21047
848.65	20944
848.786	21066
848.921	21070
849.057	21089
849.192	21135
849.328	21081
849.463	21028
849.598	20971
849.734	20880
849.869	20830
850.004	20781
850.14	20887
850.275	20811
850.41	20682
850.545	20727
850.68	20754
850.815	20758
850.95	20746
851.085	20975
851.22	20823
851.355	20960
851.49	20902
851.625	20743
851.76	20914
851.895	20712
852.03	20777
852.165	20769
852.299	20781
852.434	20785
852.569	20895
852.703	20830
852.838	20788
852.973	20925
853.107	20876
853.242	20712
853.376	20701
853.511	20632
853.645	20549
853.78	20792
853.914	20636
854.048	20632
854.183	20549
854.317	20560
854.451	20819
854.585	20549
854.72	20598
854.854	20750
854.988	20602
855.122	20579
855.256	20545
855.39	20495
855.524	20724
855.658	20648
855.792	20644
855.926	20667
856.06	20571
856.194	20689
856.327	20579
856.461	20708
856.595	20549
856.729	20587
856.862	20758
856.996	20667
857.13	20575
857.263	20807
857.397	20693
857.53	20621
857.664	20663
857.797	20560
857.931	20674
858.064	20739
858.197	20667
858.331	20560
858.464	20560
858.597	20632
858.731	20571
858.864	20556
858.997	20571
859.13	20667
859.263	20644
859.396	20670
859.529	20617
859.662	20640
859.795	20533
859.928	20552
860.061	20777
860.194	20906
860.327	20743
860.46	20594
860.592	20727
860.725	20663
860.858	20800
860.99	20602
861.123	20541
861.256	20484
861.388	20629
861.521	21077
861.653	20636
861.786	20377
861.918	20427
862.05	20644
862.183	20613
862.315	20712
862.447	20613
862.58	20602
862.712	20362
862.844	20332
862.976	20404
863.108	20476
863.24	20686
863.372	20328
863.504	20362
863.636	20385
863.768	20374
863.9	20374
864.032	20195
864.164	20332
864.296	20313
864.428	20351
864.559	20278
864.691	20423
864.823	20358
864.954	20309
865.086	20244
865.217	20252
865.349	20168
865.48	20248
865.612	20248
865.743	20404
865.875	20278
866.006	20206
866.137	20233
866.269	20248
866.4	20168
866.531	20267
866.662	20073
866.793	20225
866.924	20073
867.055	20134
867.186	20256
867.317	20100
867.448	20145
867.579	20199
867.71	20115
867.841	20206
867.972	20100
868.103	20107
868.233	20233
868.364	20206
868.495	20339
868.625	20366
868.756	20484
868.886	20412
869.017	20370
869.147	20518
869.278	20541
869.408	20427
869.539	20355
869.669	20446
869.799	20530
869.929	20465
870.06	20499
870.19	20785
870.32	20606
870.45	20777
870.58	20845
870.71	20891
870.84	20960
870.97	20929
871.1	20792
871.23	20998
871.36	20982
871.489	20815
871.619	21009
871.749	21116
871.879	21077
872.008	21138
872.138	21066
872.267	21058
872.397	20891
872.526	20758
872.656	20975
872.785	20914
872.915	21104
873.044	21070
873.173	21085
873.303	21112
873.432	21039
873.561	21268
873.69	21043
873.819	21104
873.948	21116
874.077	20918
874.206	20994
874.335	20971
874.464	21252
874.593	21214
874.722	21279
874.851	21233
874.979	21363
875.108	21302
875.237	21298
875.365	21291
875.494	21230
875.623	21302
875.751	21348
875.88	21260
876.008	21515
876.136	21485
876.265	21732
876.393	21797
876.521	21823
876.65	21762
876.778	21705
876.906	21633
877.034	21572
877.162	21618
877.29	21580
877.418	21720
877.546	21648
877.674	21713
877.802	21603
877.93	21610
878.058	21580
878.185	21549
878.313	21690
878.441	21778
878.568	21443
878.696	21534
878.824	21720
878.951	21736
879.079	21880
879.206	21994
879.333	21781
879.461	21774
879.588	21717
879.715	21869
879.842	21991
879.97	21766
880.097	21492
880.224	21515
880.351	21595
880.478	21485
880.605	21370
880.732	21542
880.859	21724
880.986	21473
881.112	21572
881.239	21401
881.366	21264
881.493	21230
881.619	21131
881.746	21074
881.872	20967
881.999	20937
882.125	21032
882.252	21096
882.378	20990
882.505	21131
882.631	20849
882.757	20716
882.883	20857
883.01	20804
883.136	20773
883.262	20724
883.388	20587
883.514	20826
883.64	20796
883.766	20693
883.892	20587
884.018	20552
884.143	20712
884.269	20720
884.395	20446
884.52	20419
884.646	20377
884.772	20351
884.897	20374
885.023	20442
885.148	20495
885.274	20537
885.399	20594
885.524	20442
885.65	20427
885.775	20385
885.9	20503
886.025	20488
886.15	20457
886.275	20457
886.4	20309
886.525	20446
886.65	20343
886.775	20275
886.9	20526
887.025	20644
887.149	20484
887.274	20256
887.399	20275
887.523	20221
887.648	20153
887.773	20050
887.897	20267
888.021	20214
888.146	20168
888.27	20290
888.395	20278
888.519	20248
888.643	20115
888.767	20286
888.891	20077
889.015	19951
889.139	20096
889.263	19974
889.387	20180
889.511	20183
889.635	20199
889.759	19974
889.883	20012
890.006	19993
890.13	20039
890.254	19955
890.377	19955
890.501	19791
890.624	19803
890.748	19803
890.871	19655
890.995	19495
891.118	19457
891.241	19639
891.364	19559
891.488	19605
891.611	19567
891.734	19586
891.857	19594
891.98	19540
892.103	19544
892.226	19609
892.349	19556
892.471	19476
892.594	19335
892.717	19582
892.839	19460
892.962	19575
893.085	19639
893.207	19460
893.33	19506
893.452	19464
893.575	19563
893.697	19476
893.819	19655
893.941	19655
894.064	19693
894.186	19396
894.308	19441
894.43	19556
894.552	19575
894.674	19601
894.796	19480
894.918	19544
895.04	19544
895.161	19518
895.283	19495
895.405	19441
895.526	19502
895.648	19495
895.769	19468
895.891	19529
896.012	19590
896.134	19628
896.255	19529
896.376	19434
896.498	19571
896.619	19635
896.74	19552
896.861	19628
896.982	19841
897.103	20039
897.224	19723
897.345	19731
897.466	19715
897.587	19712
897.708	19845
897.828	19811
897.949	19658
898.07	19616
898.19	19597
898.311	19845
898.431	19715
898.552	19655
898.672	19822
898.792	19860
898.913	19643
899.033	19594
899.153	19499
899.273	19464
899.393	19529
899.513	19453
899.633	19540
899.753	19533
899.873	19506
899.993	19670
900.113	19518
900.232	19457
900.352	19403
900.472	19369
900.591	19289
900.711	19293
900.83	19183
900.95	19434
901.069	19396
901.189	19156
901.308	18996
901.427	18833
901.546	18947
901.665	18932
901.784	18886
901.904	18787
902.023	18635
902.141	18483
902.26	18384
902.379	18395
902.498	18380
902.617	18369
902.735	18391
902.854	18388
902.973	18224
903.091	18110
903.21	18072
903.328	18159
903.446	17961
903.565	17843
903.683	17779
903.801	17847
903.919	17851
904.038	17767
904.156	17672
904.274	17729
904.392	17520
904.51	17566
904.627	17630
904.745	17604
904.863	17703
904.981	17433
905.098	17303
905.216	17269
905.334	17379
905.451	17402
905.569	17296
905.686	17398
905.803	17246
905.921	17048
906.038	17216
906.155	17258
906.272	17018
906.389	16976
906.506	16843
906.623	16812
906.74	16786
906.857	16774
906.974	16725
907.091	16961
907.208	16889
907.324	16904
907.441	16793
907.557	16656
907.674	16592
907.79	16527
907.907	16538
908.023	16645
908.139	16481
908.256	16603
908.372	16440
908.488	16382
908.604	16405
908.72	16257
908.836	16344
908.952	16169
909.068	16249
909.184	16417
909.3	16223
909.415	16409
909.531	16276
909.647	16010
909.762	16067
909.878	15899
909.993	16116
910.108	16006
910.224	15994
910.339	16029
910.454	15892
910.57	15854
910.685	15819
910.8	16074
910.915	16025
911.03	15762
911.145	15781
911.259	15682
911.374	15686
911.489	15496
911.604	15545
911.718	15348
911.833	15313
911.947	15401
912.062	15184
912.176	15416
912.291	15370
912.405	15447
912.519	15587
912.633	15580
912.748	15408
912.862	15378
912.976	15256
913.09	15123
913.204	15104
913.318	15180
913.431	15313
913.545	15260
913.659	15397
913.772	15218
913.886	15070
914	14895
914.113	15104
914.226	15097
914.34	15055
914.453	14853
914.566	15066
914.68	14868
914.793	14792
914.906	14686
915.019	14571
915.132	14598
915.245	14625
915.358	14686
915.47	14606
915.583	14602
915.696	14621
915.809	14735
915.921	14750
916.034	14602
916.146	14522
916.259	14564
916.371	14621
916.483	14598
916.595	14488
916.708	14476
916.82	14457
916.932	14355
917.044	14488
917.156	14381
917.268	14332
917.38	14229
917.491	14294
917.603	14347
917.715	14358
917.826	14480
917.938	14248
918.049	14100
918.161	14275
918.272	14305
918.384	14351
918.495	14221
918.606	14142
918.717	14039
918.828	14077
918.939	14111
919.05	14035
919.161	14081
919.272	13841
919.383	13890
919.494	14092
919.604	14218
919.715	14088
919.826	13928
919.936	14027
920.047	14183
920.157	14164
920.267	14138
920.378	14119
920.488	14050
920.598	14164
920.708	14358
920.818	14199
920.928	14119
921.038	14400
921.148	14275
921.258	13993
921.368	13906
921.477	13913
921.587	13734
921.697	13559
921.806	13833
921.916	13677
922.025	13514
922.134	13491
922.244	13384
922.353	13502
922.462	13282
922.571	13247
922.68	13160
922.789	13183
922.898	13118
923.007	13042
923.116	13126
923.224	13129
923.333	13122
923.442	12878
923.55	12787
923.659	12913
923.767	13000
923.876	12871
923.984	12985
924.092	12856
924.201	12878
924.309	12951
924.417	12817
924.525	12821
924.633	12783
924.741	13651
924.849	12578
924.956	12692
925.064	12563
925.172	12422
925.279	12517
925.387	12582
925.494	12578
925.602	12639
925.709	12593
925.816	12445
925.924	12437
926.031	12604
926.138	12536
926.245	12422
926.352	12365
926.459	12536
926.566	12467
926.673	12407
926.779	12262
926.886	12350
926.993	12159
927.099	12083
927.206	12057
927.312	12076
927.419	12117
927.525	12057
927.631	12117
927.737	12007
927.843	11935
927.95	11840
928.056	11942
928.162	11954
928.267	12015
928.373	12551
928.479	12102
928.585	11889
928.69	11904
928.796	11878
928.901	11878
929.007	11680
929.112	11748
929.218	11703
929.323	11718
929.428	11646
929.533	11843
929.638	11604
929.743	11570
929.848	11608
929.953	11634
930.058	11505
930.163	11334
930.267	11372
930.372	11547
930.477	11353
930.581	11638
930.685	11398
930.79	11269
930.894	11284
930.998	11235
931.103	11277
931.207	11124
931.311	10930
931.415	10869
931.519	10675
931.623	10599
