Data from test_V78500241_2561.txt Node
Date: Fri Mar 25 15:27:41 CST 2022
User: usil
Spectrometer: V785-0024
Trigger mode: 0
Integration Time (sec): 4.000000E-1
Scans to average: 1
Nonlinearity correction enabled: false
Boxcar width: 0
Storing dark spectrum: false
XAxis mode: Wavelengths
Number of Pixels in Spectrum: 1024
>>>>>Begin Spectral Data<<<<<
801.071	27195
801.214	27321
801.356	27070
801.499	26975
801.641	26944
801.783	26724
801.926	26815
802.068	26781
802.211	26762
802.353	26655
802.496	26606
802.638	26453
802.78	26408
802.923	26377
803.065	26358
803.208	26423
803.35	26389
803.492	26560
803.635	26476
803.777	26530
803.919	26598
804.061	26967
804.204	26602
804.346	26579
804.488	26552
804.63	26606
804.773	26457
804.915	26609
805.057	26636
805.199	26590
805.341	26602
805.483	26743
805.626	26807
805.768	26655
805.91	26777
806.052	26701
806.194	26750
806.336	26948
806.478	26678
806.62	26712
806.762	27032
806.904	26933
807.046	27085
807.188	27252
807.33	27085
807.472	27150
807.614	26914
807.756	27150
807.898	27047
808.04	26998
808.182	26960
808.324	27096
808.465	27104
808.607	27222
808.749	27283
808.891	27469
809.033	27386
809.174	27435
809.316	27313
809.458	27279
809.6	27199
809.741	27504
809.883	27526
810.025	27538
810.166	27633
810.308	27618
810.45	27709
810.591	27515
810.733	27336
810.875	27260
811.016	27283
811.158	27195
811.299	27313
811.441	27564
811.582	27401
811.724	27329
811.865	27192
812.007	27188
812.148	27237
812.29	27283
812.431	27435
812.573	27705
812.714	27686
812.855	27930
812.997	27918
813.138	28010
813.279	27918
813.421	27724
813.562	27724
813.703	27500
813.845	27389
813.986	27275
814.127	27100
814.268	27047
814.41	27096
814.551	26986
814.692	27055
814.833	26895
814.974	26868
815.115	27055
815.256	26819
815.397	26868
815.539	26880
815.68	26773
815.821	26648
815.962	26781
816.103	26792
816.244	26480
816.385	26389
816.526	26461
816.666	26248
816.807	26206
816.948	26256
817.089	26259
817.23	26225
817.371	26172
817.512	26168
817.653	26134
817.793	26324
817.934	26214
818.075	26180
818.216	26195
818.356	26244
818.497	26126
818.638	26001
818.778	25993
818.919	25963
819.06	26058
819.2	26073
819.341	26145
819.481	26199
819.622	26556
819.762	26587
819.903	26484
820.043	26332
820.184	26313
820.324	26381
820.465	26332
820.605	26374
820.746	26240
820.886	26252
821.026	26256
821.167	26442
821.307	26374
821.447	26221
821.588	26142
821.728	25944
821.868	26065
822.008	25715
822.149	25689
822.289	25761
822.429	25521
822.569	25369
822.709	25297
822.849	25415
822.99	25316
823.13	25103
823.27	25156
823.41	25065
823.55	24973
823.69	24970
823.83	25008
823.97	24924
824.11	24875
824.25	24787
824.389	24833
824.529	24996
824.669	24741
824.809	24996
824.949	24939
825.089	24894
825.228	24951
825.368	24631
825.508	24738
825.648	24814
825.787	24871
825.927	24760
826.067	24635
826.206	24639
826.346	24738
826.485	24798
826.625	24719
826.765	24764
826.904	24730
827.044	24589
827.183	24505
827.323	24357
827.462	24582
827.601	24517
827.741	24448
827.88	24574
828.02	24456
828.159	24521
828.298	24509
828.437	24547
828.577	24441
828.716	24536
828.855	24277
828.994	24030
829.134	24270
829.273	24216
829.412	24068
829.551	24053
829.69	24178
829.829	24182
829.968	24129
830.107	24186
830.246	24182
830.385	24045
830.524	24015
830.663	24060
830.802	23901
830.941	23695
831.08	23764
831.219	23821
831.357	23851
831.496	23904
831.635	23718
831.774	23802
831.913	23615
832.051	23577
832.19	23539
832.329	23497
832.467	23368
832.606	23436
832.744	23376
832.883	23512
833.022	23486
833.16	23467
833.299	23433
833.437	23478
833.576	23482
833.714	23512
833.852	23528
833.991	23524
834.129	23516
834.267	23520
834.406	23505
834.544	23585
834.682	23585
834.821	23562
834.959	23710
835.097	23459
835.235	23524
835.373	23558
835.511	23524
835.65	23372
835.788	23356
835.926	23162
836.064	23193
836.202	23185
836.34	23337
836.478	23402
836.615	23406
836.753	23330
836.891	23414
837.029	23334
837.167	23387
837.305	23296
837.443	23391
837.58	23208
837.718	23337
837.856	23277
837.993	23212
838.131	23170
838.269	23128
838.406	23128
838.544	23010
838.681	22881
838.819	22805
838.956	22793
839.094	22812
839.231	22767
839.369	22881
839.506	23269
839.643	22972
839.781	22679
839.918	22588
840.055	22653
840.193	22626
840.33	22634
840.467	22702
840.604	22618
840.742	22930
840.879	22611
841.016	22634
841.153	22618
841.29	22664
841.427	22580
841.564	22649
841.701	22653
841.838	22519
841.975	22573
842.112	22504
842.249	22443
842.385	22455
842.522	22626
842.659	22466
842.796	22390
842.933	22341
843.069	22322
843.206	22367
843.343	22557
843.479	22447
843.616	22306
843.752	22226
843.889	22215
844.025	22280
844.162	22135
844.298	22386
844.435	22253
844.571	22131
844.708	22185
844.844	22489
844.98	22249
845.117	22242
845.253	22135
845.389	21915
845.525	22006
845.661	21987
845.798	21911
845.934	21865
846.07	21945
846.206	21869
846.342	21907
846.478	21781
846.614	21816
846.75	21660
846.886	21637
847.022	21774
847.158	21682
847.294	21709
847.429	21637
847.565	21614
847.701	21835
847.837	21386
847.972	21477
848.108	21515
848.244	21393
848.379	21283
848.515	21298
848.65	21294
848.786	21279
848.921	21374
849.057	21321
849.192	21329
849.328	21393
849.463	21237
849.598	21279
849.734	21180
849.869	21127
850.004	21028
850.14	20967
850.275	20925
850.41	20971
850.545	20906
850.68	20925
850.815	21013
850.95	20914
851.085	21192
851.22	21085
851.355	20914
851.49	21039
851.625	20925
851.76	20883
851.895	20853
852.03	20975
852.165	20921
852.299	21039
852.434	21089
852.569	21051
852.703	20952
852.838	21104
852.973	21146
853.107	21127
853.242	20971
853.376	20883
853.511	20705
853.645	20754
853.78	21036
853.914	20785
854.048	20887
854.183	20773
854.317	21001
854.451	21036
854.585	20823
854.72	20842
854.854	20960
854.988	20781
855.122	20746
855.256	20636
855.39	20876
855.524	20902
855.658	20887
855.792	20876
855.926	20830
856.06	20880
856.194	20853
856.327	20857
856.461	20834
856.595	20731
856.729	20701
856.862	20979
856.996	20864
857.13	20887
857.263	21005
857.397	20952
857.53	20769
857.664	20864
857.797	20823
857.931	20937
858.064	20887
858.197	20986
858.331	20857
858.464	20754
858.597	20807
858.731	20941
858.864	20796
858.997	20735
859.13	20815
859.263	20796
859.396	20990
859.529	20762
859.662	20792
859.795	20796
859.928	20651
860.061	20891
860.194	21051
860.327	20929
860.46	20887
860.592	20861
860.725	21020
860.858	20941
860.99	20811
861.123	20796
861.256	20773
861.388	20807
861.521	21515
861.653	20629
861.786	20720
861.918	20629
862.05	20587
862.183	20648
862.315	20735
862.447	20712
862.58	20686
862.712	20651
862.844	20484
862.976	20644
863.108	20556
863.24	21047
863.372	20511
863.504	20556
863.636	20613
863.768	20632
863.9	20560
864.032	20427
864.164	20530
864.296	20667
864.428	20754
864.559	20648
864.691	20655
864.823	20598
864.954	20621
865.086	20613
865.217	20549
865.349	20343
865.48	20549
865.612	20484
865.743	20552
865.875	20438
866.006	20450
866.137	20556
866.269	20400
866.4	20385
866.531	20412
866.662	20415
866.793	20332
866.924	20446
867.055	20469
867.186	20488
867.317	20305
867.448	20366
867.579	20336
867.71	20282
867.841	20259
867.972	20355
868.103	20336
868.233	20324
868.364	20412
868.495	20438
868.625	20632
868.756	20716
868.886	20541
869.017	20697
869.147	20583
869.278	20758
869.408	20693
869.539	20708
869.669	20590
869.799	20533
869.929	20727
870.06	20807
870.19	20979
870.32	20948
870.45	21009
870.58	21055
870.71	21154
870.84	21131
870.97	20971
871.1	21066
871.23	21249
871.36	21116
871.489	21047
871.619	21260
871.749	21317
871.879	21180
872.008	21306
872.138	21332
872.267	21192
872.397	21123
872.526	21203
872.656	21081
872.785	20994
872.915	21310
873.044	21374
873.173	21245
873.303	21211
873.432	21279
873.561	21344
873.69	21279
873.819	21192
873.948	21401
874.077	21401
874.206	21237
874.335	21279
874.464	21428
874.593	21458
874.722	21583
874.851	21473
874.979	21564
875.108	21549
875.237	21469
875.365	21382
875.494	21435
875.623	21553
875.751	21450
875.88	21568
876.008	21622
876.136	21701
876.265	21876
876.393	22051
876.521	21956
876.65	22059
876.778	21930
876.906	21827
877.034	21911
877.162	21736
877.29	21831
877.418	21724
877.546	21755
877.674	21819
877.802	21770
877.93	21785
878.058	21713
878.185	21770
878.313	21778
878.441	21903
878.568	21694
878.696	21819
878.824	21797
878.951	21930
879.079	22021
879.206	22063
879.333	22029
879.461	21994
879.588	21732
879.715	21960
879.842	22139
879.97	21892
880.097	21614
880.224	21732
880.351	21766
880.478	21690
880.605	21713
880.732	21709
880.859	21895
880.986	21739
881.112	21701
881.239	21629
881.366	21496
881.493	21386
881.619	21268
881.746	21287
881.872	21329
881.999	21294
882.125	21161
882.252	21207
882.378	21192
882.505	21450
882.631	21047
882.757	20914
882.883	21074
883.01	20868
883.136	20921
883.262	20918
883.388	20872
883.514	21032
883.64	20929
883.766	20788
883.892	20758
884.018	20819
884.143	20792
884.269	20956
884.395	20670
884.52	20590
884.646	20609
884.772	20575
884.897	20476
885.023	20667
885.148	20636
885.274	20800
885.399	20659
885.524	20667
885.65	20773
885.775	20549
885.9	20568
886.025	20587
886.15	20659
886.275	20511
886.4	20568
886.525	20568
886.65	20507
886.775	20465
886.9	20773
887.025	20746
887.149	20613
887.274	20358
887.399	20457
887.523	20465
887.648	20412
887.773	20336
887.897	20412
888.021	20465
888.146	20358
888.27	20415
888.395	20362
888.519	20457
888.643	20362
888.767	20450
888.891	20267
889.015	20176
889.139	20199
889.263	20218
889.387	20218
889.511	20442
889.635	20324
889.759	20180
889.883	20130
890.006	20191
890.13	20332
890.254	20043
890.377	20100
890.501	19883
890.624	19963
890.748	19970
890.871	19887
890.995	19757
891.118	19639
891.241	19830
891.364	19746
891.488	19814
891.611	19772
891.734	19753
891.857	19830
891.98	19753
892.103	19909
892.226	19757
892.349	19696
892.471	19506
892.594	19609
892.717	19632
892.839	19715
892.962	19647
893.085	19833
893.207	19704
893.33	19445
893.452	19582
893.575	19651
893.697	19594
893.819	19795
893.941	19928
894.064	19807
894.186	19575
894.308	19597
894.43	19746
894.552	19879
894.674	19605
894.796	19529
894.918	19788
895.04	19605
895.161	19788
895.283	19704
895.405	19548
895.526	19738
895.648	19689
895.769	19753
895.891	19712
896.012	19753
896.134	19780
896.255	19597
896.376	19632
896.498	19696
896.619	19693
896.74	19696
896.861	19772
896.982	19967
897.103	20100
897.224	19925
897.345	19951
897.466	19982
897.587	19875
897.708	20058
897.828	20039
897.949	19807
898.07	19761
898.19	19849
898.311	19944
898.431	19814
898.552	19887
898.672	19940
898.792	20001
898.913	19902
899.033	19738
899.153	19746
899.273	19537
899.393	19594
899.513	19613
899.633	19700
899.753	19750
899.873	19613
899.993	19723
900.113	19757
900.232	19590
900.352	19586
900.472	19438
900.591	19377
900.711	19422
900.83	19403
900.95	19533
901.069	19487
901.189	19381
901.308	19129
901.427	18989
901.546	19053
901.665	19038
901.784	19046
901.904	18863
902.023	18795
902.141	18646
902.26	18559
902.379	18544
902.498	18532
902.617	18498
902.735	18532
902.854	18494
902.973	18494
903.091	18201
903.21	18209
903.328	18243
903.446	18209
903.565	18076
903.683	18057
903.801	17863
903.919	17931
904.038	17885
904.156	17824
904.274	17859
904.392	17851
904.51	17775
904.627	17775
904.745	18003
904.863	17840
904.981	17630
905.098	17448
905.216	17505
905.334	17440
905.451	17573
905.569	17474
905.686	17493
905.803	17516
905.921	17345
906.038	17311
906.155	17337
906.272	17166
906.389	17170
906.506	16839
906.623	17003
906.74	17060
906.857	16961
906.974	17010
907.091	17159
907.208	17212
907.324	17117
907.441	16984
907.557	16687
907.674	16679
907.79	16611
907.907	16603
908.023	16729
908.139	16759
908.256	16672
908.372	16706
908.488	16573
908.604	16447
908.72	16360
908.836	16523
908.952	16485
909.068	16474
909.184	16618
909.3	16550
909.415	16527
909.531	16459
909.647	16230
909.762	16318
909.878	16181
909.993	16226
910.108	16177
910.224	16139
910.339	16158
910.454	16002
910.57	16002
910.685	15873
910.8	16226
910.915	16097
911.03	16059
911.145	15865
911.259	15827
911.374	15869
911.489	15720
911.604	15641
911.718	15648
911.833	15542
911.947	15568
912.062	15515
912.176	15580
912.291	15614
912.405	15561
912.519	15827
912.633	15660
912.748	15477
912.862	15614
912.976	15389
913.09	15169
913.204	15291
913.318	15317
913.431	15420
913.545	15443
913.659	15412
913.772	15310
913.886	15188
914	15108
914.113	15192
914.226	15245
914.34	15150
914.453	15055
914.566	15207
914.68	15005
914.793	14998
914.906	14750
915.019	14792
915.132	14682
915.245	14830
915.358	14716
915.47	14746
915.583	14785
915.696	14720
915.809	14826
915.921	14895
916.034	14648
916.146	14674
916.259	14720
916.371	14743
916.483	14727
916.595	14617
916.708	14575
916.82	14644
916.932	14549
917.044	14579
917.156	14579
917.268	14469
917.38	14537
917.491	14408
917.603	14438
917.715	14522
917.826	14492
917.938	14347
918.049	14263
918.161	14298
918.272	14484
918.384	14480
918.495	14404
918.606	14195
918.717	14138
918.828	14187
918.939	14229
919.05	14065
919.161	14214
919.272	13967
919.383	14039
919.494	14259
919.604	14400
919.715	14202
919.826	14020
919.936	14126
920.047	14214
920.157	14199
920.267	14347
920.378	14237
920.488	14050
920.598	14324
920.708	14454
920.818	14248
920.928	14324
921.038	14495
921.148	14381
921.258	14073
921.368	14050
921.477	13928
921.587	13944
921.697	13704
921.806	13921
921.916	13784
922.025	13586
922.134	13567
922.244	13590
922.353	13609
922.462	13480
922.571	13388
922.68	13289
922.789	13225
922.898	13270
923.007	13228
923.116	13225
923.224	13194
923.333	13183
923.442	13065
923.55	13091
923.659	13107
923.767	13072
923.876	12886
923.984	13091
924.092	13034
924.201	13004
924.309	12958
924.417	12954
924.525	12935
924.633	12981
924.741	13750
924.849	12684
924.956	12878
925.064	12696
925.172	12559
925.279	12707
925.387	12776
925.494	12616
925.602	12730
925.709	12673
925.816	12517
925.924	12544
926.031	12631
926.138	12669
926.245	12700
926.352	12506
926.459	12506
926.566	12589
926.673	12429
926.779	12422
926.886	12437
926.993	12197
927.099	12197
927.206	12247
927.312	12117
927.419	12197
927.525	12235
927.631	12216
927.737	12114
927.843	12068
927.95	11931
928.056	12003
928.162	12038
928.267	12110
928.373	12582
928.479	12159
928.585	11889
928.69	12060
928.796	12045
928.901	11847
929.007	11840
929.112	11954
929.218	11851
929.323	11802
929.428	11855
929.533	11901
929.638	11832
929.743	11748
929.848	11775
929.953	11680
930.058	11649
930.163	11433
930.267	11436
930.372	11684
930.477	11402
930.581	11619
930.685	11547
930.79	11315
930.894	11379
930.998	11303
931.103	11497
931.207	11075
931.311	11079
931.415	10957
931.519	10850
931.623	10656
