Data from test_V78500241_2545.txt Node
Date: Fri Mar 25 15:27:34 CST 2022
User: usil
Spectrometer: V785-0024
Trigger mode: 0
Integration Time (sec): 4.000000E-1
Scans to average: 1
Nonlinearity correction enabled: false
Boxcar width: 0
Storing dark spectrum: false
XAxis mode: Wavelengths
Number of Pixels in Spectrum: 1024
>>>>>Begin Spectral Data<<<<<
801.071	27119
801.214	27195
801.356	27005
801.499	27112
801.641	26937
801.783	26750
801.926	26933
802.068	26914
802.211	26701
802.353	26716
802.496	26461
802.638	26423
802.78	26400
802.923	26415
803.065	26469
803.208	26328
803.35	26434
803.492	26530
803.635	26594
803.777	26556
803.919	26598
804.061	26845
804.204	26640
804.346	26518
804.488	26564
804.63	26533
804.773	26545
804.915	26587
805.057	26617
805.199	26636
805.341	26613
805.483	26689
805.626	26720
805.768	26609
805.91	26708
806.052	26785
806.194	26731
806.336	26804
806.478	26682
806.62	26674
806.762	26906
806.904	26971
807.046	27195
807.188	27104
807.33	27165
807.472	27154
807.614	27055
807.756	27009
807.898	26929
808.04	26868
808.182	26880
808.324	27032
808.465	27058
808.607	27013
808.749	27222
808.891	27397
809.033	27458
809.174	27355
809.316	27329
809.458	27264
809.6	27203
809.741	27294
809.883	27450
810.025	27538
810.166	27656
810.308	27599
810.45	27496
810.591	27530
810.733	27272
810.875	27214
811.016	27237
811.158	27313
811.299	27412
811.441	27580
811.582	27485
811.724	27431
811.865	27245
812.007	27256
812.148	27222
812.29	27252
812.431	27435
812.573	27549
812.714	27572
812.855	27895
812.997	27831
813.138	28051
813.279	27869
813.421	27854
813.562	27755
813.703	27530
813.845	27420
813.986	27062
814.127	26998
814.268	26982
814.41	27005
814.551	26876
814.692	27013
814.833	26933
814.974	26902
815.115	26963
815.256	26861
815.397	26777
815.539	26811
815.68	26598
815.821	26689
815.962	26670
816.103	26648
816.244	26644
816.385	26545
816.526	26484
816.666	26351
816.807	26149
816.948	26237
817.089	26343
817.23	26225
817.371	26191
817.512	26180
817.653	26263
817.793	26252
817.934	26145
818.075	26263
818.216	26248
818.356	26183
818.497	26115
818.638	25997
818.778	25944
818.919	25997
819.06	26103
819.2	26073
819.341	26225
819.481	26081
819.622	26362
819.762	26575
819.903	26465
820.043	26427
820.184	26374
820.324	26332
820.465	26286
820.605	26355
820.746	26259
820.886	26149
821.026	26275
821.167	26267
821.307	26336
821.447	26309
821.588	25989
821.728	25947
821.868	25795
822.008	25609
822.149	25590
822.289	25734
822.429	25476
822.569	25483
822.709	25575
822.849	25285
822.99	25206
823.13	25088
823.27	25034
823.41	25019
823.55	24905
823.69	25031
823.83	25019
823.97	25023
824.11	24909
824.25	24875
824.389	24810
824.529	24810
824.669	24916
824.809	25031
824.949	25019
825.089	25000
825.228	24875
825.368	24681
825.508	24601
825.648	24741
825.787	24623
825.927	24776
826.067	24597
826.206	24639
826.346	24719
826.485	24783
826.625	24620
826.765	24821
826.904	24829
827.044	24502
827.183	24612
827.323	24540
827.462	24376
827.601	24365
827.741	24418
827.88	24483
828.02	24273
828.159	24380
828.298	24334
828.437	24464
828.577	24304
828.716	24578
828.855	24270
828.994	24155
829.134	24110
829.273	24190
829.412	24114
829.551	24007
829.69	24155
829.829	24114
829.968	24277
830.107	24327
830.246	24182
830.385	24098
830.524	24095
830.663	24018
830.802	23843
830.941	23775
831.08	23672
831.219	23923
831.357	23802
831.496	24030
831.635	23748
831.774	23718
831.913	23756
832.051	23566
832.19	23482
832.329	23596
832.467	23326
832.606	23497
832.744	23436
832.883	23360
833.022	23596
833.16	23554
833.299	23467
833.437	23520
833.576	23573
833.714	23509
833.852	23665
833.991	23478
834.129	23604
834.267	23570
834.406	23554
834.544	23608
834.682	23516
834.821	23410
834.959	23646
835.097	23509
835.235	23585
835.373	23429
835.511	23509
835.65	23364
835.788	23258
835.926	23178
836.064	23178
836.202	23094
836.34	23330
836.478	23467
836.615	23288
836.753	23349
836.891	23493
837.029	23277
837.167	23284
837.305	23258
837.443	23474
837.58	23280
837.718	23383
837.856	23064
837.993	23235
838.131	23360
838.269	23067
838.406	23258
838.544	23098
838.681	22949
838.819	22980
838.956	22835
839.094	22774
839.231	22740
839.369	22896
839.506	23189
839.643	22953
839.781	22733
839.918	22683
840.055	22664
840.193	22630
840.33	22683
840.467	22717
840.604	22786
840.742	22938
840.879	22569
841.016	22557
841.153	22500
841.29	22774
841.427	22516
841.564	22653
841.701	22653
841.838	22592
841.975	22546
842.112	22577
842.249	22478
842.385	22421
842.522	22694
842.659	22516
842.796	22432
842.933	22523
843.069	22337
843.206	22390
843.343	22474
843.479	22413
843.616	22249
843.752	22211
843.889	22086
844.025	22295
844.162	22310
844.298	22177
844.435	22177
844.571	22211
844.708	22158
844.844	22413
844.98	22276
845.117	22215
845.253	22188
845.389	22097
845.525	22051
845.661	22021
845.798	21918
845.934	21930
846.07	21865
846.206	21895
846.342	22135
846.478	21850
846.614	21644
846.75	21720
846.886	21660
847.022	21663
847.158	21629
847.294	21663
847.429	21599
847.565	21656
847.701	21835
847.837	21355
847.972	21416
848.108	21401
848.244	21454
848.379	21317
848.515	21340
848.65	21222
848.786	21211
848.921	21298
849.057	21412
849.192	21313
849.328	21389
849.463	21180
849.598	21169
849.734	21108
849.869	21123
850.004	21013
850.14	21085
850.275	21047
850.41	20956
850.545	20929
850.68	20937
850.815	21013
850.95	20937
851.085	21180
851.22	21013
851.355	20998
851.49	20899
851.625	21009
851.76	20979
851.895	20963
852.03	20941
852.165	21066
852.299	21051
852.434	21051
852.569	21138
852.703	21020
852.838	21074
852.973	21123
853.107	21199
853.242	21024
853.376	20895
853.511	20693
853.645	20895
853.78	20952
853.914	20785
854.048	20868
854.183	20872
854.317	20963
854.451	20998
854.585	20937
854.72	20880
854.854	20921
854.988	20701
855.122	20838
855.256	20560
855.39	20857
855.524	20819
855.658	20796
855.792	20872
855.926	20864
856.06	20876
856.194	20925
856.327	20796
856.461	20967
856.595	20712
856.729	20731
856.862	20842
856.996	20883
857.13	20933
857.263	20895
857.397	20914
857.53	20845
857.664	20944
857.797	20925
857.931	20883
858.064	20834
858.197	20963
858.331	20796
858.464	20743
858.597	20716
858.731	20800
858.864	20819
858.997	20834
859.13	20857
859.263	20811
859.396	20929
859.529	20819
859.662	20849
859.795	20807
859.928	20826
860.061	20937
860.194	21039
860.327	20872
860.46	20796
860.592	20921
860.725	20960
860.858	20948
860.99	20769
861.123	20773
861.256	20754
861.388	20735
861.521	21447
861.653	20701
861.786	20640
861.918	20670
862.05	20762
862.183	20823
862.315	20880
862.447	20925
862.58	20857
862.712	20507
862.844	20602
862.976	20606
863.108	20708
863.24	21001
863.372	20507
863.504	20587
863.636	20545
863.768	20663
863.9	20560
864.032	20587
864.164	20400
864.296	20674
864.428	20724
864.559	20545
864.691	20621
864.823	20594
864.954	20568
865.086	20465
865.217	20590
865.349	20389
865.48	20377
865.612	20503
865.743	20545
865.875	20526
866.006	20396
866.137	20446
866.269	20446
866.4	20328
866.531	20457
866.662	20309
866.793	20503
866.924	20499
867.055	20423
867.186	20438
867.317	20419
867.448	20305
867.579	20362
867.71	20298
867.841	20240
867.972	20450
868.103	20427
868.233	20393
868.364	20317
868.495	20518
868.625	20667
868.756	20640
868.886	20579
869.017	20602
869.147	20762
869.278	20724
869.408	20769
869.539	20632
869.669	20701
869.799	20670
869.929	20777
870.06	20663
870.19	20899
870.32	20796
870.45	21009
870.58	21127
870.71	21055
870.84	21100
870.97	21032
871.1	21074
871.23	21154
871.36	21173
871.489	21161
871.619	21169
871.749	21256
871.879	21310
872.008	21382
872.138	21237
872.267	21176
872.397	21055
872.526	21055
872.656	21009
872.785	21070
872.915	21264
873.044	21344
873.173	21116
873.303	21260
873.432	21260
873.561	21542
873.69	21264
873.819	21264
873.948	21393
874.077	21367
874.206	21279
874.335	21351
874.464	21374
874.593	21504
874.722	21526
874.851	21450
874.979	21428
875.108	21583
875.237	21401
875.365	21428
875.494	21439
875.623	21488
875.751	21431
875.88	21549
876.008	21507
876.136	21698
876.265	21854
876.393	22063
876.521	21972
876.65	21857
876.778	21911
876.906	21766
877.034	21766
877.162	21804
877.29	21804
877.418	21831
877.546	21812
877.674	21785
877.802	21854
877.93	21842
878.058	21793
878.185	21682
878.313	21846
878.441	21804
878.568	21751
878.696	21724
878.824	21956
878.951	21972
879.079	21975
879.206	22124
879.333	22059
879.461	22013
879.588	21884
879.715	21994
879.842	22166
879.97	21930
880.097	21671
880.224	21671
880.351	21701
880.478	21720
880.605	21774
880.732	21709
880.859	21926
880.986	21701
881.112	21660
881.239	21477
881.366	21393
881.493	21393
881.619	21184
881.746	21184
881.872	21249
881.999	21180
882.125	21230
882.252	21260
882.378	21272
882.505	21351
882.631	21043
882.757	20986
882.883	21055
883.01	20956
883.136	20990
883.262	20864
883.388	20864
883.514	20948
883.64	20994
883.766	20944
883.892	20777
884.018	20746
884.143	20998
884.269	20918
884.395	20648
884.52	20629
884.646	20727
884.772	20552
884.897	20415
885.023	20640
885.148	20663
885.274	20800
885.399	20701
885.524	20560
885.65	20693
885.775	20735
885.9	20594
886.025	20636
886.15	20609
886.275	20530
886.4	20454
886.525	20560
886.65	20423
886.775	20552
886.9	20655
887.025	20739
887.149	20644
887.274	20415
887.399	20351
887.523	20309
887.648	20450
887.773	20180
887.897	20503
888.021	20400
888.146	20358
888.27	20408
888.395	20461
888.519	20434
888.643	20423
888.767	20343
888.891	20271
889.015	20233
889.139	20218
889.263	20100
889.387	20294
889.511	20400
889.635	20324
889.759	20218
889.883	20229
890.006	20278
890.13	20282
890.254	20096
890.377	20096
890.501	19963
890.624	19879
890.748	20031
890.871	19841
890.995	19734
891.118	19715
891.241	19738
891.364	19681
891.488	19894
891.611	19719
891.734	19734
891.857	19799
891.98	19727
892.103	19784
892.226	19734
892.349	19609
892.471	19445
892.594	19544
892.717	19750
892.839	19700
892.962	19635
893.085	19837
893.207	19548
893.33	19639
893.452	19567
893.575	19689
893.697	19727
893.819	19822
893.941	19807
894.064	19742
894.186	19544
894.308	19613
894.43	19795
894.552	19765
894.674	19719
894.796	19601
894.918	19651
895.04	19681
895.161	19791
895.283	19719
895.405	19738
895.526	19731
895.648	19658
895.769	19613
895.891	19666
896.012	19704
896.134	19746
896.255	19761
896.376	19605
896.498	19715
896.619	19597
896.74	19719
896.861	19742
896.982	20058
897.103	20073
897.224	19936
897.345	19875
897.466	19799
897.587	19879
897.708	20069
897.828	19826
897.949	19791
898.07	19696
898.19	19898
898.311	19940
898.431	19944
898.552	19871
898.672	20024
898.792	19921
898.913	19944
899.033	19704
899.153	19674
899.273	19635
899.393	19674
899.513	19700
899.633	19757
899.753	19655
899.873	19643
899.993	19681
900.113	19407
900.232	19529
900.352	19643
900.472	19422
900.591	19502
900.711	19312
900.83	19369
900.95	19605
901.069	19544
901.189	19339
901.308	19110
901.427	19042
901.546	19027
901.665	19084
901.784	19008
901.904	18886
902.023	18783
902.141	18578
902.26	18551
902.379	18616
902.498	18509
902.617	18429
902.735	18513
902.854	18601
902.973	18429
903.091	18174
903.21	18243
903.328	18228
903.446	18178
903.565	18129
903.683	18045
903.801	17931
903.919	17980
904.038	17950
904.156	17893
904.274	17863
904.392	17783
904.51	17821
904.627	17802
904.745	17980
904.863	17733
904.981	17634
905.098	17429
905.216	17543
905.334	17524
905.451	17554
905.569	17379
905.686	17455
905.803	17402
905.921	17223
906.038	17356
906.155	17372
906.272	17109
906.389	17185
906.506	16965
906.623	17025
906.74	17037
906.857	16927
906.974	16957
907.091	17098
907.208	17132
907.324	17071
907.441	16881
907.557	16812
907.674	16812
907.79	16637
907.907	16679
908.023	16801
908.139	16691
908.256	16679
908.372	16611
908.488	16645
908.604	16550
908.72	16413
908.836	16466
908.952	16409
909.068	16459
909.184	16455
909.3	16421
909.415	16417
909.531	16535
909.647	16169
909.762	16150
909.878	16090
909.993	16280
910.108	16109
910.224	16017
910.339	16223
910.454	16131
910.57	15968
910.685	15907
910.8	16211
910.915	16082
911.03	16002
911.145	15736
911.259	15850
911.374	15804
911.489	15743
911.604	15709
911.718	15511
911.833	15515
911.947	15523
912.062	15386
912.176	15595
912.291	15534
912.405	15622
912.519	15793
912.633	15770
912.748	15568
912.862	15447
912.976	15363
913.09	15256
913.204	15344
913.318	15340
913.431	15424
913.545	15420
913.659	15416
913.772	15264
913.886	15173
914	15127
914.113	15237
914.226	15226
914.34	15207
914.453	15066
914.566	15180
914.68	15138
914.793	14982
914.906	14902
915.019	14857
915.132	14648
915.245	14773
915.358	14777
915.47	14705
915.583	14765
915.696	14724
915.809	14872
915.921	14929
916.034	14743
916.146	14743
916.259	14640
916.371	14769
916.483	14701
916.595	14541
916.708	14632
916.82	14678
916.932	14590
917.044	14511
917.156	14431
917.268	14473
917.38	14427
917.491	14434
917.603	14488
917.715	14476
917.826	14473
917.938	14252
918.049	14218
918.161	14374
918.272	14518
918.384	14537
918.495	14358
918.606	14233
918.717	14145
918.828	14244
918.939	14252
919.05	14115
919.161	14176
919.272	13959
919.383	14046
919.494	14199
919.604	14370
919.715	14149
919.826	14054
919.936	14183
920.047	14317
920.157	14035
920.267	14328
920.378	14206
920.488	14100
920.598	14332
920.708	14480
920.818	14305
920.928	14294
921.038	14469
921.148	14347
921.258	14157
921.368	14016
921.477	13879
921.587	13875
921.697	13761
921.806	13902
921.916	13780
922.025	13685
922.134	13666
922.244	13518
922.353	13529
922.462	13407
922.571	13438
922.68	13217
922.789	13198
922.898	13266
923.007	13190
923.116	13236
923.224	13171
923.333	13160
923.442	13069
923.55	13015
923.659	13050
923.767	13008
923.876	12966
923.984	12989
924.092	12947
924.201	12977
924.309	12935
924.417	13031
924.525	12962
924.633	12890
924.741	13807
924.849	12642
924.956	12890
925.064	12662
925.172	12544
925.279	12566
925.387	12673
925.494	12620
925.602	12791
925.709	12662
925.816	12559
925.924	12593
926.031	12654
926.138	12536
926.245	12563
926.352	12452
926.459	12665
926.566	12551
926.673	12513
926.779	12475
926.886	12403
926.993	12190
927.099	12239
927.206	12121
927.312	12098
927.419	12209
927.525	12228
927.631	12243
927.737	12194
927.843	12087
927.95	11980
928.056	12121
928.162	12110
928.267	12106
928.373	12722
928.479	12125
928.585	11882
928.69	12045
928.796	12015
928.901	11874
929.007	11695
929.112	11916
929.218	11855
929.323	11901
929.428	11752
929.533	11969
929.638	11699
929.743	11710
929.848	11832
929.953	11703
930.058	11589
930.163	11414
930.267	11448
930.372	11512
930.477	11471
930.581	11695
930.685	11543
930.79	11265
930.894	11322
930.998	11261
931.103	11448
931.207	11109
931.311	11064
931.415	10961
931.519	10782
931.623	10691
