Data from test_V78500241_1510.txt Node
Date: Fri Mar 25 15:20:22 CST 2022
User: usil
Spectrometer: V785-0024
Trigger mode: 0
Integration Time (sec): 4.000000E-1
Scans to average: 1
Nonlinearity correction enabled: false
Boxcar width: 0
Storing dark spectrum: false
XAxis mode: Wavelengths
Number of Pixels in Spectrum: 1024
>>>>>Begin Spectral Data<<<<<
801.071	27998
801.214	27956
801.356	27778
801.499	27800
801.641	27443
801.783	27618
801.926	27675
802.068	27595
802.211	27462
802.353	27485
802.496	27226
802.638	27287
802.78	27226
802.923	27207
803.065	27135
803.208	27226
803.35	27077
803.492	27294
803.635	27389
803.777	27233
803.919	27405
804.061	27690
804.204	27393
804.346	27351
804.488	27424
804.63	27256
804.773	27405
804.915	27443
805.057	27488
805.199	27348
805.341	27595
805.483	27648
805.626	27469
805.768	27545
805.91	27405
806.052	27515
806.194	27534
806.336	27751
806.478	27523
806.62	27564
806.762	27652
806.904	27865
807.046	27979
807.188	27895
807.33	27873
807.472	28082
807.614	27960
807.756	27884
807.898	27869
808.04	27789
808.182	27580
808.324	27774
808.465	27964
808.607	28006
808.749	28124
808.891	28436
809.033	28295
809.174	28261
809.316	28093
809.458	28112
809.6	28185
809.741	28291
809.883	28367
810.025	28508
810.166	28481
810.308	28481
810.45	28405
810.591	28352
810.733	28291
810.875	28181
811.016	28120
811.158	28192
811.299	28322
811.441	28272
811.582	28341
811.724	28097
811.865	28105
812.007	28097
812.148	28059
812.29	28154
812.431	28371
812.573	28599
812.714	28607
812.855	28618
812.997	28820
813.138	28892
813.279	28915
813.421	28721
813.562	28721
813.703	28634
813.845	28401
813.986	28192
814.127	28059
814.268	27899
814.41	28006
814.551	27854
814.692	28032
814.833	27911
814.974	27838
815.115	27945
815.256	27747
815.397	27766
815.539	27911
815.68	27587
815.821	27561
815.962	27720
816.103	27629
816.244	27564
816.385	27500
816.526	27553
816.666	27237
816.807	27184
816.948	27245
817.089	27291
817.23	27211
817.371	27116
817.512	27184
817.653	27306
817.793	27192
817.934	27116
818.075	27302
818.216	27252
818.356	27074
818.497	27005
818.638	26861
818.778	26937
818.919	26887
819.06	26979
819.2	27074
819.341	27135
819.481	27135
819.622	27233
819.762	27530
819.903	27477
820.043	27184
820.184	27321
820.324	27173
820.465	27264
820.605	27249
820.746	27329
820.886	27127
821.026	27203
821.167	27233
821.307	27317
821.447	27237
821.588	27024
821.728	26994
821.868	26811
822.008	26693
822.149	26655
822.289	26625
822.429	26298
822.569	26298
822.709	26290
822.849	26145
822.99	26157
823.13	26172
823.27	26119
823.41	25966
823.55	25871
823.69	25909
823.83	25974
823.97	26024
824.11	25639
824.25	25681
824.389	25761
824.529	25860
824.669	25837
824.809	25811
824.949	25913
825.089	25830
825.228	25890
825.368	25537
825.508	25628
825.648	25571
825.787	25712
825.927	25662
826.067	25723
826.206	25647
826.346	25685
826.485	25658
826.625	25723
826.765	25731
826.904	25723
827.044	25403
827.183	25422
827.323	25479
827.462	25354
827.601	25506
827.741	25476
827.88	25396
828.02	25194
828.159	25278
828.298	25384
828.437	25453
828.577	25362
828.716	25453
828.855	25289
828.994	25088
829.134	25228
829.273	25225
829.412	25065
829.551	25069
829.69	25080
829.829	25046
829.968	25053
830.107	25103
830.246	24981
830.385	24894
830.524	25004
830.663	24856
830.802	24757
830.941	24707
831.08	24688
831.219	24772
831.357	24848
831.496	24882
831.635	24677
831.774	24757
831.913	24479
832.051	24399
832.19	24376
832.329	24566
832.467	24456
832.606	24308
832.744	24205
832.883	24407
833.022	24273
833.16	24334
833.299	24391
833.437	24323
833.576	24452
833.714	24456
833.852	24376
833.991	24399
834.129	24407
834.267	24445
834.406	24433
834.544	24479
834.682	24460
834.821	24388
834.959	24544
835.097	24365
835.235	24441
835.373	24395
835.511	24353
835.65	24277
835.788	24258
835.926	24140
836.064	24129
836.202	24102
836.34	24262
836.478	24232
836.615	24281
836.753	24308
836.891	24323
837.029	24148
837.167	24216
837.305	24197
837.443	24079
837.58	24148
837.718	24098
837.856	24114
837.993	24026
838.131	24106
838.269	23984
838.406	23912
838.544	23893
838.681	23714
838.819	23733
838.956	23627
839.094	23493
839.231	23646
839.369	23623
839.506	23783
839.643	23821
839.781	23543
839.918	23414
840.055	23535
840.193	23490
840.33	23421
840.467	23379
840.604	23482
840.742	23745
840.879	23303
841.016	23280
841.153	23330
841.29	23531
841.427	23345
841.564	23459
841.701	23463
841.838	23364
841.975	23368
842.112	23421
842.249	23284
842.385	23273
842.522	23349
842.659	23193
842.796	23280
842.933	23315
843.069	23151
843.206	23060
843.343	23280
843.479	23113
843.616	23132
843.752	22881
843.889	23117
844.025	23178
844.162	22938
844.298	23159
844.435	22953
844.571	23079
844.708	22953
844.844	23155
844.98	23060
845.117	23128
845.253	22896
845.389	22904
845.525	22938
845.661	22793
845.798	22675
845.934	22946
846.07	22755
846.206	22717
846.342	22805
846.478	22778
846.614	22424
846.75	22341
846.886	22481
847.022	22424
847.158	22504
847.294	22405
847.429	22516
847.565	22474
847.701	22782
847.837	22139
847.972	22124
848.108	22223
848.244	22280
848.379	22105
848.515	21991
848.65	21926
848.786	22116
848.921	22010
849.057	22093
849.192	22185
849.328	21994
849.463	21972
849.598	21846
849.734	22017
849.869	21876
850.004	21762
850.14	21793
850.275	21846
850.41	21705
850.545	21717
850.68	21751
850.815	21831
850.95	21842
851.085	21876
851.22	21873
851.355	21679
851.49	21743
851.625	21789
851.76	21770
851.895	21686
852.03	21819
852.165	21831
852.299	21884
852.434	21857
852.569	21766
852.703	21778
852.838	21835
852.973	21918
853.107	21873
853.242	21800
853.376	21766
853.511	21545
853.645	21542
853.78	21576
853.914	21679
854.048	21622
854.183	21610
854.317	21583
854.451	21797
854.585	21564
854.72	21599
854.854	21728
854.988	21542
855.122	21633
855.256	21538
855.39	21587
855.524	21720
855.658	21800
855.792	21698
855.926	21644
856.06	21656
856.194	21732
856.327	21599
856.461	21523
856.595	21450
856.729	21553
856.862	21690
856.996	21652
857.13	21614
857.263	21759
857.397	21583
857.53	21530
857.664	21591
857.797	21682
857.931	21686
858.064	21580
858.197	21660
858.331	21538
858.464	21614
858.597	21492
858.731	21644
858.864	21610
858.997	21622
859.13	21595
859.263	21698
859.396	21713
859.529	21545
859.662	21656
859.795	21530
859.928	21747
860.061	21831
860.194	21857
860.327	21747
860.46	21675
860.592	21720
860.725	21633
860.858	21759
860.99	21530
861.123	21523
861.256	21542
861.388	21618
861.521	22219
861.653	21439
861.786	21424
861.918	21405
862.05	21458
862.183	21557
862.315	21530
862.447	21660
862.58	21545
862.712	21359
862.844	21241
862.976	21386
863.108	21393
863.24	21720
863.372	21154
863.504	21340
863.636	21283
863.768	21367
863.9	21431
864.032	21207
864.164	21161
864.296	21313
864.428	21408
864.559	21462
864.691	21389
864.823	21386
864.954	21382
865.086	21207
865.217	21173
865.349	21070
865.48	21127
865.612	21154
865.743	21386
865.875	21116
866.006	21287
866.137	21142
866.269	21157
866.4	21245
866.531	21233
866.662	21062
866.793	21108
866.924	21150
867.055	21173
867.186	21199
867.317	21195
867.448	21100
867.579	21089
867.71	20998
867.841	20948
867.972	21116
868.103	21062
868.233	21112
868.364	21116
868.495	21173
868.625	21275
868.756	21386
868.886	21252
869.017	21252
869.147	21355
869.278	21504
869.408	21420
869.539	21336
869.669	21462
869.799	21405
869.929	21473
870.06	21545
870.19	21755
870.32	21720
870.45	21587
870.58	21690
870.71	21823
870.84	21934
870.97	21797
871.1	21797
871.23	21819
871.36	21945
871.489	21922
871.619	21850
871.749	22074
871.879	21915
872.008	22082
872.138	21975
872.267	21911
872.397	21812
872.526	21903
872.656	21812
872.785	21888
872.915	22093
873.044	22055
873.173	22017
873.303	22032
873.432	22070
873.561	21983
873.69	22025
873.819	22048
873.948	21991
874.077	22051
874.206	21964
874.335	21941
874.464	21930
874.593	22318
874.722	22154
874.851	22246
874.979	22215
875.108	22261
875.237	22207
875.365	22135
875.494	22166
875.623	22188
875.751	22143
875.88	22238
876.008	22417
876.136	22375
876.265	22565
876.393	22706
876.521	22637
876.65	22675
876.778	22557
876.906	22474
877.034	22500
877.162	22569
877.29	22523
877.418	22497
877.546	22599
877.674	22455
877.802	22432
877.93	22500
878.058	22542
878.185	22341
878.313	22542
878.441	22565
878.568	22356
878.696	22546
878.824	22637
878.951	22687
879.079	22721
879.206	22809
879.333	22744
879.461	22535
879.588	22516
879.715	22694
879.842	22900
879.97	22626
880.097	22363
880.224	22337
880.351	22337
880.478	22337
880.605	22459
880.732	22382
880.859	22565
880.986	22356
881.112	22413
881.239	22325
881.366	22063
881.493	22040
881.619	21979
881.746	21827
881.872	21975
881.999	21846
882.125	21819
882.252	21915
882.378	22029
882.505	21926
882.631	21838
882.757	21599
882.883	21728
883.01	21633
883.136	21682
883.262	21504
883.388	21466
883.514	21568
883.64	21523
883.766	21492
883.892	21431
884.018	21473
884.143	21557
884.269	21618
884.395	21397
884.52	21279
884.646	21230
884.772	21173
884.897	21233
885.023	21283
885.148	21344
885.274	21420
885.399	21469
885.524	21165
885.65	21355
885.775	21344
885.9	21275
886.025	21378
886.15	21279
886.275	21237
886.4	21127
886.525	21169
886.65	21188
886.775	21146
886.9	21408
887.025	21447
887.149	21374
887.274	21089
887.399	21047
887.523	21051
887.648	20933
887.773	20967
887.897	21146
888.021	21146
888.146	20929
888.27	21131
888.395	21207
888.519	21093
888.643	21077
888.767	21093
888.891	20918
889.015	20819
889.139	20941
889.263	20781
889.387	21017
889.511	21074
889.635	20948
889.759	20815
889.883	20811
890.006	20849
890.13	20990
890.254	20735
890.377	20568
890.501	20606
890.624	20530
890.748	20598
890.871	20469
890.995	20400
891.118	20366
891.241	20526
891.364	20381
891.488	20476
891.611	20450
891.734	20431
891.857	20511
891.98	20313
892.103	20347
892.226	20362
892.349	20248
892.471	20199
892.594	20294
892.717	20248
892.839	20180
892.962	20385
893.085	20366
893.207	20301
893.33	20210
893.452	20202
893.575	20240
893.697	20294
893.819	20507
893.941	20530
894.064	20492
894.186	20138
894.308	20229
894.43	20309
894.552	20408
894.674	20317
894.796	20229
894.918	20225
895.04	20343
895.161	20438
895.283	20278
895.405	20218
895.526	20069
895.648	20339
895.769	20282
895.891	20324
896.012	20374
896.134	20313
896.255	20309
896.376	20176
896.498	20286
896.619	20415
896.74	20362
896.861	20332
896.982	20590
897.103	20716
897.224	20571
897.345	20473
897.466	20469
897.587	20522
897.708	20629
897.828	20492
897.949	20415
898.07	20214
898.19	20370
898.311	20549
898.431	20434
898.552	20568
898.672	20495
898.792	20636
898.913	20503
899.033	20423
899.153	20286
899.273	20218
899.393	20271
899.513	20309
899.633	20164
899.753	20278
899.873	20221
899.993	20431
900.113	20088
900.232	20199
900.352	20214
900.472	20027
900.591	20020
900.711	20020
900.83	20043
900.95	20122
901.069	20065
901.189	19879
901.308	19731
901.427	19708
901.546	19616
901.665	19590
901.784	19651
901.904	19590
902.023	19354
902.141	19213
902.26	19129
902.379	19232
902.498	19171
902.617	19072
902.735	19084
902.854	19194
902.973	19034
903.091	18764
903.21	18837
903.328	18772
903.446	18707
903.565	18563
903.683	18585
903.801	18544
903.919	18506
904.038	18445
904.156	18361
904.274	18486
904.392	18369
904.51	18311
904.627	18361
904.745	18319
904.863	18445
904.981	18178
905.098	18015
905.216	18190
905.334	17992
905.451	18140
905.569	17946
905.686	18064
905.803	18049
905.921	17813
906.038	17935
906.155	17737
906.272	17760
906.389	17630
906.506	17581
906.623	17520
906.74	17619
906.857	17395
906.974	17433
907.091	17608
907.208	17718
907.324	17528
907.441	17474
907.557	17337
907.674	17364
907.79	17269
907.907	17269
908.023	17284
908.139	17318
908.256	17208
908.372	17193
908.488	17136
908.604	17014
908.72	16896
908.836	16976
908.952	16976
909.068	17060
909.184	17029
909.3	16862
909.415	16953
909.531	16953
909.647	16797
909.762	16740
909.878	16672
909.993	16702
910.108	16630
910.224	16626
910.339	16584
910.454	16630
910.57	16558
910.685	16428
910.8	16656
910.915	16554
911.03	16455
911.145	16413
911.259	16223
911.374	16196
911.489	16181
911.604	16242
911.718	16074
911.833	15926
911.947	15846
912.062	15895
912.176	15945
912.291	16078
912.405	15941
912.519	16314
912.633	16223
912.748	15956
912.862	16093
912.976	15880
913.09	15713
913.204	15854
913.318	15857
913.431	16051
913.545	15880
913.659	15892
913.772	15865
913.886	15713
914	15614
914.113	15679
914.226	15736
914.34	15705
914.453	15538
914.566	15622
914.68	15519
914.793	15534
914.906	15351
915.019	15214
915.132	15173
915.245	15283
915.358	15321
915.47	15287
915.583	15268
915.696	15222
915.809	15408
915.921	15367
916.034	15135
916.146	15173
916.259	15146
916.371	15127
916.483	15195
916.595	15138
916.708	15070
916.82	15066
916.932	15017
917.044	14998
917.156	14952
917.268	14743
917.38	14963
917.491	14899
917.603	14861
917.715	14914
917.826	14921
917.938	14853
918.049	14796
918.161	14876
918.272	15055
918.384	14910
918.495	14834
918.606	14655
918.717	14564
918.828	14636
918.939	14667
919.05	14613
919.161	14610
919.272	14503
919.383	14583
919.494	14651
919.604	14796
919.715	14663
919.826	14488
919.936	14511
920.047	14602
920.157	14629
920.267	14762
920.378	14610
920.488	14564
920.598	14800
920.708	14876
920.818	14746
920.928	14765
921.038	14838
921.148	14868
921.258	14625
921.368	14442
921.477	14374
921.587	14267
921.697	14210
921.806	14412
921.916	14161
922.025	14012
922.134	13989
922.244	13982
922.353	13928
922.462	13814
922.571	13837
922.68	13613
922.789	13658
922.898	13674
923.007	13609
923.116	13609
923.224	13601
923.333	13556
923.442	13453
923.55	13499
923.659	13472
923.767	13468
923.876	13358
923.984	13521
924.092	13331
924.201	13460
924.309	13304
924.417	13304
924.525	13293
924.633	13225
924.741	14016
924.849	13114
924.956	13247
925.064	13057
925.172	13004
925.279	13046
925.387	13080
925.494	13000
925.602	13225
925.709	13084
925.816	12958
925.924	12970
926.031	13107
926.138	12996
926.245	12924
926.352	12829
926.459	13015
926.566	13095
926.673	12897
926.779	12817
926.886	12711
926.993	12677
927.099	12479
927.206	12532
927.312	12475
927.419	12639
927.525	12623
927.631	12631
927.737	12429
927.843	12388
927.95	12407
928.056	12426
928.162	12418
928.267	12498
928.373	13053
928.479	12452
928.585	12262
928.69	12464
928.796	12418
928.901	12319
929.007	12114
929.112	12262
929.218	12224
929.323	12213
929.428	12102
929.533	12228
929.638	12038
929.743	12079
929.848	12136
929.953	12034
930.058	11977
930.163	11832
930.267	11783
930.372	11942
930.477	11859
930.581	11980
930.685	11870
930.79	11775
930.894	11764
930.998	11634
931.103	11794
931.207	11444
931.311	11406
931.415	11288
931.519	11079
931.623	11075
