Data from test_V78500241_1786.txt Node
Date: Fri Mar 25 15:22:17 CST 2022
User: usil
Spectrometer: V785-0024
Trigger mode: 0
Integration Time (sec): 4.000000E-1
Scans to average: 1
Nonlinearity correction enabled: false
Boxcar width: 0
Storing dark spectrum: false
XAxis mode: Wavelengths
Number of Pixels in Spectrum: 1024
>>>>>Begin Spectral Data<<<<<
801.071	27975
801.214	27835
801.356	27720
801.499	27606
801.641	27450
801.783	27492
801.926	27576
802.068	27443
802.211	27492
802.353	27325
802.496	27230
802.638	27176
802.78	27108
802.923	27214
803.065	27116
803.208	27154
803.35	27161
803.492	27237
803.635	27447
803.777	27325
803.919	27416
804.061	27736
804.204	27370
804.346	27443
804.488	27173
804.63	27272
804.773	27302
804.915	27340
805.057	27530
805.199	27291
805.341	27401
805.483	27591
805.626	27359
805.768	27393
805.91	27534
806.052	27526
806.194	27450
806.336	27720
806.478	27557
806.62	27378
806.762	27709
806.904	27713
807.046	27850
807.188	27972
807.33	27941
807.472	28036
807.614	27869
807.756	27804
807.898	27705
808.04	27648
808.182	27641
808.324	27838
808.465	27800
808.607	27835
808.749	28128
808.891	28051
809.033	28200
809.174	28253
809.316	28040
809.458	28135
809.6	28116
809.741	28242
809.883	28143
810.025	28500
810.166	28493
810.308	28428
810.45	28447
810.591	28329
810.733	28166
810.875	27964
811.016	27926
811.158	27865
811.299	28093
811.441	28120
811.582	28204
811.724	28177
811.865	28124
812.007	28078
812.148	28150
812.29	28200
812.431	28253
812.573	28596
812.714	28451
812.855	28603
812.997	28664
813.138	28698
813.279	28645
813.421	28717
813.562	28573
813.703	28485
813.845	28409
813.986	28131
814.127	28090
814.268	27797
814.41	27717
814.551	27656
814.692	27876
814.833	27698
814.974	27857
815.115	27869
815.256	27648
815.397	27682
815.539	27728
815.68	27576
815.821	27443
815.962	27637
816.103	27523
816.244	27416
816.385	27458
816.526	27397
816.666	27192
816.807	27055
816.948	27245
817.089	27188
817.23	27085
817.371	27100
817.512	27062
817.653	27138
817.793	26982
817.934	27161
818.075	27055
818.216	27100
818.356	27138
818.497	26979
818.638	26800
818.778	26842
818.919	26876
819.06	26834
819.2	26956
819.341	27157
819.481	27036
819.622	27272
819.762	27389
819.903	27389
820.043	27272
820.184	27154
820.324	27336
820.465	27154
820.605	27199
820.746	27226
820.886	27161
821.026	27161
821.167	27104
821.307	27291
821.447	27096
821.588	26956
821.728	27093
821.868	26724
822.008	26564
822.149	26644
822.289	26465
822.429	26305
822.569	26336
822.709	26252
822.849	25993
822.99	26218
823.13	26100
823.27	26122
823.41	25860
823.55	25894
823.69	25963
823.83	25837
823.97	25753
824.11	25624
824.25	25582
824.389	25685
824.529	25803
824.669	25723
824.809	25860
824.949	25780
825.089	25807
825.228	25769
825.368	25639
825.508	25662
825.648	25571
825.787	25731
825.927	25620
826.067	25620
826.206	25521
826.346	25487
826.485	25597
826.625	25685
826.765	25620
826.904	25719
827.044	25499
827.183	25331
827.323	25453
827.462	25365
827.601	25244
827.741	25285
827.88	25244
828.02	25171
828.159	25343
828.298	25316
828.437	25350
828.577	25228
828.716	25354
828.855	25312
828.994	25008
829.134	24886
829.273	25107
829.412	24913
829.551	24875
829.69	24962
829.829	25046
829.968	25133
830.107	25099
830.246	24966
830.385	24996
830.524	24920
830.663	24817
830.802	24696
830.941	24681
831.08	24639
831.219	24642
831.357	24722
831.496	24901
831.635	24700
831.774	24616
831.913	24517
832.051	24460
832.19	24540
832.329	24532
832.467	24311
832.606	24235
832.744	24220
832.883	24178
833.022	24380
833.16	24315
833.299	24361
833.437	24327
833.576	24456
833.714	24407
833.852	24429
833.991	24502
834.129	24494
834.267	24517
834.406	24380
834.544	24266
834.682	24536
834.821	24311
834.959	24540
835.097	24418
835.235	24441
835.373	24365
835.511	24410
835.65	24216
835.788	24258
835.926	24068
836.064	24133
836.202	24072
836.34	24121
836.478	24395
836.615	24224
836.753	24350
836.891	24296
837.029	24300
837.167	24106
837.305	24163
837.443	24003
837.58	24087
837.718	24064
837.856	24114
837.993	24060
838.131	24102
838.269	24022
838.406	23961
838.544	23923
838.681	23760
838.819	23600
838.956	23539
839.094	23638
839.231	23611
839.369	23699
839.506	23939
839.643	23760
839.781	23615
839.918	23452
840.055	23596
840.193	23497
840.33	23444
840.467	23490
840.604	23668
840.742	23874
840.879	23376
841.016	23330
841.153	23269
841.29	23478
841.427	23410
841.564	23558
841.701	23459
841.838	23364
841.975	23330
842.112	23246
842.249	23258
842.385	23254
842.522	23467
842.659	23220
842.796	23185
842.933	23330
843.069	23239
843.206	23166
843.343	23280
843.479	23372
843.616	23235
843.752	22991
843.889	22987
844.025	23094
844.162	22946
844.298	23060
844.435	23018
844.571	22942
844.708	23022
844.844	23064
844.98	23109
845.117	23079
845.253	22980
845.389	22816
845.525	22866
845.661	22850
845.798	22683
845.934	22816
846.07	22656
846.206	22713
846.342	22927
846.478	22694
846.614	22592
846.75	22447
846.886	22459
847.022	22432
847.158	22500
847.294	22481
847.429	22485
847.565	22360
847.701	22622
847.837	22234
847.972	22070
848.108	22299
848.244	22185
848.379	22078
848.515	22063
848.65	22154
848.786	22109
848.921	22166
849.057	22059
849.192	22128
849.328	21945
849.463	22093
849.598	21945
849.734	21892
849.869	21998
850.004	21842
850.14	21838
850.275	21774
850.41	21732
850.545	21759
850.68	21812
850.815	21759
850.95	21751
851.085	22067
851.22	21888
851.355	21850
851.49	21766
851.625	21705
851.76	21736
851.895	21686
852.03	21625
852.165	21720
852.299	21911
852.434	21945
852.569	21812
852.703	21781
852.838	21907
852.973	21975
853.107	21869
853.242	21644
853.376	21580
853.511	21618
853.645	21644
853.78	21705
853.914	21652
854.048	21507
854.183	21679
854.317	21629
854.451	21778
854.585	21686
854.72	21591
854.854	21785
854.988	21580
855.122	21675
855.256	21420
855.39	21656
855.524	21724
855.658	21686
855.792	21610
855.926	21762
856.06	21591
856.194	21713
856.327	21583
856.461	21526
856.595	21519
856.729	21595
856.862	21739
856.996	21667
857.13	21660
857.263	21808
857.397	21774
857.53	21667
857.664	21679
857.797	21606
857.931	21724
858.064	21599
858.197	21667
858.331	21507
858.464	21492
858.597	21526
858.731	21553
858.864	21545
858.997	21671
859.13	21660
859.263	21648
859.396	21762
859.529	21625
859.662	21542
859.795	21606
859.928	21614
860.061	21743
860.194	21884
860.327	21663
860.46	21641
860.592	21694
860.725	21652
860.858	21766
860.99	21671
861.123	21526
861.256	21614
861.388	21694
861.521	22265
861.653	21405
861.786	21420
861.918	21469
862.05	21462
862.183	21667
862.315	21583
862.447	21618
862.58	21545
862.712	21321
862.844	21325
862.976	21435
863.108	21435
863.24	21686
863.372	21283
863.504	21359
863.636	21275
863.768	21393
863.9	21477
864.032	21298
864.164	21298
864.296	21389
864.428	21386
864.559	21363
864.691	21435
864.823	21321
864.954	21298
865.086	21405
865.217	21230
865.349	21157
865.48	21233
865.612	21264
865.743	21386
865.875	21310
866.006	21226
866.137	21256
866.269	21268
866.4	21157
866.531	21165
866.662	21100
866.793	21176
866.924	21142
867.055	21074
867.186	21222
867.317	21017
867.448	21108
867.579	21188
867.71	21013
867.841	21089
867.972	21230
868.103	21028
868.233	21218
868.364	21207
868.495	21264
868.625	21397
868.756	21481
868.886	21367
869.017	21458
869.147	21477
869.278	21428
869.408	21428
869.539	21370
869.669	21408
869.799	21424
869.929	21561
870.06	21583
870.19	21797
870.32	21694
870.45	21759
870.58	21747
870.71	21800
870.84	21876
870.97	21797
871.1	21819
871.23	21899
871.36	21918
871.489	21960
871.619	21884
871.749	21880
871.879	21953
872.008	22078
872.138	22078
872.267	21953
872.397	21812
872.526	21755
872.656	21869
872.785	21846
872.915	22032
873.044	22044
873.173	22093
873.303	22006
873.432	22048
873.561	22070
873.69	22086
873.819	21949
873.948	22086
874.077	21926
874.206	21907
874.335	21998
874.464	22051
874.593	22158
874.722	22249
874.851	22226
874.979	22318
875.108	22249
875.237	22143
875.365	22116
875.494	22344
875.623	22318
875.751	22238
875.88	22303
876.008	22318
876.136	22394
876.265	22656
876.393	22790
876.521	22748
876.65	22782
876.778	22584
876.906	22516
877.034	22527
877.162	22698
877.29	22561
877.418	22573
877.546	22478
877.674	22508
877.802	22607
877.93	22656
878.058	22500
878.185	22462
878.313	22363
878.441	22466
878.568	22443
878.696	22500
878.824	22516
878.951	22694
879.079	22771
879.206	22930
879.333	22786
879.461	22698
879.588	22835
879.715	22577
879.842	22778
879.97	22710
880.097	22432
880.224	22405
880.351	22409
880.478	22436
880.605	22417
880.732	22405
880.859	22611
880.986	22398
881.112	22500
881.239	22291
881.366	22055
881.493	22021
881.619	21949
881.746	21964
881.872	21956
881.999	21960
882.125	21899
882.252	22078
882.378	21888
882.505	22135
882.631	21918
882.757	21698
882.883	21717
883.01	21739
883.136	21663
883.262	21473
883.388	21443
883.514	21583
883.64	21614
883.766	21606
883.892	21359
884.018	21526
884.143	21736
884.269	21557
884.395	21367
884.52	21306
884.646	21306
884.772	21291
884.897	21131
885.023	21340
885.148	21412
885.274	21439
885.399	21351
885.524	21294
885.65	21306
885.775	21294
885.9	21283
886.025	21492
886.15	21344
886.275	21214
886.4	21230
886.525	21195
886.65	21237
886.775	21313
886.9	21466
887.025	21542
887.149	21291
887.274	21062
887.399	21013
887.523	21116
887.648	20956
887.773	21020
887.897	21138
888.021	21169
888.146	21055
888.27	21096
888.395	21230
888.519	21062
888.643	21100
888.767	21226
888.891	20933
889.015	20910
889.139	21024
889.263	20902
889.387	20899
889.511	21112
889.635	21039
889.759	20906
889.883	20838
890.006	20929
890.13	20956
890.254	20819
890.377	20842
890.501	20667
890.624	20579
890.748	20750
890.871	20454
890.995	20450
891.118	20377
891.241	20461
891.364	20423
891.488	20609
891.611	20427
891.734	20533
891.857	20442
891.98	20366
892.103	20450
892.226	20389
892.349	20298
892.471	20263
892.594	20343
892.717	20404
892.839	20301
892.962	20332
893.085	20423
893.207	20290
893.33	20320
893.452	20332
893.575	20431
893.697	20358
893.819	20473
893.941	20522
894.064	20476
894.186	20328
894.308	20244
894.43	20370
894.552	20530
894.674	20381
894.796	20142
894.918	20320
895.04	20248
895.161	20320
895.283	20419
895.405	20237
895.526	20343
895.648	20267
895.769	20385
895.891	20320
896.012	20415
896.134	20343
896.255	20381
896.376	20237
896.498	20298
896.619	20389
896.74	20233
896.861	20347
896.982	20701
897.103	20792
897.224	20511
897.345	20465
897.466	20579
897.587	20564
897.708	20735
897.828	20454
897.949	20518
898.07	20404
898.19	20461
898.311	20621
898.431	20484
898.552	20541
898.672	20537
898.792	20621
898.913	20583
899.033	20450
899.153	20298
899.273	20225
899.393	20336
899.513	20256
899.633	20267
899.753	20263
899.873	20180
899.993	20278
900.113	20233
900.232	20252
900.352	20111
900.472	20043
900.591	19993
900.711	20172
900.83	20058
900.95	20096
901.069	20035
901.189	20054
901.308	19723
901.427	19624
901.546	19556
901.665	19655
901.784	19677
901.904	19499
902.023	19457
902.141	19251
902.26	19084
902.379	19221
902.498	19221
902.617	19008
902.735	19247
902.854	19091
902.973	19008
903.091	18878
903.21	18795
903.328	18726
903.446	18692
903.565	18673
903.683	18601
903.801	18604
903.919	18528
904.038	18517
904.156	18327
904.274	18418
904.392	18380
904.51	18403
904.627	18410
904.745	18418
904.863	18460
904.981	18178
905.098	18133
905.216	17954
905.334	18148
905.451	18087
905.569	18007
905.686	18098
905.803	17992
905.921	17836
906.038	18019
906.155	17828
906.272	17699
906.389	17798
906.506	17539
906.623	17707
906.74	17611
906.857	17627
906.974	17395
907.091	17619
907.208	17718
907.324	17611
907.441	17440
907.557	17242
907.674	17326
907.79	17189
907.907	17318
908.023	17303
908.139	17322
908.256	17311
908.372	17212
908.488	17170
908.604	17060
908.72	16930
908.836	16942
908.952	17094
909.068	16995
909.184	17113
909.3	17033
909.415	17056
909.531	16934
909.647	16706
909.762	16713
909.878	16634
909.993	16771
910.108	16584
910.224	16668
910.339	16660
910.454	16634
910.57	16561
910.685	16447
910.8	16729
910.915	16656
911.03	16561
911.145	16310
911.259	16303
911.374	16242
911.489	16234
911.604	16177
911.718	16040
911.833	16055
911.947	15869
912.062	15869
912.176	16036
912.291	16021
912.405	15975
912.519	16135
912.633	16238
912.748	16105
912.862	15972
912.976	15846
913.09	15789
913.204	15835
913.318	15876
913.431	15907
913.545	15972
913.659	15956
913.772	15937
913.886	15675
914	15671
914.113	15774
914.226	15823
914.34	15698
914.453	15534
914.566	15625
914.68	15428
914.793	15564
914.906	15332
915.019	15367
915.132	15195
915.245	15329
915.358	15260
915.47	15268
915.583	15264
915.696	15340
915.809	15389
915.921	15378
916.034	15188
916.146	15188
916.259	15104
916.371	15237
916.483	15161
916.595	15104
916.708	15093
916.82	15062
916.932	15032
917.044	15085
917.156	14941
917.268	14842
917.38	14975
917.491	14918
917.603	14921
917.715	14998
917.826	14971
917.938	14914
918.049	14678
918.161	14834
918.272	15009
918.384	15062
918.495	14853
918.606	14720
918.717	14621
918.828	14644
918.939	14788
919.05	14659
919.161	14606
919.272	14465
919.383	14503
919.494	14765
919.604	14792
919.715	14579
919.826	14606
919.936	14712
920.047	14746
920.157	14598
920.267	14750
920.378	14556
920.488	14522
920.598	14845
920.708	14876
920.818	14720
920.928	14724
921.038	14823
921.148	14815
921.258	14526
921.368	14473
921.477	14290
921.587	14362
921.697	14218
921.806	14454
921.916	14221
922.025	14024
922.134	14012
922.244	13871
922.353	14046
922.462	13883
922.571	13788
922.68	13658
922.789	13639
922.898	13651
923.007	13719
923.116	13704
923.224	13533
923.333	13594
923.442	13521
923.55	13362
923.659	13468
923.767	13457
923.876	13457
923.984	13582
924.092	13285
924.201	13480
924.309	13460
924.417	13464
924.525	13384
924.633	13365
924.741	14294
924.849	13168
924.956	13343
925.064	12993
925.172	12905
925.279	13042
925.387	13042
925.494	13114
925.602	13244
925.709	13095
925.816	12970
925.924	12894
926.031	13110
926.138	13027
926.245	13110
926.352	13019
926.459	13038
926.566	13088
926.673	13023
926.779	12749
926.886	12817
926.993	12684
927.099	12673
927.206	12604
927.312	12654
927.419	12692
927.525	12601
927.631	12620
927.737	12540
927.843	12433
927.95	12376
928.056	12509
928.162	12509
928.267	12509
928.373	13107
928.479	12597
928.585	12300
928.69	12433
928.796	12433
928.901	12334
929.007	12194
929.112	12380
929.218	12353
929.323	12277
929.428	12152
929.533	12334
929.638	12106
929.743	12087
929.848	12144
929.953	12133
930.058	11969
930.163	11878
930.267	11851
930.372	11984
930.477	11847
930.581	12060
930.685	11946
930.79	11752
930.894	11790
930.998	11688
931.103	11847
931.207	11547
931.311	11497
931.415	11345
931.519	11079
931.623	11136
