Data from test_V78500241_577.txt Node
Date: Fri Mar 25 15:13:52 CST 2022
User: usil
Spectrometer: V785-0024
Trigger mode: 0
Integration Time (sec): 4.000000E-1
Scans to average: 1
Nonlinearity correction enabled: false
Boxcar width: 0
Storing dark spectrum: false
XAxis mode: Wavelengths
Number of Pixels in Spectrum: 1024
>>>>>Begin Spectral Data<<<<<
801.071	27629
801.214	27568
801.356	27096
801.499	27272
801.641	27180
801.783	27135
801.926	27119
802.068	26990
802.211	27009
802.353	26792
802.496	26796
802.638	26716
802.78	26701
802.923	26571
803.065	26636
803.208	26678
803.35	26682
803.492	26902
803.635	26853
803.777	26701
803.919	26864
804.061	27127
804.204	26845
804.346	26765
804.488	26796
804.63	26804
804.773	26670
804.915	26777
805.057	26971
805.199	26815
805.341	26895
805.483	26971
805.626	26845
805.768	26880
805.91	26971
806.052	27165
806.194	26758
806.336	27024
806.478	26895
806.62	26975
806.762	27036
806.904	27233
807.046	27450
807.188	27374
807.33	27382
807.472	27427
807.614	27351
807.756	27199
807.898	27325
808.04	27123
808.182	27214
808.324	27272
808.465	27222
808.607	27355
808.749	27606
808.891	27804
809.033	27785
809.174	27652
809.316	27576
809.458	27625
809.6	27675
809.741	27781
809.883	27800
810.025	27918
810.166	27804
810.308	27987
810.45	27846
810.591	27785
810.733	27701
810.875	27450
811.016	27572
811.158	27450
811.299	27652
811.441	27861
811.582	27739
811.724	27568
811.865	27481
812.007	27519
812.148	27542
812.29	27610
812.431	27679
812.573	27953
812.714	28010
812.855	28226
812.997	28261
813.138	28310
813.279	28299
813.421	28246
813.562	28196
813.703	27991
813.845	27892
813.986	27542
814.127	27405
814.268	27431
814.41	27363
814.551	27272
814.692	27283
814.833	27218
814.974	27180
815.115	27199
815.256	27268
815.397	27131
815.539	27207
815.68	27180
815.821	27036
815.962	27169
816.103	27077
816.244	26906
816.385	26883
816.526	26712
816.666	26644
816.807	26640
816.948	26659
817.089	26720
817.23	26621
817.371	26598
817.512	26632
817.653	26564
817.793	26492
817.934	26667
818.075	26564
818.216	26552
818.356	26518
818.497	26438
818.638	26370
818.778	26328
818.919	26332
819.06	26347
819.2	26419
819.341	26659
819.481	26587
819.622	26609
819.762	26994
819.903	26796
820.043	26872
820.184	26648
820.324	26705
820.465	26648
820.605	26629
820.746	26667
820.886	26518
821.026	26549
821.167	26590
821.307	26663
821.447	26488
821.588	26575
821.728	26495
821.868	26161
822.008	25947
822.149	26084
822.289	26073
822.429	25689
822.569	25670
822.709	25765
822.849	25533
822.99	25582
823.13	25506
823.27	25586
823.41	25468
823.55	25228
823.69	25377
823.83	25388
823.97	25206
824.11	25088
824.25	25183
824.389	25099
824.529	25228
824.669	25198
824.809	25263
824.949	25422
825.089	25285
825.228	25297
825.368	24913
825.508	24913
825.648	24909
825.787	25160
825.927	25164
826.067	25019
826.206	25042
826.346	25110
826.485	25114
826.625	25084
826.765	25171
826.904	24992
827.044	24730
827.183	24741
827.323	24730
827.462	24901
827.601	24631
827.741	24856
827.88	24719
828.02	24585
828.159	24719
828.298	24745
828.437	24745
828.577	24817
828.716	24787
828.855	24715
828.994	24502
829.134	24422
829.273	24483
829.412	24452
829.551	24467
829.69	24403
829.829	24490
829.968	24483
830.107	24566
830.246	24498
830.385	24532
830.524	24243
830.663	24277
830.802	24129
830.941	24121
831.08	24133
831.219	24129
831.357	24186
831.496	24247
831.635	23992
831.774	24045
831.913	23904
832.051	23923
832.19	23916
832.329	23870
832.467	23821
832.606	23718
832.744	23748
832.883	23733
833.022	23729
833.16	23779
833.299	23771
833.437	23703
833.576	23942
833.714	23840
833.852	23935
833.991	23802
834.129	23889
834.267	23931
834.406	23809
834.544	23904
834.682	23885
834.821	23965
834.959	24049
835.097	23726
835.235	23889
835.373	23767
835.511	23878
835.65	23737
835.788	23687
835.926	23486
836.064	23486
836.202	23505
836.34	23657
836.478	23627
836.615	23775
836.753	23596
836.891	23726
837.029	23786
837.167	23592
837.305	23562
837.443	23383
837.58	23573
837.718	23566
837.856	23512
837.993	23368
838.131	23490
838.269	23395
838.406	23448
838.544	23334
838.681	23185
838.819	23071
838.956	23071
839.094	23010
839.231	23056
839.369	23025
839.506	23364
839.643	23181
839.781	22908
839.918	23003
840.055	22980
840.193	23052
840.33	22949
840.467	23006
840.604	22938
840.742	23193
840.879	22820
841.016	22797
841.153	22759
841.29	23067
841.427	22930
841.564	23003
841.701	22999
841.838	22782
841.975	22805
842.112	22782
842.249	22782
842.385	22626
842.522	22797
842.659	22748
842.796	22710
842.933	22763
843.069	22615
843.206	22592
843.343	22683
843.479	22748
843.616	22584
843.752	22462
843.889	22447
844.025	22710
844.162	22405
844.298	22538
844.435	22394
844.571	22451
844.708	22542
844.844	22561
844.98	22500
845.117	22516
845.253	22428
845.389	22371
845.525	22348
845.661	22516
845.798	22257
845.934	22299
846.07	22238
846.206	22253
846.342	22322
846.478	22059
846.614	22029
846.75	22067
846.886	21922
847.022	21960
847.158	21880
847.294	21865
847.429	21937
847.565	21854
847.701	22109
847.837	21751
847.972	21686
848.108	21694
848.244	21705
848.379	21549
848.515	21530
848.65	21561
848.786	21591
848.921	21599
849.057	21622
849.192	21679
849.328	21587
849.463	21644
849.598	21515
849.734	21336
849.869	21325
850.004	21222
850.14	21340
850.275	21332
850.41	21173
850.545	21226
850.68	21218
850.815	21336
850.95	21230
851.085	21485
851.22	21382
851.355	21252
851.49	21264
851.625	21325
851.76	21135
851.895	21127
852.03	21108
852.165	21264
852.299	21310
852.434	21332
852.569	21344
852.703	21367
852.838	21389
852.973	21374
853.107	21321
853.242	21230
853.376	21066
853.511	20990
853.645	21199
853.78	21241
853.914	21081
854.048	21055
854.183	20941
854.317	21100
854.451	21233
854.585	21184
854.72	21085
854.854	21142
854.988	20956
855.122	21081
855.256	20941
855.39	21154
855.524	21188
855.658	21207
855.792	21047
855.926	21116
856.06	21142
856.194	21275
856.327	21009
856.461	21077
856.595	20963
856.729	21017
856.862	21161
856.996	21184
857.13	21070
857.263	21157
857.397	21135
857.53	21108
857.664	21127
857.797	21127
857.931	21146
858.064	21100
858.197	21283
858.331	21074
858.464	20971
858.597	21017
858.731	21127
858.864	21066
858.997	20941
859.13	21020
859.263	21180
859.396	21218
859.529	20967
859.662	21020
859.795	20998
859.928	21005
860.061	21359
860.194	21272
860.327	21188
860.46	21135
860.592	21138
860.725	21317
860.858	21237
860.99	21093
861.123	20914
861.256	21070
861.388	21150
861.521	21953
861.653	21081
861.786	20975
861.918	20944
862.05	20842
862.183	20910
862.315	21070
862.447	21096
862.58	20967
862.712	20746
862.844	20712
862.976	20982
863.108	20994
863.24	21336
863.372	20689
863.504	20861
863.636	20788
863.768	20975
863.9	20788
864.032	20613
864.164	20758
864.296	20823
864.428	20876
864.559	20838
864.691	20807
864.823	20826
864.954	20849
865.086	20697
865.217	20682
865.349	20678
865.48	20667
865.612	20606
865.743	20891
865.875	20686
866.006	20629
866.137	20663
866.269	20819
866.4	20651
866.531	20621
866.662	20587
866.793	20705
866.924	20682
867.055	20708
867.186	20712
867.317	20545
867.448	20651
867.579	20636
867.71	20446
867.841	20530
867.972	20621
868.103	20648
868.233	20545
868.364	20750
868.495	20678
868.625	20864
868.756	20956
868.886	20902
869.017	20906
869.147	20941
869.278	21058
869.408	20891
869.539	20982
869.669	20986
869.799	21028
869.929	20952
870.06	20944
870.19	21165
870.32	21093
870.45	21370
870.58	21245
870.71	21336
870.84	21386
870.97	21222
871.1	21192
871.23	21500
871.36	21500
871.489	21291
871.619	21405
871.749	21443
871.879	21485
872.008	21564
872.138	21412
872.267	21485
872.397	21412
872.526	21264
872.656	21298
872.785	21306
872.915	21568
873.044	21603
873.173	21469
873.303	21553
873.432	21462
873.561	21526
873.69	21523
873.819	21542
873.948	21545
874.077	21416
874.206	21420
874.335	21606
874.464	21507
874.593	21812
874.722	21720
874.851	21766
874.979	21660
875.108	21759
875.237	21682
875.365	21530
875.494	21679
875.623	21762
875.751	21709
875.88	21610
876.008	21789
876.136	21835
876.265	22101
876.393	22230
876.521	22265
876.65	22234
876.778	22070
876.906	22097
877.034	21934
877.162	22006
877.29	22021
877.418	22162
877.546	22166
877.674	22131
877.802	22059
877.93	22051
878.058	22101
878.185	21998
878.313	22055
878.441	22074
878.568	21968
878.696	21972
878.824	22059
878.951	22150
879.079	22287
879.206	22352
879.333	22310
879.461	22173
879.588	22200
879.715	22185
879.842	22360
879.97	22169
880.097	21911
880.224	21915
880.351	21964
880.478	22036
880.605	21816
880.732	21850
880.859	22226
880.986	22002
881.112	21968
881.239	21720
881.366	21595
881.493	21599
881.619	21473
881.746	21408
881.872	21492
881.999	21397
882.125	21443
882.252	21462
882.378	21272
882.505	21580
882.631	21405
882.757	21199
882.883	21378
883.01	21104
883.136	21123
883.262	21184
883.388	21028
883.514	21233
883.64	21157
883.766	21017
883.892	20887
884.018	20994
884.143	21104
884.269	21157
884.395	20956
884.52	20804
884.646	20929
884.772	20735
884.897	20785
885.023	20853
885.148	20944
885.274	20929
885.399	20842
885.524	20800
885.65	20830
885.775	20834
885.9	20914
886.025	20971
886.15	20880
886.275	20785
886.4	20769
886.525	20815
886.65	20705
886.775	20746
886.9	20902
887.025	20880
887.149	20849
887.274	20667
887.399	20568
887.523	20560
887.648	20663
887.773	20511
887.897	20712
888.021	20689
888.146	20461
888.27	20750
888.395	20678
888.519	20552
888.643	20663
888.767	20659
888.891	20507
889.015	20393
889.139	20480
889.263	20419
889.387	20541
889.511	20606
889.635	20590
889.759	20423
889.883	20381
890.006	20465
890.13	20537
890.254	20317
890.377	20240
890.501	20115
890.624	20233
890.748	20206
890.871	20035
890.995	19978
891.118	19925
891.241	19986
891.364	19928
891.488	19989
891.611	19997
891.734	19963
891.857	20024
891.98	20012
892.103	20008
892.226	19955
892.349	20058
892.471	19913
892.594	19967
892.717	20012
892.839	19791
892.962	19856
893.085	19925
893.207	19852
893.33	19723
893.452	19795
893.575	19982
893.697	19818
893.819	19997
893.941	19989
894.064	20065
894.186	19772
894.308	19830
894.43	19845
894.552	20077
894.674	20103
894.796	19788
894.918	19902
895.04	19845
895.161	19921
895.283	19921
895.405	19769
895.526	19814
895.648	19959
895.769	19864
895.891	19894
896.012	19955
896.134	19932
896.255	19830
896.376	19765
896.498	19791
896.619	19830
896.74	19818
896.861	19860
896.982	20317
897.103	20324
897.224	20225
897.345	20164
897.466	20043
897.587	20062
897.708	20214
897.828	20142
897.949	20103
898.07	19936
898.19	20081
898.311	20088
898.431	20050
898.552	20142
898.672	20122
898.792	20142
898.913	20005
899.033	19997
899.153	19894
899.273	19742
899.393	19913
899.513	19883
899.633	19860
899.753	20031
899.873	19799
899.993	19879
900.113	19807
900.232	19776
900.352	19723
900.472	19708
900.591	19567
900.711	19624
900.83	19540
900.95	19647
901.069	19719
901.189	19518
901.308	19388
901.427	19259
901.546	19308
901.665	19202
901.784	19278
901.904	19175
902.023	19012
902.141	18833
902.26	18829
902.379	18749
902.498	18817
902.617	18745
902.735	18825
902.854	18703
902.973	18673
903.091	18429
903.21	18410
903.328	18395
903.446	18323
903.565	18239
903.683	18220
903.801	18136
903.919	18171
904.038	18178
904.156	17916
904.274	18079
904.392	17927
904.51	17958
904.627	18098
904.745	18026
904.863	18068
904.981	17805
905.098	17680
905.216	17604
905.334	17672
905.451	17687
905.569	17573
905.686	17672
905.803	17672
905.921	17410
906.038	17653
906.155	17436
906.272	17448
906.389	17299
906.506	17280
906.623	17231
906.74	17155
906.857	17162
906.974	17147
907.091	17273
907.208	17254
907.324	17277
907.441	17159
907.557	16965
907.674	16854
907.79	16961
907.907	16919
908.023	17010
908.139	16915
908.256	16828
908.372	16911
908.488	16828
908.604	16733
908.72	16626
908.836	16641
908.952	16573
909.068	16729
909.184	16687
909.3	16637
909.415	16694
909.531	16569
909.647	16421
909.762	16360
909.878	16341
909.993	16329
910.108	16428
910.224	16348
910.339	16341
910.454	16188
910.57	16166
910.685	16101
910.8	16314
910.915	16325
911.03	16063
911.145	16029
911.259	15941
911.374	16025
911.489	15846
911.604	15793
911.718	15713
911.833	15709
911.947	15572
912.062	15473
912.176	15675
912.291	15694
912.405	15618
912.519	15766
912.633	15915
912.748	15606
912.862	15633
912.976	15591
913.09	15401
913.204	15420
913.318	15477
913.431	15614
913.545	15663
913.659	15519
913.772	15485
913.886	15386
914	15252
914.113	15355
914.226	15435
914.34	15367
914.453	15123
914.566	15378
914.68	15173
914.793	15188
914.906	15127
915.019	14971
915.132	14785
915.245	14925
915.358	14956
915.47	15001
915.583	15017
915.696	15058
915.809	15028
915.921	14994
916.034	14861
916.146	14899
916.259	14853
916.371	14944
916.483	14804
916.595	14701
916.708	14758
916.82	14724
916.932	14648
917.044	14712
917.156	14705
917.268	14606
917.38	14651
917.491	14514
917.603	14598
917.715	14735
917.826	14670
917.938	14568
918.049	14454
918.161	14594
918.272	14625
918.384	14644
918.495	14568
918.606	14450
918.717	14313
918.828	14355
918.939	14423
919.05	14355
919.161	14374
919.272	14149
919.383	14187
919.494	14377
919.604	14568
919.715	14320
919.826	14240
919.936	14328
920.047	14415
920.157	14309
920.267	14541
920.378	14393
920.488	14225
920.598	14434
920.708	14663
920.818	14511
920.928	14533
921.038	14667
921.148	14537
921.258	14317
921.368	14111
921.477	14050
921.587	14020
921.697	13845
921.806	13974
921.916	13879
922.025	13860
922.134	13693
922.244	13643
922.353	13772
922.462	13624
922.571	13636
922.68	13316
922.789	13346
922.898	13419
923.007	13270
923.116	13384
923.224	13369
923.333	13301
923.442	13145
923.55	13187
923.659	13274
923.767	13282
923.876	13114
923.984	13213
924.092	13046
924.201	13183
924.309	13080
924.417	13145
924.525	12996
924.633	13004
924.741	13902
924.849	12844
924.956	12894
925.064	12814
925.172	12806
925.279	12798
925.387	12768
925.494	12734
925.602	12878
925.709	12795
925.816	12646
925.924	12730
926.031	12859
926.138	12741
926.245	12745
926.352	12623
926.459	12772
926.566	12798
926.673	12612
926.779	12563
926.886	12502
926.993	12426
927.099	12289
927.206	12296
927.312	12277
927.419	12308
927.525	12216
927.631	12346
927.737	12216
927.843	12159
927.95	12003
928.056	12224
928.162	12167
928.267	12258
928.373	12856
928.479	12315
928.585	12019
928.69	12110
928.796	12159
928.901	12019
929.007	11954
929.112	12091
929.218	12030
929.323	11992
929.428	11813
929.533	12095
929.638	11794
929.743	11836
929.848	11901
929.953	11798
930.058	11764
930.163	11570
930.267	11646
930.372	11710
930.477	11562
930.581	11786
930.685	11737
930.79	11501
930.894	11535
930.998	11471
931.103	11649
931.207	11254
931.311	11193
931.415	11094
931.519	10892
931.623	10843
