Data from test_V78500241_3192.txt Node
Date: Fri Mar 25 15:32:05 CST 2022
User: usil
Spectrometer: V785-0024
Trigger mode: 0
Integration Time (sec): 4.000000E-1
Scans to average: 1
Nonlinearity correction enabled: false
Boxcar width: 0
Storing dark spectrum: false
XAxis mode: Wavelengths
Number of Pixels in Spectrum: 1024
>>>>>Begin Spectral Data<<<<<
801.071	26868
801.214	26944
801.356	26674
801.499	26571
801.641	26343
801.783	26434
801.926	26450
802.068	26507
802.211	26427
802.353	26389
802.496	26039
802.638	26138
802.78	25959
802.923	25830
803.065	25909
803.208	25955
803.35	25974
803.492	26100
803.635	26157
803.777	26199
803.919	26176
804.061	26667
804.204	26202
804.346	26145
804.488	25982
804.63	26214
804.773	26046
804.915	26248
805.057	26301
805.199	26172
805.341	26168
805.483	26385
805.626	26374
805.768	26161
805.91	26347
806.052	26495
806.194	26221
806.336	26511
806.478	26248
806.62	26191
806.762	26366
806.904	26568
807.046	26750
807.188	26716
807.33	26644
807.472	26750
807.614	26636
807.756	26720
807.898	26556
808.04	26412
808.182	26507
808.324	26377
808.465	26606
808.607	26609
808.749	26948
808.891	26899
809.033	27127
809.174	26910
809.316	27001
809.458	26876
809.6	26781
809.741	26933
809.883	26918
810.025	27214
810.166	27188
810.308	27252
810.45	27085
810.591	27131
810.733	26971
810.875	26769
811.016	26773
811.158	26872
811.299	26963
811.441	27036
811.582	26975
811.724	26815
811.865	26918
812.007	26765
812.148	26781
812.29	26880
812.431	27009
812.573	27214
812.714	27275
812.855	27233
812.997	27519
813.138	27534
813.279	27450
813.421	27393
813.562	27268
813.703	27272
813.845	27104
813.986	26727
814.127	26655
814.268	26377
814.41	26488
814.551	26575
814.692	26648
814.833	26389
814.974	26370
815.115	26518
815.256	26457
815.397	26450
815.539	26263
815.68	26370
815.821	26187
815.962	26317
816.103	26267
816.244	26210
816.385	25974
816.526	26046
816.666	25959
816.807	25776
816.948	25830
817.089	25944
817.23	25830
817.371	25822
817.512	25624
817.653	25708
817.793	25689
817.934	25837
818.075	25685
818.216	25704
818.356	25738
818.497	25464
818.638	25419
818.778	25502
818.919	25544
819.06	25487
819.2	25643
819.341	25662
819.481	25818
819.622	25837
819.762	26126
819.903	25940
820.043	25963
820.184	25887
820.324	25871
820.465	25909
820.605	25944
820.746	25693
820.886	25772
821.026	25849
821.167	25811
821.307	26005
821.447	25795
821.588	25693
821.728	25521
821.868	25476
822.008	25304
822.149	25244
822.289	25240
822.429	24962
822.569	24973
822.709	24916
822.849	24639
822.99	24795
823.13	24582
823.27	24764
823.41	24433
823.55	24418
823.69	24525
823.83	24631
823.97	24479
824.11	24194
824.25	24277
824.389	24330
824.529	24517
824.669	24372
824.809	24521
824.949	24448
825.089	24433
825.228	24471
825.368	24213
825.508	24273
825.648	24205
825.787	24228
825.927	24273
826.067	24174
826.206	24155
826.346	24308
826.485	24327
826.625	24159
826.765	24247
826.904	24327
827.044	24045
827.183	23961
827.323	23935
827.462	23935
827.601	23893
827.741	23851
827.88	23912
828.02	23840
828.159	23893
828.298	23893
828.437	24026
828.577	23931
828.716	23973
828.855	23847
828.994	23592
829.134	23718
829.273	23703
829.412	23680
829.551	23566
829.69	23634
829.829	23676
829.968	23802
830.107	23665
830.246	23596
830.385	23482
830.524	23623
830.663	23463
830.802	23299
830.941	23307
831.08	23178
831.219	23250
831.357	23326
831.496	23474
831.635	23299
831.774	23102
831.913	23124
832.051	23113
832.19	23041
832.329	22999
832.467	22881
832.606	22927
832.744	22904
832.883	22904
833.022	22919
833.16	23018
833.299	22972
833.437	22915
833.576	23075
833.714	22965
833.852	23140
833.991	22999
834.129	23056
834.267	23136
834.406	22968
834.544	23029
834.682	23048
834.821	22991
834.959	23064
835.097	22915
835.235	23090
835.373	22881
835.511	23037
835.65	22843
835.788	22725
835.926	22596
836.064	22717
836.202	22694
836.34	22892
836.478	22835
836.615	22896
836.753	22938
836.891	22934
837.029	22877
837.167	22930
837.305	22729
837.443	22797
837.58	22698
837.718	22786
837.856	22683
837.993	22588
838.131	22645
838.269	22615
838.406	22603
838.544	22527
838.681	22402
838.819	22402
838.956	22215
839.094	22223
839.231	22204
839.369	22314
839.506	22409
839.643	22462
839.781	22158
839.918	22200
840.055	22196
840.193	22215
840.33	22177
840.467	21960
840.604	22093
840.742	22478
840.879	21975
841.016	21987
841.153	22010
841.29	22238
841.427	22036
841.564	22112
841.701	22139
841.838	22116
841.975	22032
842.112	22093
842.249	21823
842.385	21907
842.522	22109
842.659	21918
842.796	21812
842.933	21926
843.069	21759
843.206	21907
843.343	21987
843.479	21816
843.616	21819
843.752	21739
843.889	21739
844.025	21766
844.162	21610
844.298	21732
844.435	21564
844.571	21595
844.708	21713
844.844	21751
844.98	21622
845.117	21808
845.253	21591
845.389	21557
845.525	21557
845.661	21492
845.798	21462
845.934	21534
846.07	21439
846.206	21477
846.342	21473
846.478	21473
846.614	21195
846.75	21081
846.886	21230
847.022	21272
847.158	21176
847.294	21203
847.429	21173
847.565	21112
847.701	21272
847.837	20861
847.972	20743
848.108	20975
848.244	20876
848.379	20819
848.515	20712
848.65	20697
848.786	20682
848.921	20682
849.057	20883
849.192	20826
849.328	20712
849.463	20625
849.598	20712
849.734	20541
849.869	20526
850.004	20488
850.14	20526
850.275	20560
850.41	20465
850.545	20423
850.68	20465
850.815	20511
850.95	20381
851.085	20765
851.22	20602
851.355	20469
851.49	20473
851.625	20461
851.76	20396
851.895	20427
852.03	20374
852.165	20492
852.299	20556
852.434	20549
852.569	20484
852.703	20442
852.838	20609
852.973	20663
853.107	20526
853.242	20457
853.376	20328
853.511	20214
853.645	20240
853.78	20385
853.914	20317
854.048	20244
854.183	20347
854.317	20305
854.451	20492
854.585	20347
854.72	20301
854.854	20336
854.988	20313
855.122	20275
855.256	20180
855.39	20252
855.524	20328
855.658	20339
855.792	20355
855.926	20385
856.06	20339
856.194	20412
856.327	20267
856.461	20225
856.595	20381
856.729	20332
856.862	20514
856.996	20320
857.13	20248
857.263	20400
857.397	20442
857.53	20351
857.664	20332
857.797	20301
857.931	20385
858.064	20518
858.197	20461
858.331	20305
858.464	20267
858.597	20218
858.731	20317
858.864	20187
858.997	20313
859.13	20237
859.263	20332
859.396	20377
859.529	20343
859.662	20294
859.795	20256
859.928	20370
860.061	20454
860.194	20454
860.327	20450
860.46	20309
860.592	20434
860.725	20514
860.858	20377
860.99	20404
861.123	20206
861.256	20282
861.388	20256
861.521	20902
861.653	20157
861.786	20145
861.918	20111
862.05	20202
862.183	20202
862.315	20347
862.447	20278
862.58	20244
862.712	20096
862.844	20012
862.976	20065
863.108	20183
863.24	20389
863.372	19871
863.504	20058
863.636	20077
863.768	20001
863.9	19936
864.032	20054
864.164	20050
864.296	19993
864.428	20081
864.559	20138
864.691	20180
864.823	19967
864.954	20024
865.086	19993
865.217	19963
865.349	19993
865.48	19986
865.612	19890
865.743	20153
865.875	19959
866.006	19940
866.137	19951
866.269	19803
866.4	19940
866.531	19845
866.662	19830
866.793	19936
866.924	19868
867.055	19974
867.186	19784
867.317	19887
867.448	19917
867.579	19822
867.71	19814
867.841	19799
867.972	19928
868.103	19845
868.233	19993
868.364	19887
868.495	19982
868.625	20088
868.756	20237
868.886	20107
869.017	20062
869.147	20176
869.278	20282
869.408	20183
869.539	20111
869.669	20134
869.799	20149
869.929	20164
870.06	20229
870.19	20442
870.32	20469
870.45	20419
870.58	20476
870.71	20670
870.84	20697
870.97	20579
871.1	20556
871.23	20807
871.36	20629
871.489	20648
871.619	20689
871.749	20720
871.879	20758
872.008	20804
872.138	20785
872.267	20765
872.397	20655
872.526	20541
872.656	20617
872.785	20621
872.915	20834
873.044	20811
873.173	20800
873.303	20773
873.432	20921
873.561	20781
873.69	20678
873.819	20830
873.948	20845
874.077	20746
874.206	20720
874.335	20788
874.464	20967
874.593	20990
874.722	21024
874.851	20971
874.979	20986
875.108	21062
875.237	20944
875.365	20952
875.494	20998
875.623	21047
875.751	21024
875.88	21024
876.008	21131
876.136	21161
876.265	21428
876.393	21549
876.521	21325
876.65	21435
876.778	21481
876.906	21557
877.034	21348
877.162	21332
877.29	21336
877.418	21325
877.546	21443
877.674	21386
877.802	21359
877.93	21408
878.058	21351
878.185	21310
878.313	21310
878.441	21336
878.568	21119
878.696	21310
878.824	21431
878.951	21428
879.079	21412
879.206	21698
879.333	21523
879.461	21469
879.588	21515
879.715	21564
879.842	21622
879.97	21378
880.097	21203
880.224	21287
880.351	21138
880.478	21317
880.605	21218
880.732	21123
880.859	21393
880.986	21321
881.112	21321
881.239	20979
881.366	21055
881.493	20906
881.619	20834
881.746	20712
881.872	20758
881.999	20689
882.125	20735
882.252	20800
882.378	20739
882.505	20914
882.631	20697
882.757	20583
882.883	20575
883.01	20492
883.136	20545
883.262	20305
883.388	20381
883.514	20438
883.64	20522
883.766	20419
883.892	20339
884.018	20290
884.143	20560
884.269	20541
884.395	20191
884.52	20134
884.646	20210
884.772	20020
884.897	20081
885.023	20298
885.148	20286
885.274	20278
885.399	20240
885.524	20248
885.65	20039
885.775	20142
885.9	20111
886.025	20218
886.15	20153
886.275	19989
886.4	19993
886.525	20077
886.65	20096
886.775	20035
886.9	20199
887.025	20275
887.149	20130
887.274	19978
887.399	19906
887.523	19932
887.648	19887
887.773	19814
887.897	19944
888.021	19951
888.146	19833
888.27	20069
888.395	19989
888.519	19909
888.643	19970
888.767	19993
888.891	19807
889.015	19685
889.139	19628
889.263	19708
889.387	19887
889.511	19864
889.635	19887
889.759	19696
889.883	19818
890.006	19738
890.13	19856
890.254	19628
890.377	19689
890.501	19518
890.624	19407
890.748	19502
890.871	19556
890.995	19289
891.118	19228
891.241	19274
891.364	19304
891.488	19453
891.611	19270
891.734	19354
891.857	19369
891.98	19346
892.103	19327
892.226	19327
892.349	19091
892.471	19110
892.594	19190
892.717	19308
892.839	19198
892.962	19244
893.085	19312
893.207	19202
893.33	19171
893.452	19122
893.575	19274
893.697	19187
893.819	19301
893.941	19392
894.064	19278
894.186	19194
894.308	19122
894.43	19320
894.552	19282
894.674	19392
894.796	19164
894.918	19099
895.04	19259
895.161	19350
895.283	19187
895.405	19228
895.526	19270
895.648	19263
895.769	19289
895.891	19225
896.012	19240
896.134	19331
896.255	19316
896.376	19259
896.498	19263
896.619	19422
896.74	19107
896.861	19270
896.982	19556
897.103	19685
897.224	19559
897.345	19419
897.466	19362
897.587	19521
897.708	19483
897.828	19544
897.949	19396
898.07	19369
898.19	19434
898.311	19635
898.431	19445
898.552	19453
898.672	19449
898.792	19601
898.913	19457
899.033	19411
899.153	19304
899.273	19194
899.393	19240
899.513	19251
899.633	19160
899.753	19278
899.873	19156
899.993	19346
900.113	19263
900.232	19259
900.352	19209
900.472	19061
900.591	18924
900.711	19118
900.83	18966
900.95	19126
901.069	19232
901.189	18913
901.308	18654
901.427	18555
901.546	18585
901.665	18692
901.784	18650
901.904	18380
902.023	18437
902.141	18106
902.26	18216
902.379	18311
902.498	18201
902.617	18125
902.735	18129
902.854	18076
902.973	18125
903.091	17885
903.21	17745
903.328	17824
903.446	17726
903.565	17722
903.683	17638
903.801	17512
903.919	17611
904.038	17573
904.156	17524
904.274	17486
904.392	17391
904.51	17315
904.627	17330
904.745	17429
904.863	17471
904.981	17193
905.098	17185
905.216	17132
905.334	17037
905.451	17098
905.569	17056
905.686	17170
905.803	17098
905.921	16831
906.038	16949
906.155	16877
906.272	16866
906.389	16835
906.506	16607
906.623	16618
906.74	16561
906.857	16603
906.974	16466
907.091	16687
907.208	16828
907.324	16626
907.441	16531
907.557	16352
907.674	16272
907.79	16261
907.907	16432
908.023	16344
908.139	16306
908.256	16299
908.372	16272
908.488	16093
908.604	16093
908.72	16078
908.836	16143
908.952	16128
909.068	16101
909.184	16204
909.3	16078
909.415	16029
909.531	16063
909.647	15892
909.762	15770
909.878	15732
909.993	15816
910.108	15854
910.224	15644
910.339	15842
910.454	15637
910.57	15637
910.685	15564
910.8	15724
910.915	15747
911.03	15606
911.145	15355
911.259	15481
911.374	15359
911.489	15344
911.604	15283
911.718	15097
911.833	15135
911.947	15123
912.062	15085
912.176	15157
912.291	15214
912.405	15154
912.519	15298
912.633	15351
912.748	15157
912.862	15123
912.976	15127
913.09	14842
913.204	14918
913.318	15097
913.431	15051
913.545	15165
913.659	15108
913.772	14925
913.886	14804
914	14777
914.113	14861
914.226	14918
914.34	14937
914.453	14731
914.566	14746
914.68	14781
914.793	14708
914.906	14568
915.019	14514
915.132	14370
915.245	14454
915.358	14431
915.47	14450
915.583	14385
915.696	14374
915.809	14503
915.921	14590
916.034	14381
916.146	14256
916.259	14366
916.371	14419
916.483	14404
916.595	14187
916.708	14271
916.82	14278
916.932	14305
917.044	14267
917.156	14206
917.268	14111
917.38	14081
917.491	14115
917.603	14183
917.715	14180
917.826	14195
917.938	14046
918.049	13913
918.161	14096
918.272	14142
918.384	14153
918.495	14054
918.606	14005
918.717	13837
918.828	13890
918.939	13955
919.05	13753
919.161	13871
919.272	13632
919.383	13723
919.494	13989
919.604	14088
919.715	13871
919.826	13818
919.936	13753
920.047	13856
920.157	13856
920.267	13978
920.378	13814
920.488	13871
920.598	13963
920.708	14119
920.818	13989
920.928	14065
921.038	14187
921.148	14164
921.258	13826
921.368	13772
921.477	13655
921.587	13586
921.697	13502
921.806	13662
921.916	13422
922.025	13285
922.134	13289
922.244	13171
922.353	13316
922.462	13133
922.571	13141
922.68	13065
922.789	12909
922.898	12817
923.007	12875
923.116	12962
923.224	12886
923.333	12901
923.442	12745
923.55	12745
923.659	12772
923.767	12859
923.876	12741
923.984	12753
924.092	12616
924.201	12741
924.309	12722
924.417	12692
924.525	12593
924.633	12593
924.741	13518
924.849	12445
924.956	12494
925.064	12410
925.172	12228
925.279	12300
925.387	12323
925.494	12346
925.602	12433
925.709	12391
925.816	12152
925.924	12350
926.031	12429
926.138	12369
926.245	12334
926.352	12205
926.459	12346
926.566	12414
926.673	12247
926.779	12072
926.886	12083
926.993	11965
927.099	11980
927.206	11927
927.312	11920
927.419	12053
927.525	11885
927.631	12038
927.737	11859
927.843	11843
927.95	11691
928.056	11760
928.162	11786
928.267	11843
928.373	12407
928.479	11798
928.585	11688
928.69	11695
928.796	11786
928.901	11581
929.007	11566
929.112	11661
929.218	11699
929.323	11573
929.428	11554
929.533	11691
929.638	11490
929.743	11429
929.848	11528
929.953	11520
930.058	11368
930.163	11128
930.267	11239
930.372	11372
930.477	11102
930.581	11452
930.685	11254
930.79	11128
930.894	11178
930.998	11075
931.103	11204
931.207	10892
931.311	10816
931.415	10786
931.519	10489
931.623	10474
