Data from test_V78500241_2870.txt Node
Date: Fri Mar 25 15:29:50 CST 2022
User: usil
Spectrometer: V785-0024
Trigger mode: 0
Integration Time (sec): 4.000000E-1
Scans to average: 1
Nonlinearity correction enabled: false
Boxcar width: 0
Storing dark spectrum: false
XAxis mode: Wavelengths
Number of Pixels in Spectrum: 1024
>>>>>Begin Spectral Data<<<<<
801.071	27218
801.214	27214
801.356	27039
801.499	26792
801.641	26746
801.783	26716
801.926	26670
802.068	26682
802.211	26602
802.353	26560
802.496	26389
802.638	26305
802.78	26298
802.923	26278
803.065	26271
803.208	26187
803.35	26305
803.492	26530
803.635	26537
803.777	26404
803.919	26632
804.061	26823
804.204	26575
804.346	26541
804.488	26339
804.63	26408
804.773	26256
804.915	26446
805.057	26625
805.199	26549
805.341	26651
805.483	26621
805.626	26625
805.768	26602
805.91	26629
806.052	26655
806.194	26579
806.336	26819
806.478	26465
806.62	26621
806.762	26743
806.904	26868
807.046	27020
807.188	27028
807.33	27184
807.472	27055
807.614	27116
807.756	26971
807.898	26785
808.04	26929
808.182	26823
808.324	26815
808.465	27017
808.607	27180
808.749	27252
808.891	27298
809.033	27272
809.174	27207
809.316	27154
809.458	27070
809.6	27176
809.741	27272
809.883	27283
810.025	27382
810.166	27389
810.308	27458
810.45	27427
810.591	27279
810.733	27283
810.875	27275
811.016	27104
811.158	27249
811.299	27241
811.441	27252
811.582	27317
811.724	27275
811.865	27138
812.007	27116
812.148	27192
812.29	27119
812.431	27382
812.573	27511
812.714	27542
812.855	27576
812.997	27789
813.138	27827
813.279	27960
813.421	27717
813.562	27572
813.703	27351
813.845	27359
813.986	27199
814.127	26891
814.268	26891
814.41	26914
814.551	26834
814.692	26906
814.833	26819
814.974	26743
815.115	26842
815.256	26815
815.397	26636
815.539	26644
815.68	26533
815.821	26541
815.962	26731
816.103	26587
816.244	26431
816.385	26210
816.526	26415
816.666	26218
816.807	26016
816.948	26134
817.089	26267
817.23	26111
817.371	26069
817.512	26164
817.653	26081
817.793	26005
817.934	26286
818.075	25993
818.216	26050
818.356	26088
818.497	26005
818.638	25776
818.778	25875
818.919	25864
819.06	25921
819.2	26024
819.341	25986
819.481	26191
819.622	26107
819.762	26396
819.903	26324
820.043	26206
820.184	26229
820.324	26199
820.465	26218
820.605	26225
820.746	26282
820.886	26046
821.026	26065
821.167	26142
821.307	26214
821.447	26062
821.588	25982
821.728	25734
821.868	25639
822.008	25647
822.149	25521
822.289	25605
822.429	25346
822.569	25137
822.709	25221
822.849	25042
822.99	25038
823.13	25175
823.27	25031
823.41	24837
823.55	24806
823.69	24753
823.83	24894
823.97	24726
824.11	24582
824.25	24688
824.389	24772
824.529	24612
824.669	24787
824.809	24776
824.949	24749
825.089	24703
825.228	24661
825.368	24597
825.508	24483
825.648	24635
825.787	24631
825.927	24696
826.067	24517
826.206	24486
826.346	24593
826.485	24661
826.625	24509
826.765	24707
826.904	24563
827.044	24232
827.183	24365
827.323	24125
827.462	24384
827.601	24304
827.741	24152
827.88	24281
828.02	24117
828.159	24171
828.298	24281
828.437	24213
828.577	24258
828.716	24289
828.855	24152
828.994	24038
829.134	23935
829.273	24026
829.412	23908
829.551	23950
829.69	23923
829.829	24049
829.968	23965
830.107	23980
830.246	23958
830.385	23977
830.524	23847
830.663	23733
830.802	23726
830.941	23558
831.08	23478
831.219	23695
831.357	23592
831.496	23718
831.635	23490
831.774	23395
831.913	23474
832.051	23353
832.19	23414
832.329	23239
832.467	23299
832.606	23204
832.744	23296
832.883	23239
833.022	23044
833.16	23128
833.299	23326
833.437	23204
833.576	23258
833.714	23353
833.852	23311
833.991	23406
834.129	23315
834.267	23448
834.406	23265
834.544	23311
834.682	23280
834.821	23166
834.959	23490
835.097	23143
835.235	23376
835.373	23330
835.511	23239
835.65	23090
835.788	23151
835.926	23098
836.064	22877
836.202	23003
836.34	23056
836.478	23216
836.615	23060
836.753	23155
836.891	23322
837.029	22980
837.167	23048
837.305	23018
837.443	23086
837.58	22968
837.718	22999
837.856	22930
837.993	22911
838.131	23094
838.269	22805
838.406	22790
838.544	22691
838.681	22645
838.819	22577
838.956	22508
839.094	22489
839.231	22516
839.369	22618
839.506	22881
839.643	22721
839.781	22466
839.918	22375
840.055	22459
840.193	22474
840.33	22394
840.467	22371
840.604	22341
840.742	22599
840.879	22230
841.016	22405
841.153	22356
841.29	22443
841.427	22287
841.564	22398
841.701	22367
841.838	22322
841.975	22257
842.112	22363
842.249	22177
842.385	22242
842.522	22409
842.659	22215
842.796	22177
842.933	22147
843.069	22086
843.206	22135
843.343	22196
843.479	22086
843.616	22139
843.752	21838
843.889	21975
844.025	22051
844.162	21736
844.298	22006
844.435	21968
844.571	21800
844.708	22048
844.844	22010
844.98	22032
845.117	22021
845.253	21899
845.389	21762
845.525	21827
845.661	21789
845.798	21633
845.934	21660
846.07	21603
846.206	21728
846.342	21800
846.478	21698
846.614	21454
846.75	21260
846.886	21428
847.022	21462
847.158	21481
847.294	21473
847.429	21329
847.565	21367
847.701	21572
847.837	21093
847.972	21127
848.108	21169
848.244	21066
848.379	21127
848.515	20960
848.65	20914
848.786	21085
848.921	21020
849.057	21028
849.192	21074
849.328	20960
849.463	21043
849.598	21009
849.734	20883
849.869	20705
850.004	20655
850.14	20815
850.275	20819
850.41	20686
850.545	20659
850.68	20689
850.815	20811
850.95	20674
851.085	20914
851.22	20853
851.355	20857
851.49	20823
851.625	20682
851.76	20697
851.895	20598
852.03	20590
852.165	20568
852.299	20750
852.434	20819
852.569	20788
852.703	20727
852.838	20849
852.973	20918
853.107	20880
853.242	20739
853.376	20499
853.511	20454
853.645	20499
853.78	20701
853.914	20632
854.048	20469
854.183	20545
854.317	20526
854.451	20750
854.585	20514
854.72	20507
854.854	20651
854.988	20552
855.122	20609
855.256	20431
855.39	20625
855.524	20640
855.658	20640
855.792	20549
855.926	20636
856.06	20689
856.194	20644
856.327	20507
856.461	20526
856.595	20446
856.729	20492
856.862	20613
856.996	20571
857.13	20556
857.263	20682
857.397	20655
857.53	20537
857.664	20667
857.797	20701
857.931	20720
858.064	20636
858.197	20629
858.331	20423
858.464	20575
858.597	20374
858.731	20552
858.864	20613
858.997	20632
859.13	20571
859.263	20545
859.396	20560
859.529	20579
859.662	20571
859.795	20511
859.928	20651
860.061	20693
860.194	20705
860.327	20575
860.46	20594
860.592	20754
860.725	20731
860.858	20716
860.99	20609
861.123	20549
861.256	20488
861.388	20552
861.521	21291
861.653	20427
861.786	20248
861.918	20400
862.05	20507
862.183	20552
862.315	20518
862.447	20556
862.58	20480
862.712	20366
862.844	20275
862.976	20495
863.108	20393
863.24	20811
863.372	20309
863.504	20309
863.636	20286
863.768	20298
863.9	20267
864.032	20164
864.164	20263
864.296	20263
864.428	20377
864.559	20393
864.691	20362
864.823	20301
864.954	20328
865.086	20183
865.217	20191
865.349	20058
865.48	20252
865.612	20214
865.743	20317
865.875	20240
866.006	20233
866.137	20271
866.269	20199
866.4	20168
866.531	20107
866.662	20012
866.793	20111
866.924	20122
867.055	20031
867.186	20149
867.317	20092
867.448	20054
867.579	20199
867.71	20046
867.841	20119
867.972	20263
868.103	20122
868.233	20153
868.364	20271
868.495	20332
868.625	20313
868.756	20503
868.886	20161
869.017	20339
869.147	20476
869.278	20434
869.408	20324
869.539	20438
869.669	20488
869.799	20389
869.929	20492
870.06	20495
870.19	20651
870.32	20587
870.45	20746
870.58	20800
870.71	20792
870.84	20864
870.97	20800
871.1	20826
871.23	21051
871.36	20925
871.489	21001
871.619	20982
871.749	20914
871.879	21043
872.008	21108
872.138	20998
872.267	20918
872.397	20849
872.526	20788
872.656	20758
872.785	20819
872.915	21051
873.044	21028
873.173	21039
873.303	21096
873.432	21104
873.561	20960
873.69	21081
873.819	20998
873.948	21055
874.077	20994
874.206	21047
874.335	20941
874.464	21108
874.593	21230
874.722	21169
874.851	21283
874.979	21218
875.108	21211
875.237	21230
875.365	21123
875.494	21214
875.623	21397
875.751	21230
875.88	21165
876.008	21424
876.136	21519
876.265	21587
876.393	21804
876.521	21766
876.65	21774
876.778	21660
876.906	21618
877.034	21534
877.162	21660
877.29	21462
877.418	21580
877.546	21633
877.674	21580
877.802	21606
877.93	21435
878.058	21488
878.185	21435
878.313	21511
878.441	21622
878.568	21313
878.696	21576
878.824	21534
878.951	21610
879.079	21789
879.206	21785
879.333	21713
879.461	21625
879.588	21568
879.715	21816
879.842	21800
879.97	21774
880.097	21564
880.224	21374
880.351	21439
880.478	21351
880.605	21447
880.732	21268
880.859	21656
880.986	21408
881.112	21397
881.239	21176
881.366	21226
881.493	21180
881.619	21039
881.746	20967
881.872	20880
881.999	21074
882.125	20986
882.252	21024
882.378	21005
882.505	21081
882.631	20857
882.757	20606
882.883	20883
883.01	20705
883.136	20697
883.262	20640
883.388	20518
883.514	20693
883.64	20697
883.766	20636
883.892	20484
884.018	20568
884.143	20674
884.269	20800
884.395	20271
884.52	20377
884.646	20434
884.772	20339
884.897	20161
885.023	20385
885.148	20518
885.274	20465
885.399	20480
885.524	20343
885.65	20305
885.775	20400
885.9	20237
886.025	20381
886.15	20533
886.275	20427
886.4	20324
886.525	20271
886.65	20298
886.775	20275
886.9	20533
887.025	20469
887.149	20377
887.274	20142
887.399	20043
887.523	20271
887.648	20103
887.773	20050
887.897	20320
888.021	20100
888.146	20012
888.27	20187
888.395	20225
888.519	20237
888.643	20069
888.767	20168
888.891	20020
889.015	19936
889.139	20145
889.263	19868
889.387	20016
889.511	20073
889.635	19986
889.759	19788
889.883	19898
890.006	19951
890.13	20046
890.254	19841
890.377	19921
890.501	19632
890.624	19723
890.748	19689
890.871	19537
890.995	19441
891.118	19419
891.241	19552
891.364	19628
891.488	19689
891.611	19559
891.734	19499
891.857	19510
891.98	19487
892.103	19563
892.226	19453
892.349	19464
892.471	19301
892.594	19483
892.717	19499
892.839	19403
892.962	19434
893.085	19514
893.207	19567
893.33	19369
893.452	19373
893.575	19609
893.697	19510
893.819	19590
893.941	19582
894.064	19632
894.186	19400
894.308	19327
894.43	19521
894.552	19529
894.674	19582
894.796	19354
894.918	19499
895.04	19388
895.161	19537
895.283	19491
895.405	19312
895.526	19434
895.648	19392
895.769	19400
895.891	19590
896.012	19544
896.134	19578
896.255	19434
896.376	19384
896.498	19320
896.619	19476
896.74	19400
896.861	19578
896.982	19723
897.103	19826
897.224	19757
897.345	19544
897.466	19582
897.587	19601
897.708	19655
897.828	19731
897.949	19647
898.07	19540
898.19	19677
898.311	19712
898.431	19715
898.552	19655
898.672	19826
898.792	19841
898.913	19841
899.033	19575
899.153	19396
899.273	19358
899.393	19480
899.513	19460
899.633	19396
899.753	19430
899.873	19369
899.993	19460
900.113	19400
900.232	19445
900.352	19343
900.472	19213
900.591	19232
900.711	19270
900.83	19206
900.95	19343
901.069	19232
901.189	19126
901.308	18806
901.427	18753
901.546	18856
901.665	18829
901.784	18897
901.904	18639
902.023	18540
902.141	18498
902.26	18372
902.379	18498
902.498	18190
902.617	18388
902.735	18479
902.854	18319
902.973	18327
903.091	18034
903.21	17961
903.328	18087
903.446	17916
903.565	18003
903.683	17863
903.801	17684
903.919	17733
904.038	17642
904.156	17600
904.274	17623
904.392	17486
904.51	17539
904.627	17528
904.745	17646
904.863	17672
904.981	17444
905.098	17326
905.216	17288
905.334	17341
905.451	17356
905.569	17288
905.686	17227
905.803	17322
905.921	17045
906.038	17086
906.155	17060
906.272	16942
906.389	16968
906.506	16927
906.623	16923
906.74	16809
906.857	16748
906.974	16729
907.091	16934
907.208	16831
907.324	16812
907.441	16710
907.557	16660
907.674	16481
907.79	16550
907.907	16489
908.023	16592
908.139	16565
908.256	16497
908.372	16451
908.488	16424
908.604	16329
908.72	16261
908.836	16306
908.952	16211
909.068	16215
909.184	16459
909.3	16154
909.415	16303
909.531	16265
909.647	16029
909.762	15956
909.878	15964
909.993	15975
910.108	15903
910.224	15922
910.339	15953
910.454	15865
910.57	15667
910.685	15690
910.8	16013
910.915	15907
911.03	15751
911.145	15610
911.259	15564
911.374	15504
911.489	15393
911.604	15576
911.718	15302
911.833	15439
911.947	15268
912.062	15146
912.176	15283
912.291	15447
912.405	15344
912.519	15538
912.633	15488
912.748	15416
912.862	15260
912.976	15207
913.09	15104
913.204	15081
913.318	15146
913.431	15214
913.545	15256
913.659	15195
913.772	15127
913.886	14982
914	14819
914.113	15055
914.226	15017
914.34	14887
914.453	14876
914.566	14986
914.68	14872
914.793	14746
914.906	14686
915.019	14621
915.132	14530
915.245	14594
915.358	14682
915.47	14651
915.583	14644
915.696	14583
915.809	14686
915.921	14655
916.034	14514
916.146	14454
916.259	14488
916.371	14552
916.483	14537
916.595	14450
916.708	14507
916.82	14526
916.932	14419
917.044	14442
917.156	14465
917.268	14301
917.38	14286
917.491	14187
917.603	14317
917.715	14286
917.826	14423
917.938	14248
918.049	14138
918.161	14252
918.272	14305
918.384	14180
918.495	14183
918.606	14073
918.717	13944
918.828	14092
918.939	14119
919.05	13955
919.161	14073
919.272	13887
919.383	13868
919.494	14123
919.604	14164
919.715	14050
919.826	13955
919.936	13967
920.047	14084
920.157	14077
920.267	14142
920.378	14111
920.488	13925
920.598	14138
920.708	14336
920.818	14062
920.928	14134
921.038	14252
921.148	14252
921.258	14005
921.368	13860
921.477	13742
921.587	13674
921.697	13628
921.806	13704
921.916	13590
922.025	13426
922.134	13354
922.244	13369
922.353	13430
922.462	13225
922.571	13225
922.68	12996
922.789	13088
922.898	13099
923.007	13000
923.116	12973
923.224	13038
923.333	12913
923.442	12958
923.55	12897
923.659	12905
923.767	12943
923.876	12844
923.984	12924
924.092	12703
924.201	12924
924.309	12848
924.417	12833
924.525	12741
924.633	12741
924.741	13628
924.849	12570
924.956	12677
925.064	12532
925.172	12498
925.279	12452
925.387	12544
925.494	12551
925.602	12662
925.709	12464
925.816	12414
925.924	12410
926.031	12483
926.138	12475
926.245	12513
926.352	12308
926.459	12509
926.566	12471
926.673	12433
926.779	12254
926.886	12277
926.993	12041
927.099	12076
927.206	12019
927.312	12003
927.419	12095
927.525	12007
927.631	12106
927.737	12041
927.843	11984
927.95	11794
928.056	11904
928.162	11927
928.267	11927
928.373	12726
928.479	12011
928.585	11764
928.69	11893
928.796	11939
928.901	11756
929.007	11623
929.112	11790
929.218	11665
929.323	11627
929.428	11733
929.533	11836
929.638	11573
929.743	11581
929.848	11615
929.953	11600
930.058	11436
930.163	11417
930.267	11436
930.372	11455
930.477	11311
930.581	11577
930.685	11410
930.79	11170
930.894	11235
930.998	11208
931.103	11337
931.207	11029
931.311	10961
931.415	10835
931.519	10679
931.623	10645
