Data from test_V78500241_2207.txt Node
Date: Fri Mar 25 15:25:13 CST 2022
User: usil
Spectrometer: V785-0024
Trigger mode: 0
Integration Time (sec): 4.000000E-1
Scans to average: 1
Nonlinearity correction enabled: false
Boxcar width: 0
Storing dark spectrum: false
XAxis mode: Wavelengths
Number of Pixels in Spectrum: 1024
>>>>>Begin Spectral Data<<<<<
801.071	27937
801.214	27884
801.356	27576
801.499	27424
801.641	27298
801.783	27397
801.926	27549
802.068	27485
802.211	27355
802.353	27249
802.496	27112
802.638	27074
802.78	27089
802.923	26975
803.065	26921
803.208	26956
803.35	27074
803.492	27275
803.635	27310
803.777	27116
803.919	27272
804.061	27549
804.204	27283
804.346	27237
804.488	27161
804.63	27176
804.773	27241
804.915	27279
805.057	27351
805.199	27233
805.341	27256
805.483	27359
805.626	27241
805.768	27237
805.91	27405
806.052	27367
806.194	27279
806.336	27511
806.478	27424
806.62	27256
806.762	27557
806.904	27580
807.046	27865
807.188	27800
807.33	27701
807.472	27793
807.614	27770
807.756	27808
807.898	27633
808.04	27580
808.182	27694
808.324	27618
808.465	27610
808.607	27766
808.749	28040
808.891	28120
809.033	28154
809.174	28143
809.316	27907
809.458	27819
809.6	27857
809.741	27911
809.883	28181
810.025	28284
810.166	28287
810.308	28200
810.45	28291
810.591	28341
810.733	27991
810.875	28017
811.016	27941
811.158	27926
811.299	28162
811.441	28044
811.582	28223
811.724	28017
811.865	28032
812.007	27972
812.148	27930
812.29	27937
812.431	28162
812.573	28306
812.714	28375
812.855	28386
812.997	28538
813.138	28786
813.279	28588
813.421	28577
813.562	28470
813.703	28306
813.845	28337
813.986	28021
814.127	27724
814.268	27663
814.41	27743
814.551	27641
814.692	27766
814.833	27526
814.974	27614
815.115	27759
815.256	27526
815.397	27648
815.539	27572
815.68	27405
815.821	27481
815.962	27427
816.103	27477
816.244	27306
816.385	27283
816.526	27188
816.666	27096
816.807	26967
816.948	27043
817.089	26940
817.23	26998
817.371	27051
817.512	26940
817.653	26940
817.793	26891
817.934	27028
818.075	26929
818.216	26887
818.356	26940
818.497	26773
818.638	26670
818.778	26674
818.919	26667
819.06	26678
819.2	26807
819.341	26963
819.481	26906
819.622	27154
819.762	27367
819.903	27222
820.043	27108
820.184	27275
820.324	26960
820.465	27161
820.605	27093
820.746	27062
820.886	26940
821.026	27062
821.167	26986
821.307	27104
821.447	26998
821.588	26857
821.728	26807
821.868	26598
822.008	26400
822.149	26393
822.289	26427
822.429	26016
822.569	26107
822.709	26039
822.849	26050
822.99	25871
823.13	25811
823.27	25784
823.41	25681
823.55	25666
823.69	25841
823.83	25765
823.97	25700
824.11	25457
824.25	25491
824.389	25506
824.529	25681
824.669	25521
824.809	25670
824.949	25689
825.089	25624
825.228	25635
825.368	25453
825.508	25392
825.648	25297
825.787	25422
825.927	25533
826.067	25373
826.206	25304
826.346	25567
826.485	25422
826.625	25457
826.765	25476
826.904	25460
827.044	25141
827.183	25308
827.323	25164
827.462	25072
827.601	25137
827.741	24954
827.88	25145
828.02	24962
828.159	25213
828.298	25053
828.437	25107
828.577	25034
828.716	25031
828.855	25099
828.994	24840
829.134	24863
829.273	24859
829.412	24779
829.551	24821
829.69	24711
829.829	24905
829.968	24932
830.107	25027
830.246	24882
830.385	24783
830.524	24688
830.663	24631
830.802	24544
830.941	24448
831.08	24509
831.219	24490
831.357	24471
831.496	24707
831.635	24403
831.774	24395
831.913	24311
832.051	24232
832.19	24228
832.329	24262
832.467	24007
832.606	24072
832.744	24049
832.883	24155
833.022	23961
833.16	24140
833.299	24171
833.437	24174
833.576	24186
833.714	24064
833.852	24144
833.991	24136
834.129	24289
834.267	24140
834.406	24190
834.544	24144
834.682	24209
834.821	24232
834.959	24361
835.097	24125
835.235	24049
835.373	24182
835.511	24041
835.65	24117
835.788	23893
835.926	23885
836.064	23805
836.202	23805
836.34	23855
836.478	24034
836.615	23958
836.753	23836
836.891	24095
837.029	23988
837.167	23912
837.305	23920
837.443	23821
837.58	23828
837.718	23904
837.856	23927
837.993	23863
838.131	23745
838.269	23661
838.406	23695
838.544	23691
838.681	23425
838.819	23452
838.956	23227
839.094	23326
839.231	23269
839.369	23330
839.506	23767
839.643	23478
839.781	23269
839.918	23269
840.055	23067
840.193	23204
840.33	23162
840.467	23181
840.604	23258
840.742	23680
840.879	22995
841.016	23102
841.153	23128
841.29	23204
841.427	23315
841.564	23322
841.701	23185
841.838	23083
841.975	23003
842.112	23109
842.249	23067
842.385	23010
842.522	23155
842.659	23010
842.796	22919
842.933	22911
843.069	22892
843.206	22858
843.343	23044
843.479	22938
843.616	22896
843.752	22850
843.889	22702
844.025	22900
844.162	22668
844.298	22866
844.435	22634
844.571	22736
844.708	22809
844.844	22862
844.98	22771
845.117	22919
845.253	22729
845.389	22565
845.525	22542
845.661	22592
845.798	22356
845.934	22489
846.07	22382
846.206	22455
846.342	22542
846.478	22443
846.614	22284
846.75	22051
846.886	22207
847.022	22306
847.158	22143
847.294	22204
847.429	22223
847.565	22082
847.701	22443
847.837	21972
847.972	21964
848.108	21994
848.244	22025
848.379	21892
848.515	21770
848.65	21816
848.786	21762
848.921	21793
849.057	21869
849.192	21869
849.328	21713
849.463	21686
849.598	21709
849.734	21679
849.869	21595
850.004	21572
850.14	21610
850.275	21591
850.41	21496
850.545	21458
850.68	21549
850.815	21504
850.95	21568
851.085	21705
851.22	21679
851.355	21405
851.49	21363
851.625	21492
851.76	21431
851.895	21393
852.03	21321
852.165	21603
852.299	21557
852.434	21656
852.569	21443
852.703	21557
852.838	21557
852.973	21682
853.107	21686
853.242	21542
853.376	21389
853.511	21287
853.645	21241
853.78	21587
853.914	21367
854.048	21298
854.183	21359
854.317	21416
854.451	21500
854.585	21447
854.72	21298
854.854	21454
854.988	21306
855.122	21431
855.256	21249
855.39	21359
855.524	21443
855.658	21374
855.792	21355
855.926	21405
856.06	21439
856.194	21447
856.327	21321
856.461	21298
856.595	21302
856.729	21226
856.862	21534
856.996	21359
857.13	21386
857.263	21477
857.397	21469
857.53	21435
857.664	21401
857.797	21568
857.931	21469
858.064	21386
858.197	21412
858.331	21416
858.464	21329
858.597	21294
858.731	21420
858.864	21367
858.997	21317
859.13	21298
859.263	21401
859.396	21424
859.529	21355
859.662	21439
859.795	21245
859.928	21306
860.061	21526
860.194	21488
860.327	21481
860.46	21443
860.592	21439
860.725	21568
860.858	21492
860.99	21435
861.123	21306
861.256	21268
861.388	21367
861.521	22006
861.653	21157
861.786	21123
861.918	21154
862.05	21150
862.183	21382
862.315	21275
862.447	21287
862.58	21283
862.712	21017
862.844	20998
862.976	21150
863.108	21146
863.24	21321
863.372	20956
863.504	21066
863.636	21119
863.768	21093
863.9	21089
864.032	20929
864.164	20990
864.296	21104
864.428	21150
864.559	21135
864.691	21135
864.823	21036
864.954	21142
865.086	21039
865.217	20998
865.349	20944
865.48	20769
865.612	20902
865.743	21089
865.875	20960
866.006	20834
866.137	20895
866.269	20975
866.4	20941
866.531	20918
866.662	20842
866.793	20918
866.924	20948
867.055	20895
867.186	20883
867.317	20796
867.448	20861
867.579	20830
867.71	20739
867.841	20804
867.972	20895
868.103	20857
868.233	20796
868.364	20944
868.495	21055
868.625	20994
868.756	21203
868.886	21058
869.017	21112
869.147	21298
869.278	21378
869.408	21112
869.539	21211
869.669	21226
869.799	21142
869.929	21329
870.06	21211
870.19	21504
870.32	21359
870.45	21359
870.58	21469
870.71	21629
870.84	21675
870.97	21439
871.1	21492
871.23	21747
871.36	21766
871.489	21523
871.619	21637
871.749	21606
871.879	21701
872.008	21953
872.138	21633
872.267	21694
872.397	21629
872.526	21557
872.656	21599
872.785	21625
872.915	21785
873.044	21797
873.173	21728
873.303	21816
873.432	21751
873.561	21816
873.69	21724
873.819	21770
873.948	21705
874.077	21755
874.206	21625
874.335	21747
874.464	21804
874.593	21964
874.722	21804
874.851	21884
874.979	22070
875.108	22040
875.237	21899
875.365	21755
875.494	21880
875.623	22128
875.751	21956
875.88	22090
876.008	22082
876.136	22131
876.265	22246
876.393	22592
876.521	22474
876.65	22424
876.778	22344
876.906	22246
877.034	22249
877.162	22272
877.29	22318
877.418	22348
877.546	22322
877.674	22303
877.802	22390
877.93	22272
878.058	22352
878.185	22341
878.313	22337
878.441	22306
878.568	22131
878.696	22360
878.824	22398
878.951	22440
879.079	22497
879.206	22542
879.333	22527
879.461	22318
879.588	22440
879.715	22584
879.842	22626
879.97	22360
880.097	22055
880.224	22044
880.351	22139
880.478	22063
880.605	22147
880.732	22272
880.859	22303
880.986	22162
881.112	22143
881.239	22006
881.366	21903
881.493	21778
881.619	21812
881.746	21736
881.872	21637
881.999	21755
882.125	21694
882.252	21743
882.378	21766
882.505	21861
882.631	21667
882.757	21374
882.883	21614
883.01	21355
883.136	21450
883.262	21313
883.388	21192
883.514	21557
883.64	21401
883.766	21329
883.892	21150
884.018	21249
884.143	21386
884.269	21378
884.395	21165
884.52	21096
884.646	20971
884.772	21096
884.897	20906
885.023	21077
885.148	21237
885.274	21203
885.399	21256
885.524	21070
885.65	20975
885.775	21127
885.9	20994
886.025	21226
886.15	21074
886.275	21020
886.4	20948
886.525	21055
886.65	20944
886.775	20918
886.9	21043
887.025	21199
887.149	21005
887.274	20895
887.399	20788
887.523	20921
887.648	20625
887.773	20716
887.897	20925
888.021	20853
888.146	20708
888.27	20880
888.395	20960
888.519	20868
888.643	20807
888.767	20880
888.891	20708
889.015	20667
889.139	20712
889.263	20663
889.387	20849
889.511	20712
889.635	20716
889.759	20617
889.883	20602
890.006	20556
890.13	20636
890.254	20632
890.377	20571
890.501	20351
890.624	20415
890.748	20556
890.871	20275
890.995	20164
891.118	20134
891.241	20229
891.364	20210
891.488	20233
891.611	20142
891.734	20210
891.857	20317
891.98	20164
892.103	20191
892.226	20210
892.349	20161
892.471	19959
892.594	20183
892.717	20088
892.839	20024
892.962	20008
893.085	20195
893.207	20145
893.33	19906
893.452	19959
893.575	20092
893.697	20122
893.819	20069
893.941	20233
894.064	20164
894.186	20073
894.308	19970
894.43	20035
894.552	20157
894.674	20161
894.796	19970
894.918	20008
895.04	20126
895.161	20100
895.283	20100
895.405	20005
895.526	20027
895.648	20107
895.769	20126
895.891	20134
896.012	20168
896.134	20065
896.255	20168
896.376	20065
896.498	20157
896.619	20214
896.74	20202
896.861	20069
896.982	20381
897.103	20507
897.224	20377
897.345	20332
897.466	20290
897.587	20195
897.708	20366
897.828	20377
897.949	20229
898.07	20096
898.19	20214
898.311	20434
898.431	20332
898.552	20473
898.672	20385
898.792	20473
898.913	20324
899.033	20172
899.153	20180
899.273	20024
899.393	19993
899.513	20130
899.633	20039
899.753	20088
899.873	20001
899.993	20081
900.113	20043
900.232	20081
900.352	20062
900.472	19898
900.591	19871
900.711	19932
900.83	19898
900.95	19913
901.069	19947
901.189	19761
901.308	19544
901.427	19460
901.546	19472
901.665	19377
901.784	19301
901.904	19392
902.023	19187
902.141	18996
902.26	18943
902.379	19023
902.498	19008
902.617	18958
902.735	18943
902.854	18970
902.973	18825
903.091	18639
903.21	18555
903.328	18597
903.446	18536
903.565	18391
903.683	18448
903.801	18262
903.919	18346
904.038	18403
904.156	18148
904.274	18266
904.392	18163
904.51	18190
904.627	18076
904.745	18273
904.863	18292
904.981	18022
905.098	17878
905.216	17840
905.334	17901
905.451	17916
905.569	17920
905.686	17809
905.803	17885
905.921	17684
906.038	17775
906.155	17566
906.272	17566
906.389	17600
906.506	17402
906.623	17459
906.74	17440
906.857	17334
906.974	17337
907.091	17478
907.208	17497
907.324	17379
907.441	17326
907.557	17052
907.674	17239
907.79	17113
907.907	17098
908.023	17147
908.139	17159
908.256	16980
908.372	16980
908.488	16961
908.604	16820
908.72	16755
908.836	16801
908.952	16774
909.068	16816
909.184	16946
909.3	16767
909.415	16866
909.531	16816
909.647	16519
909.762	16596
909.878	16592
909.993	16497
910.108	16474
910.224	16443
910.339	16508
910.454	16447
910.57	16348
910.685	16287
910.8	16447
910.915	16497
911.03	16409
911.145	16181
911.259	16150
911.374	16139
911.489	16013
911.604	16036
911.718	15854
911.833	15941
911.947	15781
912.062	15743
912.176	15842
912.291	15739
912.405	15812
912.519	16078
912.633	15987
912.748	15876
912.862	15835
912.976	15762
913.09	15477
913.204	15591
913.318	15656
913.431	15766
913.545	15804
913.659	15785
913.772	15709
913.886	15500
914	15523
914.113	15538
914.226	15614
914.34	15530
914.453	15420
914.566	15431
914.68	15416
914.793	15291
914.906	15138
915.019	15146
915.132	15043
915.245	15142
915.358	15142
915.47	15100
915.583	14986
915.696	15089
915.809	15112
915.921	15233
916.034	15024
916.146	14990
916.259	15005
916.371	15055
916.483	14990
916.595	14952
916.708	14933
916.82	14921
916.932	14872
917.044	14944
917.156	14902
917.268	14739
917.38	14788
917.491	14693
917.603	14823
917.715	14743
917.826	14804
917.938	14632
918.049	14594
918.161	14663
918.272	14914
918.384	14826
918.495	14670
918.606	14590
918.717	14408
918.828	14473
918.939	14568
919.05	14385
919.161	14480
919.272	14252
919.383	14457
919.494	14564
919.604	14606
919.715	14461
919.826	14385
919.936	14541
920.047	14590
920.157	14530
920.267	14644
920.378	14499
920.488	14446
920.598	14663
920.708	14819
920.818	14659
920.928	14708
921.038	14769
921.148	14746
921.258	14499
921.368	14393
921.477	14244
921.587	14267
921.697	14149
921.806	14229
921.916	13986
922.025	13967
922.134	13803
922.244	13734
922.353	14012
922.462	13780
922.571	13655
922.68	13480
922.789	13491
922.898	13616
923.007	13518
923.116	13563
923.224	13476
923.333	13499
923.442	13350
923.55	13400
923.659	13320
923.767	13411
923.876	13335
923.984	13430
924.092	13206
924.201	13282
924.309	13331
924.417	13278
924.525	13179
924.633	13221
924.741	14035
924.849	13031
924.956	13179
925.064	13012
925.172	12920
925.279	12962
925.387	12943
925.494	12958
925.602	13076
925.709	12928
925.816	12890
925.924	12894
926.031	12856
926.138	12817
926.245	12901
926.352	12741
926.459	12886
926.566	13031
926.673	12852
926.779	12703
926.886	12665
926.993	12525
927.099	12532
927.206	12509
927.312	12483
927.419	12559
927.525	12620
927.631	12437
927.737	12350
927.843	12319
927.95	12232
928.056	12338
928.162	12350
928.267	12380
928.373	13027
928.479	12437
928.585	12133
928.69	12300
928.796	12338
928.901	12190
929.007	12083
929.112	12262
929.218	12129
929.323	12106
929.428	11999
929.533	12213
929.638	11950
929.743	12022
929.848	12129
929.953	11992
930.058	11874
930.163	11775
930.267	11794
930.372	11893
930.477	11642
930.581	11927
930.685	11840
930.79	11634
930.894	11623
930.998	11577
931.103	11745
931.207	11322
931.311	11258
931.415	11292
931.519	11029
931.623	11060
