Data from test_V78500241_2656.txt Node
Date: Fri Mar 25 15:28:21 CST 2022
User: usil
Spectrometer: V785-0024
Trigger mode: 0
Integration Time (sec): 4.000000E-1
Scans to average: 1
Nonlinearity correction enabled: false
Boxcar width: 0
Storing dark spectrum: false
XAxis mode: Wavelengths
Number of Pixels in Spectrum: 1024
>>>>>Begin Spectral Data<<<<<
801.071	27093
801.214	26925
801.356	26788
801.499	26754
801.641	26598
801.783	26648
801.926	26701
802.068	26533
802.211	26533
802.353	26431
802.496	26480
802.638	26301
802.78	26271
802.923	26195
803.065	26134
803.208	26027
803.35	26282
803.492	26336
803.635	26484
803.777	26282
803.919	26362
804.061	26667
804.204	26499
804.346	26206
804.488	26385
804.63	26290
804.773	26286
804.915	26214
805.057	26415
805.199	26218
805.341	26389
805.483	26495
805.626	26438
805.768	26278
805.91	26431
806.052	26556
806.194	26275
806.336	26594
806.478	26480
806.62	26457
806.762	26560
806.904	26792
807.046	27047
807.188	26842
807.33	26853
807.472	27047
807.614	26788
807.756	26781
807.898	26762
808.04	26682
808.182	26655
808.324	26735
808.465	26842
808.607	26910
808.749	27043
808.891	27211
809.033	27287
809.174	26979
809.316	27051
809.458	27028
809.6	27055
809.741	27093
809.883	27222
810.025	27207
810.166	27313
810.308	27386
810.45	27294
810.591	27180
810.733	27100
810.875	26940
811.016	27039
811.158	27024
811.299	27222
811.441	27245
811.582	27203
811.724	27028
811.865	26971
812.007	27017
812.148	26940
812.29	27055
812.431	27127
812.573	27321
812.714	27466
812.855	27583
812.997	27652
813.138	27793
813.279	27778
813.421	27515
813.562	27458
813.703	27283
813.845	27336
813.986	26956
814.127	26826
814.268	26659
814.41	26701
814.551	26746
814.692	26811
814.833	26552
814.974	26617
815.115	26727
815.256	26522
815.397	26648
815.539	26587
815.68	26537
815.821	26484
815.962	26423
816.103	26404
816.244	26278
816.385	26294
816.526	26126
816.666	26073
816.807	25849
816.948	26142
817.089	26024
817.23	25982
817.371	25795
817.512	25925
817.653	25963
817.793	25765
817.934	26119
818.075	26012
818.216	25944
818.356	25955
818.497	25879
818.638	25734
818.778	25734
818.919	25731
819.06	25742
819.2	25776
819.341	25906
819.481	25890
819.622	26062
819.762	26294
819.903	26202
820.043	26122
820.184	26043
820.324	25970
820.465	26103
820.605	26107
820.746	26058
820.886	25841
821.026	26008
821.167	25940
821.307	25982
821.447	26046
821.588	25769
821.728	25704
821.868	25567
822.008	25430
822.149	25331
822.289	25468
822.429	25194
822.569	25156
822.709	25187
822.849	25004
822.99	25012
823.13	24916
823.27	24856
823.41	24696
823.55	24749
823.69	24760
823.83	24863
823.97	24593
824.11	24559
824.25	24582
824.389	24513
824.529	24757
824.669	24448
824.809	24566
824.949	24665
825.089	24681
825.228	24608
825.368	24452
825.508	24509
825.648	24429
825.787	24490
825.927	24475
826.067	24353
826.206	24433
826.346	24502
826.485	24448
826.625	24410
826.765	24532
826.904	24483
827.044	24346
827.183	24194
827.323	24239
827.462	24152
827.601	24152
827.741	24034
827.88	24110
828.02	23973
828.159	23984
828.298	24148
828.437	24163
828.577	24079
828.716	24251
828.855	24038
828.994	23790
829.134	23897
829.273	23916
829.412	23828
829.551	23684
829.69	23866
829.829	23824
829.968	23908
830.107	23939
830.246	23878
830.385	23760
830.524	23718
830.663	23592
830.802	23653
830.941	23509
831.08	23497
831.219	23478
831.357	23509
831.496	23657
831.635	23429
831.774	23395
831.913	23414
832.051	23170
832.19	23303
832.329	23140
832.467	23075
832.606	23296
832.744	23064
832.883	23083
833.022	23151
833.16	23121
833.299	23231
833.437	23181
833.576	23296
833.714	23098
833.852	23258
833.991	23216
834.129	23239
834.267	23231
834.406	23159
834.544	23212
834.682	23181
834.821	23052
834.959	23383
835.097	23216
835.235	23254
835.373	23288
835.511	23102
835.65	23003
835.788	23185
835.926	22946
836.064	22824
836.202	22984
836.34	23041
836.478	23151
836.615	22953
836.753	23010
836.891	23060
837.029	23006
837.167	22980
837.305	22968
837.443	22904
837.58	22927
837.718	22904
837.856	22866
837.993	22763
838.131	22812
838.269	22771
838.406	22710
838.544	22805
838.681	22504
838.819	22611
838.956	22451
839.094	22367
839.231	22417
839.369	22516
839.506	22782
839.643	22523
839.781	22447
839.918	22265
840.055	22341
840.193	22367
840.33	22363
840.467	22371
840.604	22280
840.742	22516
840.879	22226
841.016	22215
841.153	22268
841.29	22424
841.427	22394
841.564	22348
841.701	22325
841.838	22341
841.975	22219
842.112	22143
842.249	22162
842.385	22207
842.522	22257
842.659	22124
842.796	22017
842.933	22097
843.069	22002
843.206	22070
843.343	22040
843.479	22150
843.616	22013
843.752	21895
843.889	21899
844.025	22044
844.162	21762
844.298	21941
844.435	21873
844.571	21816
844.708	21953
844.844	22032
844.98	21937
845.117	21941
845.253	21698
845.389	21705
845.525	21641
845.661	21656
845.798	21568
845.934	21648
846.07	21496
846.206	21557
846.342	21835
846.478	21481
846.614	21458
846.75	21329
846.886	21214
847.022	21367
847.158	21317
847.294	21302
847.429	21405
847.565	21287
847.701	21572
847.837	21036
847.972	21096
848.108	21169
848.244	21070
848.379	21036
848.515	20948
848.65	20868
848.786	20857
848.921	20895
849.057	21032
849.192	21024
849.328	21005
849.463	20948
849.598	20861
849.734	20838
849.869	20800
850.004	20754
850.14	20651
850.275	20731
850.41	20697
850.545	20697
850.68	20621
850.815	20674
850.95	20568
851.085	20906
851.22	20667
851.355	20655
851.49	20648
851.625	20602
851.76	20750
851.895	20629
852.03	20564
852.165	20762
852.299	20636
852.434	20720
852.569	20842
852.703	20587
852.838	20743
852.973	20785
853.107	20849
853.242	20640
853.376	20549
853.511	20324
853.645	20404
853.78	20617
853.914	20484
854.048	20347
854.183	20495
854.317	20469
854.451	20720
854.585	20556
854.72	20450
854.854	20598
854.988	20389
855.122	20476
855.256	20358
855.39	20446
855.524	20613
855.658	20541
855.792	20609
855.926	20507
856.06	20549
856.194	20625
856.327	20473
856.461	20412
856.595	20518
856.729	20583
856.862	20579
856.996	20568
857.13	20583
857.263	20617
857.397	20560
857.53	20495
857.664	20465
857.797	20568
857.931	20644
858.064	20484
858.197	20545
858.331	20514
858.464	20476
858.597	20408
858.731	20423
858.864	20541
858.997	20533
859.13	20541
859.263	20473
859.396	20667
859.529	20442
859.662	20473
859.795	20442
859.928	20385
860.061	20632
860.194	20720
860.327	20465
860.46	20473
860.592	20495
860.725	20644
860.858	20575
860.99	20545
861.123	20454
861.256	20362
861.388	20503
861.521	21165
861.653	20469
861.786	20210
861.918	20400
862.05	20473
862.183	20324
862.315	20537
862.447	20602
862.58	20400
862.712	20225
862.844	20199
862.976	20282
863.108	20218
863.24	20785
863.372	20187
863.504	20161
863.636	20278
863.768	20377
863.9	20271
864.032	20145
864.164	20107
864.296	20286
864.428	20237
864.559	20271
864.691	20244
864.823	20358
864.954	20221
865.086	20130
865.217	20210
865.349	20145
865.48	20142
865.612	20126
865.743	20195
865.875	20077
866.006	20043
866.137	20187
866.269	20157
866.4	20073
866.531	20054
866.662	20027
866.793	20145
866.924	20062
867.055	20092
867.186	20092
867.317	20115
867.448	20062
867.579	20134
867.71	20016
867.841	19921
867.972	20058
868.103	20084
868.233	20043
868.364	20054
868.495	20244
868.625	20324
868.756	20301
868.886	20256
869.017	20275
869.147	20492
869.278	20492
869.408	20412
869.539	20305
869.669	20355
869.799	20381
869.929	20362
870.06	20469
870.19	20648
870.32	20659
870.45	20678
870.58	20788
870.71	20872
870.84	20864
870.97	20701
871.1	20781
871.23	20948
871.36	20792
871.489	20819
871.619	21039
871.749	20941
871.879	20880
872.008	20982
872.138	20830
872.267	20929
872.397	20857
872.526	20708
872.656	20796
872.785	20701
872.915	20918
873.044	20975
873.173	21039
873.303	20994
873.432	20994
873.561	21070
873.69	20914
873.819	20910
873.948	20990
874.077	21047
874.206	20902
874.335	20956
874.464	21089
874.593	21165
874.722	21036
874.851	21275
874.979	21199
875.108	21233
875.237	21150
875.365	21047
875.494	21028
875.623	21218
875.751	21116
875.88	21279
876.008	21389
876.136	21382
876.265	21572
876.393	21717
876.521	21610
876.65	21755
876.778	21663
876.906	21534
877.034	21591
877.162	21542
877.29	21450
877.418	21572
877.546	21473
877.674	21595
877.802	21542
877.93	21523
878.058	21580
878.185	21462
878.313	21549
878.441	21606
878.568	21393
878.696	21523
878.824	21523
878.951	21629
879.079	21709
879.206	21899
879.333	21663
879.461	21488
879.588	21671
879.715	21663
879.842	21732
879.97	21610
880.097	21374
880.224	21256
880.351	21344
880.478	21397
880.605	21340
880.732	21374
880.859	21481
880.986	21332
881.112	21348
881.239	21173
881.366	21150
881.493	21020
881.619	21013
881.746	20998
881.872	21020
881.999	20826
882.125	20872
882.252	21017
882.378	21020
882.505	21058
882.631	20830
882.757	20712
882.883	20758
883.01	20579
883.136	20621
883.262	20511
883.388	20507
883.514	20731
883.64	20617
883.766	20575
883.892	20343
884.018	20381
884.143	20663
884.269	20769
884.395	20305
884.52	20278
884.646	20434
884.772	20244
884.897	20218
885.023	20374
885.148	20366
885.274	20461
885.399	20396
885.524	20305
885.65	20351
885.775	20347
885.9	20237
886.025	20317
886.15	20427
886.275	20218
886.4	20298
886.525	20309
886.65	20240
886.775	20336
886.9	20328
887.025	20606
887.149	20263
887.274	20187
887.399	20210
887.523	20180
887.648	19883
887.773	19936
887.897	20134
888.021	20145
888.146	19788
888.27	20122
888.395	20183
888.519	20088
888.643	20161
888.767	20081
888.891	19936
889.015	19936
889.139	19852
889.263	19875
889.387	19936
889.511	20046
889.635	19936
889.759	19868
889.883	19868
890.006	19784
890.13	20065
890.254	19845
890.377	19750
890.501	19571
890.624	19655
890.748	19689
890.871	19457
890.995	19464
891.118	19369
891.241	19422
891.364	19453
891.488	19510
891.611	19502
891.734	19441
891.857	19510
891.98	19548
892.103	19460
892.226	19445
892.349	19381
892.471	19373
892.594	19430
892.717	19396
892.839	19350
892.962	19396
893.085	19377
893.207	19468
893.33	19301
893.452	19308
893.575	19495
893.697	19384
893.819	19567
893.941	19594
894.064	19540
894.186	19377
894.308	19320
894.43	19518
894.552	19480
894.674	19426
894.796	19384
894.918	19502
895.04	19392
895.161	19540
895.283	19327
895.405	19411
895.526	19403
895.648	19495
895.769	19373
895.891	19407
896.012	19487
896.134	19525
896.255	19449
896.376	19384
896.498	19327
896.619	19381
896.74	19396
896.861	19422
896.982	19708
897.103	19776
897.224	19772
897.345	19525
897.466	19556
897.587	19662
897.708	19700
897.828	19689
897.949	19689
898.07	19487
898.19	19609
898.311	19689
898.431	19544
898.552	19651
898.672	19655
898.792	19635
898.913	19567
899.033	19586
899.153	19396
899.273	19285
899.393	19381
899.513	19396
899.633	19384
899.753	19464
899.873	19392
899.993	19365
900.113	19388
900.232	19343
900.352	19236
900.472	19304
900.591	19129
900.711	19190
900.83	19110
900.95	19350
901.069	19293
901.189	19084
901.308	18840
901.427	18798
901.546	18783
901.665	18753
901.784	18764
901.904	18544
902.023	18479
902.141	18365
902.26	18372
902.379	18338
902.498	18323
902.617	18209
902.735	18361
902.854	18372
902.973	18201
903.091	18007
903.21	18041
903.328	17946
903.446	17843
903.565	17767
903.683	17882
903.801	17722
903.919	17672
904.038	17668
904.156	17589
904.274	17737
904.392	17486
904.51	17608
904.627	17459
904.745	17524
904.863	17623
904.981	17360
905.098	17239
905.216	17147
905.334	17307
905.451	17265
905.569	17174
905.686	17254
905.803	17254
905.921	16858
906.038	17048
906.155	17010
906.272	16866
906.389	16930
906.506	16774
906.623	16736
906.74	16721
906.857	16729
906.974	16801
907.091	16858
907.208	16854
907.324	16797
907.441	16725
907.557	16432
907.674	16512
907.79	16379
907.907	16375
908.023	16497
908.139	16489
908.256	16371
908.372	16402
908.488	16443
908.604	16295
908.72	16280
908.836	16135
908.952	16238
909.068	16219
909.184	16318
909.3	16196
909.415	16230
909.531	16268
909.647	16025
909.762	15934
909.878	15994
909.993	15960
910.108	15960
910.224	15937
910.339	15903
910.454	15770
910.57	15778
910.685	15587
910.8	15937
910.915	15800
911.03	15819
911.145	15584
911.259	15545
911.374	15614
911.489	15572
911.604	15428
911.718	15306
911.833	15401
911.947	15195
912.062	15142
912.176	15306
912.291	15454
912.405	15401
912.519	15553
912.633	15519
912.748	15344
912.862	15211
912.976	15081
913.09	15055
913.204	15074
913.318	15024
913.431	15188
913.545	15173
913.659	15233
913.772	15051
913.886	15001
914	14937
914.113	14971
914.226	15017
914.34	14952
914.453	14815
914.566	14975
914.68	14731
914.793	14777
914.906	14621
915.019	14610
915.132	14549
915.245	14408
915.358	14465
915.47	14575
915.583	14514
915.696	14606
915.809	14689
915.921	14610
916.034	14530
916.146	14438
916.259	14476
916.371	14613
916.483	14571
916.595	14396
916.708	14377
916.82	14282
916.932	14343
917.044	14320
917.156	14328
917.268	14164
917.38	14233
917.491	14256
917.603	14225
917.715	14332
917.826	14256
917.938	14221
918.049	14130
918.161	14138
918.272	14377
918.384	14339
918.495	14199
918.606	14073
918.717	13936
918.828	14069
918.939	14065
919.05	13974
919.161	14039
919.272	13830
919.383	13921
919.494	14024
919.604	14259
919.715	14111
919.826	13963
919.936	14001
920.047	14016
920.157	14016
920.267	14191
920.378	14088
920.488	13963
920.598	14214
920.708	14256
920.818	14199
920.928	14115
921.038	14317
921.148	14256
921.258	13917
921.368	13951
921.477	13788
921.587	13791
921.697	13651
921.806	13841
921.916	13594
922.025	13434
922.134	13464
922.244	13324
922.353	13537
922.462	13324
922.571	13228
922.68	13099
922.789	13000
922.898	13107
923.007	13103
923.116	13034
923.224	13015
923.333	13118
923.442	12996
923.55	12875
923.659	12890
923.767	13038
923.876	12817
923.984	12954
924.092	12757
924.201	12852
924.309	12787
924.417	12875
924.525	12722
924.633	12768
924.741	13677
924.849	12486
924.956	12669
925.064	12426
925.172	12509
925.279	12490
925.387	12528
925.494	12547
925.602	12616
925.709	12513
925.816	12365
925.924	12464
926.031	12544
926.138	12532
926.245	12429
926.352	12357
926.459	12467
926.566	12517
926.673	12384
926.779	12323
926.886	12232
926.993	12228
927.099	12121
927.206	12045
927.312	11984
927.419	12072
927.525	12121
927.631	12091
927.737	11923
927.843	11882
927.95	11885
928.056	11927
928.162	11942
928.267	12030
928.373	12506
928.479	12015
928.585	11684
928.69	11878
928.796	11828
928.901	11802
929.007	11676
929.112	11699
929.218	11775
929.323	11672
929.428	11642
929.533	11805
929.638	11608
929.743	11661
929.848	11611
929.953	11551
930.058	11455
930.163	11360
930.267	11261
930.372	11467
930.477	11307
930.581	11551
930.685	11417
930.79	11265
930.894	11208
930.998	11231
931.103	11387
931.207	11056
931.311	10965
931.415	10812
931.519	10618
931.623	10618
