Data from test_V78500241_457.txt Node
Date: Fri Mar 25 15:13:02 CST 2022
User: usil
Spectrometer: V785-0024
Trigger mode: 0
Integration Time (sec): 4.000000E-1
Scans to average: 1
Nonlinearity correction enabled: false
Boxcar width: 0
Storing dark spectrum: false
XAxis mode: Wavelengths
Number of Pixels in Spectrum: 1024
>>>>>Begin Spectral Data<<<<<
801.071	27302
801.214	27302
801.356	27005
801.499	26963
801.641	26979
801.783	27028
801.926	26902
802.068	26834
802.211	26902
802.353	26727
802.496	26667
802.638	26583
802.78	26526
802.923	26484
803.065	26495
803.208	26446
803.35	26374
803.492	26636
803.635	26750
803.777	26686
803.919	26708
804.061	26921
804.204	26667
804.346	26602
804.488	26492
804.63	26708
804.773	26583
804.915	26750
805.057	26815
805.199	26724
805.341	26708
805.483	26819
805.626	26609
805.768	26743
805.91	26754
806.052	26815
806.194	26594
806.336	26872
806.478	26716
806.62	26792
806.762	26883
806.904	27116
807.046	27188
807.188	27150
807.33	27146
807.472	27321
807.614	27173
807.756	27207
807.898	26925
808.04	26925
808.182	27081
808.324	27020
808.465	26994
808.607	27180
808.749	27230
808.891	27481
809.033	27469
809.174	27511
809.316	27526
809.458	27264
809.6	27298
809.741	27534
809.883	27412
810.025	27671
810.166	27622
810.308	27610
810.45	27732
810.591	27625
810.733	27523
810.875	27378
811.016	27294
811.158	27348
811.299	27454
811.441	27507
811.582	27454
811.724	27298
811.865	27317
812.007	27321
812.148	27420
812.29	27298
812.431	27420
812.573	27766
812.714	27892
812.855	27926
812.997	27937
813.138	28086
813.279	27998
813.421	27880
813.562	27956
813.703	27629
813.845	27701
813.986	27321
814.127	27195
814.268	27173
814.41	27039
814.551	26948
814.692	27180
814.833	27085
814.974	26925
815.115	26880
815.256	26864
815.397	27024
815.539	26914
815.68	26910
815.821	26754
815.962	26864
816.103	26777
816.244	26788
816.385	26617
816.526	26564
816.666	26541
816.807	26381
816.948	26362
817.089	26560
817.23	26366
817.371	26434
817.512	26446
817.653	26332
817.793	26244
817.934	26355
818.075	26385
818.216	26381
818.356	26221
818.497	26259
818.638	26073
818.778	26157
818.919	26187
819.06	26024
819.2	26210
819.341	26320
819.481	26286
819.622	26560
819.762	26834
819.903	26503
820.043	26545
820.184	26396
820.324	26461
820.465	26552
820.605	26518
820.746	26514
820.886	26248
821.026	26355
821.167	26469
821.307	26644
821.447	26271
821.588	26244
821.728	26050
821.868	25955
822.008	25757
822.149	25822
822.289	25753
822.429	25533
822.569	25457
822.709	25464
822.849	25282
822.99	25198
823.13	25206
823.27	25259
823.41	25065
823.55	25122
823.69	25019
823.83	25088
823.97	25137
824.11	25000
824.25	24779
824.389	24962
824.529	25004
824.669	24954
824.809	25099
824.949	25019
825.089	24882
825.228	24977
825.368	24779
825.508	24966
825.648	24730
825.787	24783
825.927	24837
826.067	24757
826.206	24817
826.346	24715
826.485	25019
826.625	24760
826.765	24966
826.904	24852
827.044	24635
827.183	24582
827.323	24460
827.462	24665
827.601	24448
827.741	24471
827.88	24745
828.02	24467
828.159	24544
828.298	24566
828.437	24597
828.577	24433
828.716	24700
828.855	24441
828.994	24125
829.134	24266
829.273	24194
829.412	24228
829.551	24117
829.69	24148
829.829	24262
829.968	24334
830.107	24327
830.246	24296
830.385	24216
830.524	24110
830.663	24076
830.802	23969
830.941	23790
831.08	23893
831.219	23843
831.357	23764
831.496	24026
831.635	23771
831.774	23729
831.913	23809
832.051	23687
832.19	23646
832.329	23570
832.467	23573
832.606	23410
832.744	23520
832.883	23524
833.022	23436
833.16	23429
833.299	23596
833.437	23554
833.576	23630
833.714	23512
833.852	23718
833.991	23646
834.129	23657
834.267	23707
834.406	23585
834.544	23691
834.682	23520
834.821	23608
834.959	23813
835.097	23608
835.235	23558
835.373	23516
835.511	23592
835.65	23531
835.788	23471
835.926	23242
836.064	23391
836.202	23421
836.34	23471
836.478	23547
836.615	23436
836.753	23433
836.891	23562
837.029	23326
837.167	23307
837.305	23326
837.443	23356
837.58	23280
837.718	23505
837.856	23204
837.993	23242
838.131	23398
838.269	23208
838.406	23178
838.544	23212
838.681	22911
838.819	23022
838.956	22805
839.094	22698
839.231	22850
839.369	22976
839.506	23136
839.643	22881
839.781	22717
839.918	22634
840.055	22786
840.193	22740
840.33	22820
840.467	22653
840.604	22653
840.742	22896
840.879	22679
841.016	22630
841.153	22603
841.29	22877
841.427	22611
841.564	22649
841.701	22717
841.838	22634
841.975	22485
842.112	22721
842.249	22500
842.385	22478
842.522	22679
842.659	22550
842.796	22478
842.933	22462
843.069	22428
843.206	22436
843.343	22493
843.479	22417
843.616	22287
843.752	22150
843.889	22299
844.025	22352
844.162	22147
844.298	22215
844.435	22215
844.571	22246
844.708	22268
844.844	22421
844.98	22371
845.117	22329
845.253	22150
845.389	22207
845.525	22188
845.661	22131
845.798	21991
845.934	22051
846.07	21911
846.206	22013
846.342	22059
846.478	21918
846.614	21724
846.75	21682
846.886	21667
847.022	21732
847.158	21656
847.294	21770
847.429	21633
847.565	21686
847.701	21918
847.837	21507
847.972	21374
848.108	21481
848.244	21473
848.379	21359
848.515	21218
848.65	21207
848.786	21306
848.921	21214
849.057	21424
849.192	21393
849.328	21374
849.463	21298
849.598	21405
849.734	21230
849.869	21138
850.004	20998
850.14	21062
850.275	21032
850.41	20937
850.545	21043
850.68	21169
850.815	21104
850.95	21119
851.085	21211
851.22	21119
851.355	21127
851.49	21100
851.625	21001
851.76	21001
851.895	21112
852.03	20944
852.165	21028
852.299	21039
852.434	21138
852.569	21116
852.703	20998
852.838	21055
852.973	21161
853.107	21165
853.242	21009
853.376	20887
853.511	20804
853.645	20811
853.78	21077
853.914	20979
854.048	20887
854.183	20956
854.317	20754
854.451	21005
854.585	20902
854.72	20960
854.854	21028
854.988	20804
855.122	20872
855.256	20777
855.39	20830
855.524	20990
855.658	20921
855.792	20918
855.926	20842
856.06	20819
856.194	20952
856.327	20880
856.461	20781
856.595	20800
856.729	20880
856.862	20971
856.996	20842
857.13	20956
857.263	21013
857.397	20963
857.53	20895
857.664	20868
857.797	20925
857.931	20902
858.064	21055
858.197	20891
858.331	20849
858.464	20781
858.597	20746
858.731	20845
858.864	20777
858.997	20861
859.13	20857
859.263	20887
859.396	20887
859.529	20925
859.662	20857
859.795	20872
859.928	20826
860.061	21047
860.194	21131
860.327	20963
860.46	20929
860.592	20986
860.725	21081
860.858	20975
860.99	21020
861.123	20842
861.256	20773
861.388	20876
861.521	21515
861.653	20629
861.786	20693
861.918	20686
862.05	20765
862.183	20872
862.315	20986
862.447	20956
862.58	20823
862.712	20594
862.844	20609
862.976	20587
863.108	20556
863.24	20975
863.372	20541
863.504	20655
863.636	20381
863.768	20556
863.9	20686
864.032	20522
864.164	20575
864.296	20579
864.428	20686
864.559	20686
864.691	20632
864.823	20674
864.954	20670
865.086	20602
865.217	20556
865.349	20374
865.48	20415
865.612	20507
865.743	20537
865.875	20560
866.006	20427
866.137	20400
866.269	20514
866.4	20499
866.531	20324
866.662	20343
866.793	20469
866.924	20415
867.055	20495
867.186	20404
867.317	20366
867.448	20347
867.579	20427
867.71	20286
867.841	20393
867.972	20492
868.103	20301
868.233	20358
868.364	20404
868.495	20480
868.625	20667
868.756	20758
868.886	20655
869.017	20743
869.147	20887
869.278	20746
869.408	20735
869.539	20697
869.669	20743
869.799	20689
869.929	20868
870.06	20686
870.19	21036
870.32	21013
870.45	21093
870.58	21051
870.71	21074
870.84	21313
870.97	21199
871.1	21066
871.23	21195
871.36	21355
871.489	21214
871.619	21214
871.749	21313
871.879	21264
872.008	21443
872.138	21340
872.267	21233
872.397	21127
872.526	20960
872.656	21096
872.785	21047
872.915	21214
873.044	21477
873.173	21397
873.303	21401
873.432	21458
873.561	21466
873.69	21321
873.819	21313
873.948	21389
874.077	21264
874.206	21283
874.335	21374
874.464	21389
874.593	21591
874.722	21477
874.851	21686
874.979	21633
875.108	21606
875.237	21564
875.365	21447
875.494	21557
875.623	21534
875.751	21523
875.88	21675
876.008	21679
876.136	21717
876.265	21922
876.393	22112
876.521	22025
876.65	22086
876.778	21994
876.906	21903
877.034	21850
877.162	22055
877.29	21747
877.418	22002
877.546	21907
877.674	21915
877.802	21819
877.93	21945
878.058	21766
878.185	21774
878.313	21926
878.441	21915
878.568	21728
878.696	21892
878.824	21998
878.951	22055
879.079	22093
879.206	22147
879.333	22166
879.461	21934
879.588	22017
879.715	22101
879.842	22215
879.97	21941
880.097	21743
880.224	21656
880.351	21781
880.478	21838
880.605	21728
880.732	21770
880.859	21934
880.986	21835
881.112	21515
881.239	21671
881.366	21458
881.493	21389
881.619	21389
881.746	21363
881.872	21389
881.999	21260
882.125	21245
882.252	21378
882.378	21374
882.505	21431
882.631	21157
882.757	20998
882.883	21214
883.01	21055
883.136	21024
883.262	20864
883.388	20891
883.514	20914
883.64	21077
883.766	21032
883.892	20876
884.018	20815
884.143	20899
884.269	21104
884.395	20724
884.52	20602
884.646	20651
884.772	20587
884.897	20537
885.023	20716
885.148	20670
885.274	20777
885.399	20800
885.524	20682
885.65	20686
885.775	20682
885.9	20727
886.025	20739
886.15	20811
886.275	20594
886.4	20552
886.525	20648
886.65	20659
886.775	20594
886.9	20781
887.025	20872
887.149	20602
887.274	20636
887.399	20454
887.523	20438
887.648	20355
887.773	20282
887.897	20476
888.021	20552
888.146	20343
888.27	20461
888.395	20575
888.519	20431
888.643	20480
888.767	20537
888.891	20286
889.015	20286
889.139	20370
889.263	20248
889.387	20332
889.511	20408
889.635	20298
889.759	20324
889.883	20126
890.006	20142
890.13	20347
890.254	20187
890.377	20164
890.501	19921
890.624	19947
890.748	19993
890.871	19906
890.995	19849
891.118	19780
891.241	19841
891.364	19765
891.488	19928
891.611	19784
891.734	19849
891.857	19906
891.98	19841
892.103	19765
892.226	19772
892.349	19715
892.471	19708
892.594	19708
892.717	19833
892.839	19750
892.962	19784
893.085	19693
893.207	19655
893.33	19643
893.452	19632
893.575	19826
893.697	19814
893.819	19902
893.941	19974
894.064	19841
894.186	19578
894.308	19556
894.43	19788
894.552	19826
894.674	19772
894.796	19635
894.918	19693
895.04	19677
895.161	19795
895.283	19689
895.405	19674
895.526	19655
895.648	19693
895.769	19837
895.891	19734
896.012	19864
896.134	19814
896.255	19765
896.376	19643
896.498	19708
896.619	19693
896.74	19784
896.861	19750
896.982	20081
897.103	20077
897.224	20031
897.345	20001
897.466	19906
897.587	19974
897.708	20046
897.828	20081
897.949	19921
898.07	19799
898.19	19833
898.311	19967
898.431	19917
898.552	19944
898.672	20043
898.792	20027
898.913	19997
899.033	19887
899.153	19738
899.273	19597
899.393	19624
899.513	19776
899.633	19845
899.753	19719
899.873	19639
899.993	19616
900.113	19700
900.232	19647
900.352	19563
900.472	19396
900.591	19445
900.711	19544
900.83	19476
900.95	19540
901.069	19529
901.189	19373
901.308	19183
901.427	19137
901.546	19141
901.665	19088
901.784	19050
901.904	18886
902.023	19019
902.141	18582
902.26	18608
902.379	18700
902.498	18540
902.617	18471
902.735	18532
902.854	18563
902.973	18494
903.091	18258
903.21	18338
903.328	18174
903.446	18228
903.565	18087
903.683	18076
903.801	17988
903.919	17996
904.038	17999
904.156	17878
904.274	17920
904.392	17931
904.51	17794
904.627	17809
904.745	17897
904.863	17916
904.981	17646
905.098	17619
905.216	17482
905.334	17417
905.451	17596
905.569	17478
905.686	17577
905.803	17566
905.921	17197
906.038	17547
906.155	17322
906.272	17242
906.389	17299
906.506	17060
906.623	17041
906.74	17105
906.857	17018
906.974	16991
907.091	17094
907.208	17242
907.324	17064
907.441	17029
907.557	16805
907.674	16911
907.79	16778
907.907	16736
908.023	16790
908.139	16801
908.256	16649
908.372	16721
908.488	16626
908.604	16424
908.72	16512
908.836	16546
908.952	16333
909.068	16474
909.184	16710
909.3	16466
909.415	16618
909.531	16577
909.647	16344
909.762	16253
909.878	16185
909.993	16223
910.108	16257
910.224	16124
910.339	16341
910.454	16158
910.57	16059
910.685	15979
910.8	16090
910.915	16204
911.03	16013
911.145	15930
911.259	15789
911.374	15846
911.489	15755
911.604	15743
911.718	15679
911.833	15549
911.947	15488
912.062	15420
912.176	15538
912.291	15644
912.405	15633
912.519	15694
912.633	15785
912.748	15671
912.862	15603
912.976	15348
913.09	15325
913.204	15355
913.318	15344
913.431	15466
913.545	15473
913.659	15386
913.772	15454
913.886	15226
914	15161
914.113	15256
914.226	15252
914.34	15260
914.453	15055
914.566	15317
914.68	15097
914.793	15043
914.906	14937
915.019	14872
915.132	14796
915.245	14781
915.358	14785
915.47	14876
915.583	14849
915.696	14887
915.809	14937
915.921	14883
916.034	14727
916.146	14651
916.259	14689
916.371	14758
916.483	14670
916.595	14632
916.708	14693
916.82	14606
916.932	14708
917.044	14617
917.156	14503
917.268	14507
917.38	14533
917.491	14415
917.603	14549
917.715	14556
917.826	14484
917.938	14431
918.049	14351
918.161	14374
918.272	14579
918.384	14533
918.495	14457
918.606	14191
918.717	14142
918.828	14282
918.939	14320
919.05	14176
919.161	14233
919.272	14008
919.383	14168
919.494	14385
919.604	14412
919.715	14202
919.826	14153
919.936	14210
920.047	14240
920.157	14199
920.267	14377
920.378	14305
920.488	14142
920.598	14366
920.708	14457
920.818	14381
920.928	14259
921.038	14408
921.148	14423
921.258	14218
921.368	14077
921.477	13997
921.587	13963
921.697	13909
921.806	13947
921.916	13799
922.025	13643
922.134	13658
922.244	13597
922.353	13590
922.462	13571
922.571	13453
922.68	13278
922.789	13240
922.898	13232
923.007	13164
923.116	13339
923.224	13308
923.333	13122
923.442	13129
923.55	13065
923.659	13023
923.767	13168
923.876	13160
923.984	13099
924.092	12882
924.201	12996
924.309	13042
924.417	13004
924.525	12935
924.633	13065
924.741	13818
924.849	12715
924.956	12856
925.064	12795
925.172	12673
925.279	12692
925.387	12745
925.494	12677
925.602	12802
925.709	12681
925.816	12642
925.924	12555
926.031	12684
926.138	12623
926.245	12684
926.352	12563
926.459	12665
926.566	12692
926.673	12483
926.779	12479
926.886	12414
926.993	12369
927.099	12258
927.206	12201
927.312	12205
927.419	12285
927.525	12296
927.631	12285
927.737	12190
927.843	12117
927.95	11942
928.056	11988
928.162	12102
928.267	12114
928.373	12722
928.479	12159
928.585	11893
928.69	12019
928.796	12053
928.901	11977
929.007	11847
929.112	11931
929.218	11965
929.323	11840
929.428	11855
929.533	11946
929.638	11847
929.743	11707
929.848	11882
929.953	11813
930.058	11627
930.163	11501
930.267	11532
930.372	11672
930.477	11429
930.581	11714
930.685	11535
930.79	11478
930.894	11421
930.998	11345
931.103	11497
931.207	11189
931.311	11136
931.415	11075
931.519	10835
931.623	10755
