Data from test_V78500241_1888.txt Node
Date: Fri Mar 25 15:23:00 CST 2022
User: usil
Spectrometer: V785-0024
Trigger mode: 0
Integration Time (sec): 4.000000E-1
Scans to average: 1
Nonlinearity correction enabled: false
Boxcar width: 0
Storing dark spectrum: false
XAxis mode: Wavelengths
Number of Pixels in Spectrum: 1024
>>>>>Begin Spectral Data<<<<<
801.071	27660
801.214	27759
801.356	27523
801.499	27401
801.641	27447
801.783	27370
801.926	27427
802.068	27264
802.211	27214
802.353	27138
802.496	27237
802.638	27043
802.78	26986
802.923	26781
803.065	26933
803.208	27009
803.35	26960
803.492	27142
803.635	27119
803.777	27161
803.919	27123
804.061	27408
804.204	27264
804.346	27112
804.488	27043
804.63	27150
804.773	27138
804.915	27252
805.057	27355
805.199	27135
805.341	27245
805.483	27370
805.626	27294
805.768	27055
805.91	27214
806.052	27336
806.194	27165
806.336	27500
806.478	27279
806.62	27283
806.762	27317
806.904	27591
807.046	27705
807.188	27705
807.33	27709
807.472	27751
807.614	27583
807.756	27572
807.898	27580
808.04	27500
808.182	27462
808.324	27686
808.465	27538
808.607	27770
808.749	27808
808.891	27975
809.033	28029
809.174	27968
809.316	27774
809.458	27914
809.6	27831
809.741	28017
809.883	28147
810.025	28192
810.166	28158
810.308	28188
810.45	28078
810.591	28051
810.733	27972
810.875	27956
811.016	27694
811.158	27770
811.299	28010
811.441	27953
811.582	27987
811.724	27968
811.865	27850
812.007	27914
812.148	27831
812.29	27975
812.431	28105
812.573	28223
812.714	28196
812.855	28459
812.997	28398
813.138	28630
813.279	28653
813.421	28390
813.562	28405
813.703	28128
813.845	28112
813.986	27850
814.127	27800
814.268	27538
814.41	27667
814.551	27564
814.692	27614
814.833	27545
814.974	27629
815.115	27595
815.256	27393
815.397	27564
815.539	27633
815.68	27340
815.821	27294
815.962	27283
816.103	27348
816.244	27355
816.385	27070
816.526	27108
816.666	26944
816.807	26708
816.948	26902
817.089	27032
817.23	26853
817.371	26845
817.512	26963
817.653	26659
817.793	26800
817.934	26864
818.075	26727
818.216	26819
818.356	26792
818.497	26739
818.638	26632
818.778	26590
818.919	26617
819.06	26746
819.2	26724
819.341	26937
819.481	26868
819.622	26986
819.762	27272
819.903	27192
820.043	27039
820.184	27077
820.324	27077
820.465	27062
820.605	26963
820.746	26887
820.886	26891
821.026	26914
821.167	26788
821.307	26948
821.447	26899
821.588	26777
821.728	26697
821.868	26575
822.008	26332
822.149	26324
822.289	26438
822.429	26138
822.569	26005
822.709	25982
822.849	25917
822.99	25932
823.13	25909
823.27	25830
823.41	25647
823.55	25594
823.69	25666
823.83	25590
823.97	25575
824.11	25544
824.25	25472
824.389	25449
824.529	25499
824.669	25525
824.809	25655
824.949	25628
825.089	25715
825.228	25525
825.368	25388
825.508	25419
825.648	25411
825.787	25411
825.927	25468
826.067	25293
826.206	25316
826.346	25339
826.485	25449
826.625	25308
826.765	25464
826.904	25335
827.044	25213
827.183	25179
827.323	25038
827.462	25084
827.601	25145
827.741	24992
827.88	25027
828.02	25053
828.159	25019
828.298	25107
828.437	25190
828.577	24954
828.716	25324
828.855	24859
828.994	24798
829.134	24719
829.273	24890
829.412	24783
829.551	24776
829.69	24795
829.829	24837
829.968	24810
830.107	24890
830.246	24882
830.385	24738
830.524	24681
830.663	24559
830.802	24566
830.941	24304
831.08	24437
831.219	24525
831.357	24346
831.496	24616
831.635	24334
831.774	24334
831.913	24342
832.051	24216
832.19	24167
832.329	24254
832.467	24136
832.606	24030
832.744	24022
832.883	24072
833.022	24083
833.16	23988
833.299	24121
833.437	24114
833.576	24201
833.714	24106
833.852	24163
833.991	24174
834.129	24182
834.267	24254
834.406	24125
834.544	24178
834.682	24273
834.821	24018
834.959	24350
835.097	24098
835.235	24220
835.373	24232
835.511	24121
835.65	24045
835.788	24018
835.926	23904
836.064	23779
836.202	23786
836.34	23984
836.478	24091
836.615	24045
836.753	24045
836.891	24083
837.029	24018
837.167	23885
837.305	23961
837.443	23958
837.58	23722
837.718	23832
837.856	23680
837.993	23718
838.131	23813
838.269	23615
838.406	23737
838.544	23585
838.681	23589
838.819	23414
838.956	23414
839.094	23258
839.231	23429
839.369	23535
839.506	23638
839.643	23566
839.781	23353
839.918	23288
840.055	23322
840.193	23254
840.33	23140
840.467	23246
840.604	23334
840.742	23543
840.879	23044
841.016	23178
841.153	23098
841.29	23421
841.427	23136
841.564	23155
841.701	23193
841.838	23197
841.975	23136
842.112	23079
842.249	22984
842.385	23010
842.522	23075
842.659	23067
842.796	22923
842.933	23056
843.069	22923
843.206	22984
843.343	23098
843.479	22904
843.616	22972
843.752	22778
843.889	22835
844.025	23025
844.162	22801
844.298	22740
844.435	22805
844.571	22736
844.708	22687
844.844	22949
844.98	22900
845.117	22850
845.253	22694
845.389	22508
845.525	22584
845.661	22618
845.798	22485
845.934	22577
846.07	22508
846.206	22580
846.342	22626
846.478	22409
846.614	22249
846.75	22223
846.886	22219
847.022	22360
847.158	22230
847.294	22268
847.429	22329
847.565	22185
847.701	22394
847.837	22109
847.972	21953
848.108	21994
848.244	22169
848.379	21850
848.515	21774
848.65	21637
848.786	21823
848.921	21819
849.057	21934
849.192	21892
849.328	21785
849.463	21762
849.598	21831
849.734	21724
849.869	21599
850.004	21606
850.14	21690
850.275	21614
850.41	21458
850.545	21526
850.68	21557
850.815	21671
850.95	21599
851.085	21835
851.22	21747
851.355	21648
851.49	21595
851.625	21603
851.76	21492
851.895	21416
852.03	21545
852.165	21526
852.299	21553
852.434	21694
852.569	21587
852.703	21644
852.838	21637
852.973	21713
853.107	21713
853.242	21618
853.376	21466
853.511	21344
853.645	21454
853.78	21549
853.914	21496
854.048	21344
854.183	21412
854.317	21500
854.451	21679
854.585	21431
854.72	21378
854.854	21542
854.988	21401
855.122	21473
855.256	21203
855.39	21511
855.524	21435
855.658	21462
855.792	21450
855.926	21568
856.06	21408
856.194	21515
856.327	21386
856.461	21401
856.595	21469
856.729	21416
856.862	21454
856.996	21481
857.13	21500
857.263	21507
857.397	21542
857.53	21397
857.664	21488
857.797	21431
857.931	21534
858.064	21576
858.197	21523
858.331	21420
858.464	21386
858.597	21466
858.731	21363
858.864	21363
858.997	21420
859.13	21534
859.263	21389
859.396	21424
859.529	21545
859.662	21348
859.795	21450
859.928	21370
860.061	21477
860.194	21694
860.327	21519
860.46	21317
860.592	21496
860.725	21595
860.858	21492
860.99	21435
861.123	21382
861.256	21389
861.388	21416
861.521	22013
861.653	21317
861.786	21165
861.918	21237
862.05	21203
862.183	21405
862.315	21386
862.447	21355
862.58	21294
862.712	21135
862.844	21108
862.976	21310
863.108	21169
863.24	21462
863.372	21077
863.504	21119
863.636	21169
863.768	21127
863.9	21096
864.032	21020
864.164	21005
864.296	21214
864.428	21252
864.559	21047
864.691	21230
864.823	21199
864.954	21245
865.086	21142
865.217	21135
865.349	20990
865.48	21001
865.612	20876
865.743	21096
865.875	21127
866.006	21047
866.137	20971
866.269	20918
866.4	21005
866.531	20952
866.662	20895
866.793	20933
866.924	20914
867.055	21039
867.186	20963
867.317	21066
867.448	20758
867.579	20819
867.71	20849
867.841	20823
867.972	20876
868.103	20941
868.233	20952
868.364	20998
868.495	20971
868.625	21199
868.756	21287
868.886	21108
869.017	21214
869.147	21291
869.278	21317
869.408	21275
869.539	21336
869.669	21294
869.799	21306
869.929	21370
870.06	21256
870.19	21485
870.32	21450
870.45	21564
870.58	21637
870.71	21701
870.84	21751
870.97	21583
871.1	21595
871.23	21759
871.36	21736
871.489	21827
871.619	21736
871.749	21755
871.879	21717
872.008	21945
872.138	21762
872.267	21724
872.397	21793
872.526	21625
872.656	21606
872.785	21751
872.915	21911
873.044	21800
873.173	21823
873.303	21865
873.432	21850
873.561	22006
873.69	21816
873.819	21819
873.948	21888
874.077	21926
874.206	21781
874.335	21800
874.464	21903
874.593	22105
874.722	22093
874.851	22055
874.979	22048
875.108	22177
875.237	21994
875.365	21899
875.494	22078
875.623	22162
875.751	21915
875.88	21991
876.008	22074
876.136	22261
876.265	22447
876.393	22443
876.521	22546
876.65	22405
876.778	22481
876.906	22466
877.034	22432
877.162	22455
877.29	22428
877.418	22363
877.546	22535
877.674	22337
877.802	22329
877.93	22436
878.058	22314
878.185	22329
878.313	22257
878.441	22478
878.568	22253
878.696	22325
878.824	22352
878.951	22341
879.079	22504
879.206	22649
879.333	22573
879.461	22386
879.588	22542
879.715	22672
879.842	22736
879.97	22466
880.097	22211
880.224	22219
880.351	22223
880.478	22238
880.605	22082
880.732	22169
880.859	22504
880.986	22234
881.112	22215
881.239	22013
881.366	21945
881.493	21926
881.619	21774
881.746	21831
881.872	21762
881.999	21759
882.125	21720
882.252	21903
882.378	21869
882.505	21827
882.631	21610
882.757	21526
882.883	21606
883.01	21393
883.136	21477
883.262	21344
883.388	21188
883.514	21466
883.64	21656
883.766	21397
883.892	21150
884.018	21150
884.143	21439
884.269	21515
884.395	21062
884.52	20986
884.646	21127
884.772	21074
884.897	20937
885.023	21070
885.148	21256
885.274	21321
885.399	21260
885.524	21138
885.65	21123
885.775	21119
885.9	21154
886.025	21218
886.15	21150
886.275	21024
886.4	21009
886.525	21119
886.65	21020
886.775	20994
886.9	21176
887.025	21313
887.149	21043
887.274	20986
887.399	20868
887.523	20971
887.648	20785
887.773	20880
887.897	20929
888.021	20956
888.146	20944
888.27	21116
888.395	20990
888.519	20921
888.643	20986
888.767	21062
888.891	20720
889.015	20735
889.139	20697
889.263	20701
889.387	20754
889.511	20910
889.635	20876
889.759	20686
889.883	20686
890.006	20648
890.13	20796
890.254	20587
890.377	20621
890.501	20579
890.624	20385
890.748	20450
890.871	20419
890.995	20199
891.118	20214
891.241	20317
891.364	20267
891.488	20434
891.611	20374
891.734	20206
891.857	20248
891.98	20237
892.103	20248
892.226	20221
892.349	20145
892.471	19997
892.594	20142
892.717	20320
892.839	20103
892.962	20214
893.085	20168
893.207	20218
893.33	20020
893.452	20065
893.575	20332
893.697	20077
893.819	20298
893.941	20317
894.064	20366
894.186	20058
894.308	20100
894.43	20237
894.552	20210
894.674	20244
894.796	20149
894.918	20134
895.04	20130
895.161	20119
895.283	20210
895.405	20153
895.526	20096
895.648	20096
895.769	20221
895.891	20267
896.012	20153
896.134	20263
896.255	20130
896.376	20058
896.498	20149
896.619	20138
896.74	20180
896.861	20130
896.982	20461
897.103	20492
897.224	20499
897.345	20339
897.466	20320
897.587	20389
897.708	20480
897.828	20431
897.949	20339
898.07	20130
898.19	20263
898.311	20434
898.431	20294
898.552	20370
898.672	20495
898.792	20385
898.913	20396
899.033	20305
899.153	20229
899.273	19986
899.393	20058
899.513	20142
899.633	20073
899.753	20126
899.873	20119
899.993	20046
900.113	20035
900.232	20084
900.352	19947
900.472	19944
900.591	19921
900.711	19978
900.83	19841
900.95	20020
901.069	20035
901.189	19753
901.308	19624
901.427	19571
901.546	19445
901.665	19430
901.784	19407
901.904	19316
902.023	19217
902.141	19164
902.26	19038
902.379	19076
902.498	18859
902.617	18951
902.735	18939
902.854	18951
902.973	18856
903.091	18604
903.21	18612
903.328	18608
903.446	18532
903.565	18517
903.683	18479
903.801	18384
903.919	18372
904.038	18395
904.156	18155
904.274	18300
904.392	18228
904.51	18315
904.627	18174
904.745	18262
904.863	18292
904.981	18140
905.098	17885
905.216	17912
905.334	18003
905.451	17851
905.569	17942
905.686	17874
905.803	17859
905.921	17691
906.038	17737
906.155	17855
906.272	17577
906.389	17608
906.506	17402
906.623	17467
906.74	17334
906.857	17277
906.974	17391
907.091	17467
907.208	17551
907.324	17440
907.441	17322
907.557	17254
907.674	17216
907.79	17117
907.907	17128
908.023	17174
908.139	17178
908.256	17121
908.372	17083
908.488	17064
908.604	16908
908.72	16835
908.836	17045
908.952	16740
909.068	16900
909.184	16968
909.3	16885
909.415	17003
909.531	16896
909.647	16580
909.762	16577
909.878	16512
909.993	16763
910.108	16615
910.224	16481
910.339	16569
910.454	16447
910.57	16428
910.685	16398
910.8	16634
910.915	16546
911.03	16299
911.145	16185
911.259	16173
911.374	16162
911.489	16090
911.604	16040
911.718	15953
911.833	15937
911.947	15816
912.062	15660
912.176	15918
912.291	15888
912.405	15911
912.519	16188
912.633	16131
912.748	15956
912.862	15903
912.976	15751
913.09	15595
913.204	15732
913.318	15652
913.431	15835
913.545	15743
913.659	15827
913.772	15667
913.886	15595
914	15545
914.113	15610
914.226	15732
914.34	15652
914.453	15454
914.566	15614
914.68	15321
914.793	15420
914.906	15180
915.019	15112
915.132	15184
915.245	15108
915.358	15146
915.47	15135
915.583	15085
915.696	15169
915.809	15077
915.921	15291
916.034	15024
916.146	15077
916.259	15005
916.371	15176
916.483	15127
916.595	14944
916.708	14910
916.82	15028
916.932	14895
917.044	15043
917.156	14929
917.268	14796
917.38	14845
917.491	14785
917.603	14815
917.715	14921
917.826	14891
917.938	14674
918.049	14610
918.161	14769
918.272	14868
918.384	14845
918.495	14739
918.606	14648
918.717	14522
918.828	14465
918.939	14610
919.05	14465
919.161	14400
919.272	14355
919.383	14415
919.494	14579
919.604	14705
919.715	14587
919.826	14427
919.936	14480
920.047	14514
920.157	14480
920.267	14659
920.378	14636
920.488	14514
920.598	14606
920.708	14785
920.818	14602
920.928	14613
921.038	14834
921.148	14689
921.258	14427
921.368	14343
921.477	14286
921.587	14259
921.697	14069
921.806	14366
921.916	14077
922.025	13906
922.134	13776
922.244	13788
922.353	13947
922.462	13765
922.571	13624
922.68	13548
922.789	13472
922.898	13540
923.007	13529
923.116	13540
923.224	13460
923.333	13491
923.442	13301
923.55	13293
923.659	13388
923.767	13457
923.876	13301
923.984	13381
924.092	13297
924.201	13331
924.309	13304
924.417	13240
924.525	13168
924.633	13171
924.741	14176
924.849	12989
924.956	13160
925.064	12977
925.172	12867
925.279	13027
925.387	12916
925.494	13004
925.602	13061
925.709	12909
925.816	12840
925.924	12837
926.031	12977
926.138	12848
926.245	12958
926.352	12924
926.459	12886
926.566	12935
926.673	12817
926.779	12700
926.886	12703
926.993	12582
927.099	12547
927.206	12445
927.312	12479
927.419	12521
927.525	12471
927.631	12475
927.737	12433
927.843	12388
927.95	12220
928.056	12338
928.162	12300
928.267	12384
928.373	12905
928.479	12395
928.585	12133
928.69	12254
928.796	12308
928.901	12098
929.007	12076
929.112	12102
929.218	12091
929.323	12098
929.428	12072
929.533	12216
929.638	11958
929.743	11954
929.848	12148
929.953	12030
930.058	11889
930.163	11760
930.267	11836
930.372	11767
930.477	11741
930.581	11999
930.685	11824
930.79	11634
930.894	11596
930.998	11634
931.103	11634
931.207	11372
931.311	11303
931.415	11223
931.519	10946
931.623	10999
