Data from test_V78500241_939.txt Node
Date: Fri Mar 25 15:16:23 CST 2022
User: usil
Spectrometer: V785-0024
Trigger mode: 0
Integration Time (sec): 4.000000E-1
Scans to average: 1
Nonlinearity correction enabled: false
Boxcar width: 0
Storing dark spectrum: false
XAxis mode: Wavelengths
Number of Pixels in Spectrum: 1024
>>>>>Begin Spectral Data<<<<<
801.071	27572
801.214	27644
801.356	27397
801.499	27135
801.641	27100
801.783	27157
801.926	27077
802.068	27085
802.211	27214
802.353	27017
802.496	26880
802.638	26682
802.78	26629
802.923	26804
803.065	26731
803.208	26758
803.35	26804
803.492	26986
803.635	26925
803.777	26746
803.919	26914
804.061	27214
804.204	26975
804.346	26986
804.488	26956
804.63	26994
804.773	26918
804.915	27001
805.057	26979
805.199	26887
805.341	27058
805.483	27222
805.626	27055
805.768	27009
805.91	27138
806.052	27043
806.194	27058
806.336	27321
806.478	27256
806.62	27104
806.762	27279
806.904	27359
807.046	27599
807.188	27416
807.33	27519
807.472	27485
807.614	27424
807.756	27526
807.898	27370
808.04	27332
808.182	27310
808.324	27431
808.465	27447
808.607	27622
808.749	27675
808.891	27812
809.033	27728
809.174	27667
809.316	27778
809.458	27751
809.6	27751
809.741	27869
809.883	27876
810.025	27949
810.166	27998
810.308	28055
810.45	27888
810.591	27979
810.733	27842
810.875	27759
811.016	27671
811.158	27648
811.299	27743
811.441	27865
811.582	27812
811.724	27587
811.865	27656
812.007	27717
812.148	27747
812.29	27816
812.431	27949
812.573	28109
812.714	28101
812.855	28181
812.997	28390
813.138	28523
813.279	28432
813.421	28382
813.562	28204
813.703	28188
813.845	27953
813.986	27694
814.127	27412
814.268	27340
814.41	27439
814.551	27416
814.692	27443
814.833	27313
814.974	27370
815.115	27382
815.256	27275
815.397	27325
815.539	27424
815.68	27188
815.821	27188
815.962	27188
816.103	27340
816.244	26937
816.385	27013
816.526	27051
816.666	26807
816.807	26701
816.948	26731
817.089	26990
817.23	26807
817.371	26743
817.512	26769
817.653	26743
817.793	26769
817.934	26769
818.075	26693
818.216	26819
818.356	26727
818.497	26587
818.638	26377
818.778	26442
818.919	26530
819.06	26549
819.2	26697
819.341	26609
819.481	26823
819.622	26918
819.762	26990
819.903	26880
820.043	26830
820.184	26819
820.324	26834
820.465	26842
820.605	26944
820.746	26834
820.886	26609
821.026	26868
821.167	26815
821.307	26815
821.447	26670
821.588	26659
821.728	26473
821.868	26351
822.008	26069
822.149	26271
822.289	26119
822.429	25913
822.569	25997
822.709	25845
822.849	25704
822.99	25727
823.13	25639
823.27	25689
823.41	25506
823.55	25479
823.69	25529
823.83	25411
823.97	25499
824.11	25381
824.25	25400
824.389	25415
824.529	25468
824.669	25457
824.809	25460
824.949	25381
825.089	25438
825.228	25263
825.368	25225
825.508	25206
825.648	25198
825.787	25289
825.927	25228
826.067	25023
826.206	25133
826.346	25350
826.485	25228
826.625	25194
826.765	25194
826.904	25255
827.044	25015
827.183	24966
827.323	24875
827.462	24985
827.601	24916
827.741	24806
827.88	24981
828.02	24730
828.159	25008
828.298	24932
828.437	25057
828.577	24905
828.716	25019
828.855	24909
828.994	24650
829.134	24635
829.273	24639
829.412	24684
829.551	24673
829.69	24665
829.829	24802
829.968	24658
830.107	24696
830.246	24642
830.385	24570
830.524	24601
830.663	24540
830.802	24300
830.941	24224
831.08	24216
831.219	24380
831.357	24388
831.496	24490
831.635	24239
831.774	24186
831.913	24251
832.051	23973
832.19	24049
832.329	24174
832.467	23939
832.606	23946
832.744	23916
832.883	23988
833.022	23942
833.16	24102
833.299	23996
833.437	23984
833.576	24064
833.714	24034
833.852	24232
833.991	24121
834.129	24053
834.267	24155
834.406	24083
834.544	24045
834.682	24007
834.821	23912
834.959	24201
835.097	23958
835.235	24030
835.373	23973
835.511	23977
835.65	23847
835.788	23851
835.926	23733
836.064	23634
836.202	23786
836.34	23813
836.478	24045
836.615	23779
836.753	23859
836.891	23965
837.029	23836
837.167	23855
837.305	23672
837.443	23676
837.58	23794
837.718	23786
837.856	23802
837.993	23710
838.131	23672
838.269	23505
838.406	23615
838.544	23474
838.681	23330
838.819	23311
838.956	23124
839.094	23109
839.231	23261
839.369	23235
839.506	23562
839.643	23410
839.781	23220
839.918	23117
840.055	23162
840.193	23124
840.33	22980
840.467	23117
840.604	23250
840.742	23429
840.879	23056
841.016	23094
841.153	22942
841.29	23159
841.427	23143
841.564	23128
841.701	23174
841.838	23025
841.975	23121
842.112	22999
842.249	22858
842.385	22885
842.522	23010
842.659	22900
842.796	22843
842.933	22805
843.069	22820
843.206	22843
843.343	22900
843.479	22896
843.616	22965
843.752	22691
843.889	22615
844.025	22786
844.162	22664
844.298	22706
844.435	22565
844.571	22717
844.708	22626
844.844	22835
844.98	22778
845.117	22733
845.253	22584
845.389	22561
845.525	22569
845.661	22588
845.798	22356
845.934	22356
846.07	22166
846.206	22375
846.342	22588
846.478	22371
846.614	22128
846.75	22109
846.886	22135
847.022	22230
847.158	22192
847.294	22105
847.429	22082
847.565	22150
847.701	22325
847.837	21865
847.972	21808
848.108	21865
848.244	21964
848.379	21915
848.515	21648
848.65	21644
848.786	21724
848.921	21641
849.057	21766
849.192	21747
849.328	21778
849.463	21663
849.598	21648
849.734	21587
849.869	21443
850.004	21454
850.14	21507
850.275	21545
850.41	21405
850.545	21401
850.68	21462
850.815	21507
850.95	21428
851.085	21648
851.22	21466
851.355	21485
851.49	21481
851.625	21545
851.76	21378
851.895	21412
852.03	21256
852.165	21370
852.299	21481
852.434	21526
852.569	21542
852.703	21252
852.838	21504
852.973	21557
853.107	21648
853.242	21310
853.376	21294
853.511	21131
853.645	21264
853.78	21348
853.914	21351
854.048	21279
854.183	21222
854.317	21207
854.451	21454
854.585	21363
854.72	21313
854.854	21302
854.988	21214
855.122	21188
855.256	21199
855.39	21306
855.524	21382
855.658	21359
855.792	21260
855.926	21268
856.06	21420
856.194	21222
856.327	21363
856.461	21146
856.595	21192
856.729	21329
856.862	21386
856.996	21192
857.13	21435
857.263	21344
857.397	21378
857.53	21249
857.664	21329
857.797	21329
857.931	21386
858.064	21397
858.197	21370
858.331	21245
858.464	21241
858.597	21298
858.731	21184
858.864	21195
858.997	21275
859.13	21329
859.263	21233
859.396	21310
859.529	21222
859.662	21272
859.795	21104
859.928	21211
860.061	21447
860.194	21367
860.327	21397
860.46	21279
860.592	21355
860.725	21431
860.858	21378
860.99	21260
861.123	21252
861.256	21214
861.388	21287
861.521	21956
861.653	21146
861.786	20998
861.918	21123
862.05	21093
862.183	21165
862.315	21256
862.447	21230
862.58	21355
862.712	20948
862.844	21009
862.976	21127
863.108	21093
863.24	21272
863.372	20838
863.504	21013
863.636	21055
863.768	21001
863.9	20967
864.032	20982
864.164	21032
864.296	20956
864.428	21062
864.559	21104
864.691	21001
864.823	21032
864.954	20963
865.086	20872
865.217	21039
865.349	20765
865.48	20929
865.612	20834
865.743	21024
865.875	20937
866.006	20758
866.137	20895
866.269	20876
866.4	20845
866.531	20826
866.662	20686
866.793	20792
866.924	20773
867.055	20845
867.186	20788
867.317	20792
867.448	20651
867.579	20739
867.71	20720
867.841	20613
867.972	20838
868.103	20746
868.233	20834
868.364	20853
868.495	20845
868.625	21074
868.756	21188
868.886	20963
869.017	21017
869.147	21192
869.278	21195
869.408	21119
869.539	20963
869.669	21203
869.799	20929
869.929	21241
870.06	21112
870.19	21428
870.32	21367
870.45	21359
870.58	21370
870.71	21610
870.84	21519
870.97	21412
871.1	21321
871.23	21496
871.36	21667
871.489	21473
871.619	21545
871.749	21561
871.879	21641
872.008	21785
872.138	21686
872.267	21625
872.397	21519
872.526	21336
872.656	21549
872.785	21393
872.915	21686
873.044	21717
873.173	21717
873.303	21667
873.432	21568
873.561	21835
873.69	21660
873.819	21656
873.948	21766
874.077	21736
874.206	21622
874.335	21713
874.464	21804
874.593	21842
874.722	21835
874.851	22036
874.979	21922
875.108	21926
875.237	21918
875.365	21709
875.494	21907
875.623	21949
875.751	21800
875.88	21994
876.008	22078
876.136	22055
876.265	22226
876.393	22299
876.521	22257
876.65	22424
876.778	22249
876.906	22192
877.034	22246
877.162	22261
877.29	22097
877.418	22196
877.546	22207
877.674	22325
877.802	22276
877.93	22219
878.058	22147
878.185	22044
878.313	22139
878.441	22139
878.568	22032
878.696	22105
878.824	22299
878.951	22447
879.079	22306
879.206	22504
879.333	22443
879.461	22322
879.588	22207
879.715	22485
879.842	22554
879.97	22322
880.097	22090
880.224	22078
880.351	22044
880.478	22078
880.605	21987
880.732	22120
880.859	22371
880.986	22036
881.112	21998
881.239	21907
881.366	21671
881.493	21755
881.619	21591
881.746	21618
881.872	21679
881.999	21587
882.125	21504
882.252	21660
882.378	21523
882.505	21713
882.631	21435
882.757	21447
882.883	21291
883.01	21336
883.136	21363
883.262	21226
883.388	21230
883.514	21340
883.64	21374
883.766	21230
883.892	21077
884.018	21085
884.143	21249
884.269	21378
884.395	21146
884.52	20906
884.646	20990
884.772	20880
884.897	20792
885.023	20990
885.148	21055
885.274	21138
885.399	21108
885.524	20902
885.65	20914
885.775	20979
885.9	20918
886.025	21138
886.15	21013
886.275	20971
886.4	20895
886.525	20929
886.65	20929
886.775	20796
886.9	21009
887.025	21104
887.149	21020
887.274	20754
887.399	20663
887.523	20739
887.648	20754
887.773	20617
887.897	20853
888.021	20765
888.146	20785
888.27	20830
888.395	20792
888.519	20670
888.643	20746
888.767	20648
888.891	20663
889.015	20533
889.139	20583
889.263	20545
889.387	20712
889.511	20788
889.635	20655
889.759	20446
889.883	20393
890.006	20427
890.13	20629
890.254	20495
890.377	20442
890.501	20225
890.624	20206
890.748	20366
890.871	20259
890.995	20126
891.118	20153
891.241	20176
891.364	20195
891.488	20259
891.611	20039
891.734	20149
891.857	20195
891.98	20164
892.103	20145
892.226	20058
892.349	20016
892.471	19928
892.594	19955
892.717	20035
892.839	20084
892.962	20088
893.085	20081
893.207	20027
893.33	19928
893.452	19970
893.575	19986
893.697	19936
893.819	20138
893.941	20206
894.064	20195
894.186	19936
894.308	19963
894.43	20240
894.552	20229
894.674	20119
894.796	19883
894.918	20039
895.04	19951
895.161	20054
895.283	20016
895.405	20001
895.526	20058
895.648	19974
895.769	20008
895.891	20046
896.012	20145
896.134	20027
896.255	19974
896.376	19913
896.498	20005
896.619	19940
896.74	20111
896.861	20111
896.982	20385
897.103	20438
897.224	20366
897.345	20195
897.466	20244
897.587	20218
897.708	20294
897.828	20339
897.949	20142
898.07	20016
898.19	20073
898.311	20191
898.431	20206
898.552	20286
898.672	20240
898.792	20313
898.913	20233
899.033	20107
899.153	19959
899.273	19822
899.393	19970
899.513	19986
899.633	20020
899.753	19944
899.873	19917
899.993	20065
900.113	19852
900.232	19925
900.352	19925
900.472	20016
900.591	19677
900.711	19776
900.83	19681
900.95	19761
901.069	19868
901.189	19571
901.308	19457
901.427	19285
901.546	19362
901.665	19259
901.784	19441
901.904	19202
902.023	19072
902.141	18913
902.26	18905
902.379	18890
902.498	18791
902.617	18859
902.735	18905
902.854	18802
902.973	18764
903.091	18574
903.21	18540
903.328	18608
903.446	18441
903.565	18365
903.683	18258
903.801	18178
903.919	18243
904.038	18216
904.156	18178
904.274	18194
904.392	18136
904.51	18201
904.627	18159
904.745	18121
904.863	18060
904.981	17889
905.098	17840
905.216	17718
905.334	17756
905.451	17794
905.569	17767
905.686	17783
905.803	17927
905.921	17600
906.038	17714
906.155	17592
906.272	17570
906.389	17547
906.506	17383
906.623	17364
906.74	17261
906.857	17261
906.974	17246
907.091	17406
907.208	17512
907.324	17497
907.441	17288
907.557	16980
907.674	17136
907.79	17041
907.907	17105
908.023	17025
908.139	17052
908.256	17025
908.372	16908
908.488	16949
908.604	16866
908.72	16961
908.836	16801
908.952	16801
909.068	16694
909.184	16904
909.3	16805
909.415	16968
909.531	16786
909.647	16603
909.762	16584
909.878	16523
909.993	16546
910.108	16596
910.224	16402
910.339	16508
910.454	16375
910.57	16348
910.685	16253
910.8	16478
910.915	16478
911.03	16382
911.145	16223
911.259	16067
911.374	16093
911.489	15991
911.604	15998
911.718	15789
911.833	15869
911.947	15781
912.062	15622
912.176	16021
912.291	15804
912.405	15861
912.519	15994
912.633	15911
912.748	15888
912.862	15701
912.976	15618
913.09	15553
913.204	15656
913.318	15618
913.431	15724
913.545	15622
913.659	15778
913.772	15576
913.886	15428
914	15492
914.113	15504
914.226	15584
914.34	15492
914.453	15329
914.566	15557
914.68	15416
914.793	15287
914.906	15157
915.019	15116
915.132	15009
915.245	15097
915.358	15184
915.47	15009
915.583	15013
915.696	15108
915.809	15081
915.921	15127
916.034	15066
916.146	14937
916.259	14899
916.371	14929
916.483	14994
916.595	14925
916.708	14785
916.82	14952
916.932	14902
917.044	14838
917.156	14845
917.268	14670
917.38	14720
917.491	14689
917.603	14674
917.715	14750
917.826	14781
917.938	14678
918.049	14606
918.161	14670
918.272	14788
918.384	14708
918.495	14686
918.606	14533
918.717	14370
918.828	14579
918.939	14579
919.05	14366
919.161	14530
919.272	14237
919.383	14355
919.494	14541
919.604	14636
919.715	14488
919.826	14332
919.936	14415
920.047	14476
920.157	14533
920.267	14674
920.378	14484
920.488	14400
920.598	14575
920.708	14792
920.818	14568
920.928	14526
921.038	14739
921.148	14640
921.258	14400
921.368	14385
921.477	14202
921.587	14237
921.697	14103
921.806	14191
921.916	14024
922.025	13921
922.134	13894
922.244	13818
922.353	13883
922.462	13616
922.571	13594
922.68	13487
922.789	13552
922.898	13460
923.007	13453
923.116	13468
923.224	13563
923.333	13480
923.442	13339
923.55	13282
923.659	13316
923.767	13381
923.876	13350
923.984	13362
924.092	13175
924.201	13240
924.309	13217
924.417	13263
924.525	13107
924.633	13175
924.741	14202
924.849	12897
924.956	13042
925.064	13008
925.172	12840
925.279	12890
925.387	12894
925.494	12954
925.602	12989
925.709	12920
925.816	12795
925.924	12810
926.031	12852
926.138	12810
926.245	12878
926.352	12768
926.459	12844
926.566	12939
926.673	12738
926.779	12631
926.886	12757
926.993	12540
927.099	12422
927.206	12403
927.312	12361
927.419	12433
927.525	12448
927.631	12509
927.737	12388
927.843	12277
927.95	12232
928.056	12251
928.162	12300
928.267	12437
928.373	12935
928.479	12289
928.585	12125
928.69	12152
928.796	12254
928.901	12114
929.007	12041
929.112	12095
929.218	12072
929.323	11996
929.428	12083
929.533	12038
929.638	11992
929.743	11973
929.848	11999
929.953	12011
930.058	11927
930.163	11729
930.267	11733
930.372	11893
930.477	11676
930.581	11878
930.685	11828
930.79	11638
930.894	11600
930.998	11592
931.103	11741
931.207	11337
931.311	11223
931.415	11162
931.519	11022
931.623	11014
