Data from test_V78500241_2098.txt Node
Date: Fri Mar 25 15:24:28 CST 2022
User: usil
Spectrometer: V785-0024
Trigger mode: 0
Integration Time (sec): 4.000000E-1
Scans to average: 1
Nonlinearity correction enabled: false
Boxcar width: 0
Storing dark spectrum: false
XAxis mode: Wavelengths
Number of Pixels in Spectrum: 1024
>>>>>Begin Spectral Data<<<<<
801.071	27762
801.214	27743
801.356	27538
801.499	27454
801.641	27348
801.783	27389
801.926	27222
802.068	27492
802.211	27336
802.353	27142
802.496	27176
802.638	27119
802.78	26998
802.923	27009
803.065	26933
803.208	26838
803.35	27112
803.492	27237
803.635	27306
803.777	27131
803.919	27249
804.061	27580
804.204	27256
804.346	27241
804.488	27264
804.63	27245
804.773	27176
804.915	27207
805.057	27237
805.199	27272
805.341	27317
805.483	27488
805.626	27420
805.768	27252
805.91	27435
806.052	27272
806.194	27313
806.336	27564
806.478	27340
806.62	27336
806.762	27526
806.904	27679
807.046	27690
807.188	27846
807.33	27812
807.472	27914
807.614	27728
807.756	27755
807.898	27667
808.04	27614
808.182	27534
808.324	27542
808.465	27774
808.607	27861
808.749	27998
808.891	28070
809.033	28105
809.174	28025
809.316	28120
809.458	27800
809.6	28044
809.741	28105
809.883	28158
810.025	28337
810.166	28272
810.308	28162
810.45	28143
810.591	28181
810.733	28139
810.875	27960
811.016	27861
811.158	27987
811.299	28150
811.441	28021
811.582	28131
811.724	27934
811.865	27987
812.007	28013
812.148	28013
812.29	27888
812.431	28192
812.573	28299
812.714	28436
812.855	28470
812.997	28679
813.138	28778
813.279	28622
813.421	28535
813.562	28337
813.703	28451
813.845	28177
813.986	28025
814.127	27739
814.268	27641
814.41	27720
814.551	27694
814.692	27865
814.833	27770
814.974	27641
815.115	27637
815.256	27507
815.397	27599
815.539	27439
815.68	27595
815.821	27336
815.962	27545
816.103	27435
816.244	27447
816.385	27321
816.526	27195
816.666	27123
816.807	27005
816.948	27146
817.089	27123
817.23	26937
817.371	26952
817.512	27001
817.653	26975
817.793	26895
817.934	26937
818.075	27131
818.216	26883
818.356	27085
818.497	26758
818.638	26785
818.778	26621
818.919	26571
819.06	26811
819.2	26887
819.341	26914
819.481	26940
819.622	27020
819.762	27268
819.903	27161
820.043	27188
820.184	27062
820.324	27108
820.465	27135
820.605	27192
820.746	26944
820.886	26902
821.026	27062
821.167	27001
821.307	27009
821.447	26956
821.588	26944
821.728	26792
821.868	26629
822.008	26492
822.149	26298
822.289	26282
822.429	26244
822.569	26130
822.709	26058
822.849	25845
822.99	26050
823.13	25845
823.27	25776
823.41	25677
823.55	25689
823.69	25776
823.83	25693
823.97	25689
824.11	25552
824.25	25518
824.389	25613
824.529	25670
824.669	25609
824.809	25651
824.949	25685
825.089	25594
825.228	25666
825.368	25441
825.508	25381
825.648	25460
825.787	25449
825.927	25521
826.067	25403
826.206	25533
826.346	25449
826.485	25407
826.625	25392
826.765	25521
826.904	25518
827.044	25327
827.183	25293
827.323	25107
827.462	25297
827.601	25171
827.741	25221
827.88	25160
828.02	25095
828.159	25110
828.298	25118
828.437	25312
828.577	25110
828.716	25156
828.855	25080
828.994	24840
829.134	24776
829.273	24867
829.412	24642
829.551	24684
829.69	24897
829.829	24859
829.968	24856
830.107	24890
830.246	24966
830.385	24844
830.524	24867
830.663	24513
830.802	24582
830.941	24441
831.08	24486
831.219	24563
831.357	24494
831.496	24612
831.635	24486
831.774	24384
831.913	24330
832.051	24178
832.19	24228
832.329	24273
832.467	24152
832.606	24129
832.744	24064
832.883	24068
833.022	24197
833.16	24194
833.299	24140
833.437	24174
833.576	24148
833.714	24330
833.852	24258
833.991	24216
834.129	24296
834.267	24266
834.406	24224
834.544	24205
834.682	24159
834.821	24182
834.959	24292
835.097	24114
835.235	24190
835.373	24251
835.511	24239
835.65	24098
835.788	24022
835.926	23912
836.064	23847
836.202	23863
836.34	23988
836.478	24155
836.615	23942
836.753	23961
836.891	24034
837.029	24034
837.167	23965
837.305	23950
837.443	23954
837.58	23889
837.718	23851
837.856	23969
837.993	23859
838.131	23897
838.269	23646
838.406	23805
838.544	23771
838.681	23585
838.819	23406
838.956	23242
839.094	23261
839.231	23288
839.369	23539
839.506	23855
839.643	23642
839.781	23360
839.918	23246
840.055	23318
840.193	23440
840.33	23250
840.467	23246
840.604	23322
840.742	23444
840.879	23044
841.016	23159
841.153	23124
841.29	23326
841.427	23223
841.564	23277
841.701	23307
841.838	23071
841.975	23086
842.112	23109
842.249	22900
842.385	23029
842.522	23159
842.659	23079
842.796	22972
842.933	23121
843.069	22881
843.206	22930
843.343	23056
843.479	22984
843.616	23029
843.752	22809
843.889	22843
844.025	23003
844.162	22790
844.298	22877
844.435	22854
844.571	22790
844.708	22774
844.844	22949
844.98	22828
845.117	22858
845.253	22774
845.389	22607
845.525	22561
845.661	22607
845.798	22607
845.934	22626
846.07	22481
846.206	22493
846.342	22660
846.478	22466
846.614	22223
846.75	22192
846.886	22268
847.022	22402
847.158	22314
847.294	22246
847.429	22287
847.565	22261
847.701	22508
847.837	22036
847.972	22048
848.108	22055
848.244	22017
848.379	21930
848.515	21717
848.65	21743
848.786	21949
848.921	21789
849.057	21926
849.192	21804
849.328	21884
849.463	21808
849.598	21827
849.734	21663
849.869	21717
850.004	21606
850.14	21637
850.275	21675
850.41	21492
850.545	21576
850.68	21485
850.815	21595
850.95	21629
851.085	21816
851.22	21759
851.355	21561
851.49	21656
851.625	21412
851.76	21523
851.895	21557
852.03	21576
852.165	21686
852.299	21576
852.434	21625
852.569	21610
852.703	21652
852.838	21629
852.973	21686
853.107	21739
853.242	21549
853.376	21397
853.511	21367
853.645	21321
853.78	21412
853.914	21450
854.048	21359
854.183	21351
854.317	21351
854.451	21542
854.585	21496
854.72	21454
854.854	21481
854.988	21336
855.122	21272
855.256	21245
855.39	21412
855.524	21466
855.658	21428
855.792	21363
855.926	21420
856.06	21431
856.194	21473
856.327	21310
856.461	21428
856.595	21454
856.729	21351
856.862	21545
856.996	21538
857.13	21473
857.263	21576
857.397	21564
857.53	21298
857.664	21370
857.797	21538
857.931	21469
858.064	21420
858.197	21542
858.331	21401
858.464	21424
858.597	21268
858.731	21397
858.864	21397
858.997	21279
859.13	21443
859.263	21298
859.396	21351
859.529	21450
859.662	21431
859.795	21401
859.928	21424
860.061	21526
860.194	21743
860.327	21557
860.46	21450
860.592	21450
860.725	21511
860.858	21652
860.99	21408
861.123	21325
861.256	21230
861.388	21389
861.521	22109
861.653	21359
861.786	21184
861.918	21241
862.05	21329
862.183	21393
862.315	21382
862.447	21397
862.58	21325
862.712	21157
862.844	21051
862.976	21226
863.108	21317
863.24	21405
863.372	21138
863.504	21081
863.636	21157
863.768	21180
863.9	21249
864.032	21066
864.164	21085
864.296	21199
864.428	21252
864.559	21119
864.691	21169
864.823	21085
864.954	21138
865.086	21070
865.217	21074
865.349	20849
865.48	20982
865.612	21024
865.743	21066
865.875	21062
866.006	20963
866.137	21028
866.269	21005
866.4	20986
866.531	20944
866.662	20944
866.793	20838
866.924	20864
867.055	20937
867.186	20902
867.317	20895
867.448	20720
867.579	20982
867.71	20921
867.841	20819
867.972	20971
868.103	20868
868.233	20982
868.364	20906
868.495	21036
868.625	21188
868.756	21306
868.886	21062
869.017	21195
869.147	21313
869.278	21241
869.408	21165
869.539	21230
869.669	21233
869.799	21275
869.929	21336
870.06	21325
870.19	21447
870.32	21488
870.45	21511
870.58	21488
870.71	21705
870.84	21663
870.97	21568
871.1	21610
871.23	21778
871.36	21819
871.489	21739
871.619	21682
871.749	21846
871.879	21857
872.008	21907
872.138	21797
872.267	21793
872.397	21572
872.526	21523
872.656	21671
872.785	21477
872.915	21876
873.044	21930
873.173	21793
873.303	21895
873.432	21876
873.561	21846
873.69	21739
873.819	21732
873.948	21846
874.077	21888
874.206	21732
874.335	21812
874.464	21960
874.593	22013
874.722	22010
874.851	21998
874.979	22025
875.108	21949
875.237	21888
875.365	21953
875.494	22067
875.623	22086
875.751	21926
875.88	22059
876.008	22067
876.136	22135
876.265	22500
876.393	22550
876.521	22432
876.65	22500
876.778	22428
876.906	22432
877.034	22360
877.162	22344
877.29	22246
877.418	22413
877.546	22356
877.674	22386
877.802	22421
877.93	22413
878.058	22257
878.185	22333
878.313	22314
878.441	22329
878.568	22207
878.696	22280
878.824	22485
878.951	22577
879.079	22561
879.206	22694
879.333	22523
879.461	22386
879.588	22462
879.715	22516
879.842	22702
879.97	22424
880.097	22131
880.224	22215
880.351	22192
880.478	22417
880.605	22109
880.732	22253
880.859	22314
880.986	22143
881.112	22200
881.239	21949
881.366	21964
881.493	21884
881.619	21679
881.746	21869
881.872	21808
881.999	21736
882.125	21755
882.252	21842
882.378	21762
882.505	21770
882.631	21698
882.757	21549
882.883	21545
883.01	21321
883.136	21485
883.262	21428
883.388	21294
883.514	21431
883.64	21466
883.766	21408
883.892	21264
884.018	21207
884.143	21439
884.269	21454
884.395	21264
884.52	21218
884.646	21093
884.772	21039
884.897	20994
885.023	21028
885.148	21161
885.274	21252
885.399	21131
885.524	21165
885.65	21192
885.775	21112
885.9	21096
886.025	21237
886.15	21272
886.275	21154
886.4	21085
886.525	21047
886.65	20994
886.775	21058
886.9	21249
887.025	21351
887.149	21062
887.274	20872
887.399	20925
887.523	20887
887.648	20765
887.773	20800
887.897	20948
888.021	21013
888.146	20861
888.27	20990
888.395	20971
888.519	20857
888.643	20925
888.767	20925
888.891	20731
889.015	20716
889.139	20800
889.263	20792
889.387	20750
889.511	20902
889.635	20705
889.759	20602
889.883	20678
890.006	20727
890.13	20792
890.254	20663
890.377	20640
890.501	20442
890.624	20431
890.748	20393
890.871	20343
890.995	20244
891.118	20172
891.241	20221
891.364	20252
891.488	20313
891.611	20225
891.734	20298
891.857	20240
891.98	20263
892.103	20183
892.226	20244
892.349	20199
892.471	19978
892.594	20153
892.717	20172
892.839	20187
892.962	20195
893.085	20252
893.207	20084
893.33	19989
893.452	20092
893.575	20187
893.697	20035
893.819	20244
893.941	20457
894.064	20221
894.186	20073
894.308	20073
894.43	20256
894.552	20233
894.674	20062
894.796	20020
894.918	20172
895.04	20073
895.161	20263
895.283	20191
895.405	20058
895.526	20100
895.648	20107
895.769	20187
895.891	20225
896.012	20309
896.134	20237
896.255	20183
896.376	20073
896.498	20229
896.619	20202
896.74	20103
896.861	20286
896.982	20507
897.103	20629
897.224	20461
897.345	20328
897.466	20347
897.587	20412
897.708	20606
897.828	20423
897.949	20362
898.07	20164
898.19	20240
898.311	20514
898.431	20370
898.552	20366
898.672	20396
898.792	20454
898.913	20377
899.033	20233
899.153	20161
899.273	20176
899.393	20069
899.513	20153
899.633	20142
899.753	20172
899.873	20153
899.993	20164
900.113	20077
900.232	20103
900.352	20035
900.472	19974
900.591	19856
900.711	19978
900.83	19830
900.95	19944
901.069	19913
901.189	19871
901.308	19639
901.427	19419
901.546	19430
901.665	19381
901.784	19601
901.904	19362
902.023	19232
902.141	19145
902.26	19008
902.379	19080
902.498	18932
902.617	18878
902.735	19072
902.854	18916
902.973	18890
903.091	18692
903.21	18620
903.328	18627
903.446	18498
903.565	18391
903.683	18517
903.801	18399
903.919	18369
904.038	18292
904.156	18281
904.274	18239
904.392	18254
904.51	18129
904.627	18091
904.745	18243
904.863	18311
904.981	18011
905.098	17855
905.216	17950
905.334	17855
905.451	17999
905.569	17828
905.686	17824
905.803	17882
905.921	17684
906.038	17775
906.155	17680
906.272	17604
906.389	17452
906.506	17452
906.623	17436
906.74	17452
906.857	17311
906.974	17307
907.091	17543
907.208	17387
907.324	17444
907.441	17265
907.557	17235
907.674	17090
907.79	17147
907.907	17083
908.023	17128
908.139	17102
908.256	17033
908.372	17056
908.488	17086
908.604	16908
908.72	16847
908.836	16911
908.952	16835
909.068	16862
909.184	16862
909.3	16938
909.415	16786
909.531	16831
909.647	16733
909.762	16588
909.878	16508
909.993	16584
910.108	16577
910.224	16500
910.339	16504
910.454	16341
910.57	16455
910.685	16306
910.8	16504
910.915	16519
911.03	16344
911.145	16169
911.259	16253
911.374	16150
911.489	16074
911.604	16025
911.718	15907
911.833	15975
911.947	15793
912.062	15770
912.176	15915
912.291	15861
912.405	15888
912.519	16078
912.633	16112
912.748	15979
912.862	15835
912.976	15720
913.09	15709
913.204	15656
913.318	15781
913.431	15865
913.545	15823
913.659	15823
913.772	15698
913.886	15504
914	15549
914.113	15557
914.226	15652
914.34	15629
914.453	15443
914.566	15561
914.68	15447
914.793	15310
914.906	15230
915.019	15192
915.132	15058
915.245	15256
915.358	15036
915.47	15123
915.583	15123
915.696	15214
915.809	15256
915.921	15298
916.034	14979
916.146	15001
916.259	14941
916.371	15119
916.483	15135
916.595	14960
916.708	14918
916.82	14918
916.932	14998
917.044	14921
917.156	14899
917.268	14777
917.38	14781
917.491	14712
917.603	14674
917.715	14914
917.826	14842
917.938	14864
918.049	14617
918.161	14724
918.272	14819
918.384	14819
918.495	14670
918.606	14545
918.717	14530
918.828	14610
918.939	14606
919.05	14419
919.161	14587
919.272	14298
919.383	14454
919.494	14648
919.604	14651
919.715	14545
919.826	14362
919.936	14408
920.047	14533
920.157	14518
920.267	14686
920.378	14541
920.488	14469
920.598	14678
920.708	14834
920.818	14670
920.928	14701
921.038	14762
921.148	14678
921.258	14556
921.368	14339
921.477	14313
921.587	14294
921.697	14157
921.806	14229
921.916	14134
922.025	13970
922.134	13811
922.244	13818
922.353	13868
922.462	13776
922.571	13784
922.68	13533
922.789	13594
922.898	13556
923.007	13502
923.116	13533
923.224	13388
923.333	13464
923.442	13373
923.55	13331
923.659	13422
923.767	13381
923.876	13304
923.984	13403
924.092	13190
924.201	13282
924.309	13358
924.417	13251
924.525	13232
924.633	13164
924.741	13940
924.849	12993
924.956	13137
925.064	13012
925.172	12894
925.279	12932
925.387	12943
925.494	12901
925.602	12962
925.709	12996
925.816	12856
925.924	12863
926.031	12977
926.138	12837
926.245	12924
926.352	12897
926.459	12981
926.566	12863
926.673	12787
926.779	12677
926.886	12764
926.993	12635
927.099	12506
927.206	12559
927.312	12441
927.419	12528
927.525	12467
927.631	12528
927.737	12380
927.843	12380
927.95	12308
928.056	12350
928.162	12323
928.267	12357
928.373	12996
928.479	12460
928.585	12163
928.69	12350
928.796	12311
928.901	12247
929.007	12053
929.112	12190
929.218	12186
929.323	12129
929.428	12072
929.533	12205
929.638	11935
929.743	12034
929.848	12083
929.953	11977
930.058	11916
930.163	11760
930.267	11764
930.372	11908
930.477	11695
930.581	11935
930.685	11745
930.79	11657
930.894	11710
930.998	11627
931.103	11771
931.207	11391
931.311	11395
931.415	11204
931.519	10984
931.623	11014
