Data from test_V78500241_1787.txt Node
Date: Fri Mar 25 15:22:17 CST 2022
User: usil
Spectrometer: V785-0024
Trigger mode: 0
Integration Time (sec): 4.000000E-1
Scans to average: 1
Nonlinearity correction enabled: false
Boxcar width: 0
Storing dark spectrum: false
XAxis mode: Wavelengths
Number of Pixels in Spectrum: 1024
>>>>>Begin Spectral Data<<<<<
801.071	27861
801.214	27827
801.356	27618
801.499	27500
801.641	27431
801.783	27405
801.926	27348
802.068	27317
802.211	27310
802.353	27363
802.496	27051
802.638	27077
802.78	27024
802.923	27009
803.065	27005
803.208	26960
803.35	27058
803.492	27142
803.635	27260
803.777	27142
803.919	27146
804.061	27393
804.204	27306
804.346	27222
804.488	27074
804.63	27260
804.773	27192
804.915	27154
805.057	27367
805.199	27268
805.341	27245
805.483	27427
805.626	27218
805.768	27332
805.91	27329
806.052	27310
806.194	27169
806.336	27435
806.478	27287
806.62	27321
806.762	27458
806.904	27553
807.046	27850
807.188	27739
807.33	27732
807.472	27724
807.614	27644
807.756	27736
807.898	27561
808.04	27481
808.182	27637
808.324	27648
808.465	27690
808.607	27892
808.749	27911
808.891	28105
809.033	28116
809.174	28032
809.316	27945
809.458	27873
809.6	27934
809.741	28143
809.883	28204
810.025	28177
810.166	28432
810.308	28329
810.45	28169
810.591	28048
810.733	27968
810.875	27899
811.016	27846
811.158	27793
811.299	28093
811.441	28063
811.582	28017
811.724	28013
811.865	27854
812.007	27873
812.148	27914
812.29	28082
812.431	28143
812.573	28333
812.714	28348
812.855	28428
812.997	28645
813.138	28698
813.279	28710
813.421	28390
813.562	28455
813.703	28291
813.845	28211
813.986	27918
814.127	27667
814.268	27622
814.41	27720
814.551	27690
814.692	27774
814.833	27507
814.974	27679
815.115	27751
815.256	27660
815.397	27488
815.539	27538
815.68	27329
815.821	27329
815.962	27397
816.103	27477
816.244	27405
816.385	27135
816.526	27241
816.666	27020
816.807	26975
816.948	27089
817.089	27070
817.23	26998
817.371	26925
817.512	26830
817.653	26944
817.793	26864
817.934	26975
818.075	26880
818.216	27062
818.356	26902
818.497	26838
818.638	26617
818.778	26731
818.919	26716
819.06	26754
819.2	26861
819.341	26956
819.481	26876
819.622	27154
819.762	27203
819.903	27180
820.043	27260
820.184	27150
820.324	27039
820.465	27039
820.605	27142
820.746	27013
820.886	26823
821.026	27043
821.167	26979
821.307	27005
821.447	26895
821.588	26952
821.728	26762
821.868	26583
822.008	26526
822.149	26332
822.289	26492
822.429	26157
822.569	26149
822.709	26142
822.849	26016
822.99	26024
823.13	25932
823.27	25879
823.41	25689
823.55	25613
823.69	25685
823.83	25704
823.97	25723
824.11	25411
824.25	25594
824.389	25548
824.529	25559
824.669	25643
824.809	25727
824.949	25693
825.089	25734
825.228	25628
825.368	25434
825.508	25396
825.648	25445
825.787	25567
825.927	25483
826.067	25407
826.206	25350
826.346	25552
826.485	25548
826.625	25510
826.765	25590
826.904	25464
827.044	25183
827.183	25251
827.323	25304
827.462	25133
827.601	24973
827.741	25061
827.88	25187
828.02	25103
828.159	25122
828.298	25061
828.437	25293
828.577	25129
828.716	25251
828.855	25076
828.994	24894
829.134	24951
829.273	24886
829.412	24894
829.551	24798
829.69	24798
829.829	24932
829.968	24947
830.107	24928
830.246	24913
830.385	24802
830.524	24856
830.663	24840
830.802	24669
830.941	24486
831.08	24502
831.219	24627
831.357	24646
831.496	24776
831.635	24502
831.774	24372
831.913	24304
832.051	24266
832.19	24296
832.329	24254
832.467	24098
832.606	24030
832.744	24091
832.883	24152
833.022	24091
833.16	24152
833.299	24334
833.437	24235
833.576	24315
833.714	24201
833.852	24281
833.991	24311
834.129	24323
834.267	24429
834.406	24213
834.544	24201
834.682	24174
834.821	24277
834.959	24441
835.097	24311
835.235	24300
835.373	24270
835.511	24125
835.65	24155
835.788	24041
835.926	23965
836.064	23935
836.202	23996
836.34	24140
836.478	24216
836.615	24087
836.753	23977
836.891	24205
837.029	24038
837.167	24053
837.305	23977
837.443	23954
837.58	23863
837.718	23977
837.856	23851
837.993	23836
838.131	23942
838.269	23722
838.406	23775
838.544	23722
838.681	23634
838.819	23463
838.956	23376
839.094	23429
839.231	23368
839.369	23547
839.506	23805
839.643	23615
839.781	23395
839.918	23303
840.055	23337
840.193	23459
840.33	23421
840.467	23220
840.604	23315
840.742	23566
840.879	23200
841.016	23318
841.153	23014
841.29	23520
841.427	23368
841.564	23349
841.701	23433
841.838	23132
841.975	23117
842.112	23223
842.249	23086
842.385	23086
842.522	23231
842.659	23143
842.796	23071
842.933	23079
843.069	22991
843.206	23075
843.343	23090
843.479	23124
843.616	23140
843.752	22961
843.889	22919
844.025	23025
844.162	22839
844.298	22816
844.435	22809
844.571	22828
844.708	22991
844.844	23174
844.98	22915
845.117	23010
845.253	22786
845.389	22687
845.525	22702
845.661	22611
845.798	22615
845.934	22641
846.07	22462
846.206	22596
846.342	22698
846.478	22588
846.614	22394
846.75	22223
846.886	22459
847.022	22276
847.158	22417
847.294	22394
847.429	22451
847.565	22268
847.701	22565
847.837	22124
847.972	22093
848.108	22284
848.244	22169
848.379	21884
848.515	21915
848.65	21949
848.786	21736
848.921	21846
849.057	21903
849.192	21930
849.328	21804
849.463	21888
849.598	21682
849.734	21774
849.869	21705
850.004	21701
850.14	21603
850.275	21637
850.41	21568
850.545	21682
850.68	21606
850.815	21675
850.95	21523
851.085	21816
851.22	21713
851.355	21846
851.49	21694
851.625	21827
851.76	21652
851.895	21614
852.03	21637
852.165	21583
852.299	21709
852.434	21736
852.569	21671
852.703	21709
852.838	21690
852.973	21766
853.107	21728
853.242	21663
853.376	21572
853.511	21344
853.645	21466
853.78	21576
853.914	21428
854.048	21469
854.183	21431
854.317	21519
854.451	21720
854.585	21534
854.72	21454
854.854	21557
854.988	21374
855.122	21386
855.256	21351
855.39	21405
855.524	21660
855.658	21549
855.792	21606
855.926	21599
856.06	21523
856.194	21496
856.327	21405
856.461	21511
856.595	21310
856.729	21416
856.862	21610
856.996	21633
857.13	21526
857.263	21637
857.397	21686
857.53	21496
857.664	21530
857.797	21542
857.931	21545
858.064	21504
858.197	21648
858.331	21431
858.464	21382
858.597	21386
858.731	21469
858.864	21386
858.997	21485
859.13	21561
859.263	21534
859.396	21644
859.529	21492
859.662	21481
859.795	21435
859.928	21504
860.061	21686
860.194	21701
860.327	21458
860.46	21443
860.592	21557
860.725	21618
860.858	21633
860.99	21545
861.123	21492
861.256	21466
861.388	21435
861.521	22101
861.653	21302
861.786	21195
861.918	21169
862.05	21348
862.183	21348
862.315	21447
862.447	21424
862.58	21397
862.712	21279
862.844	21237
862.976	21218
863.108	21169
863.24	21595
863.372	21176
863.504	21195
863.636	21123
863.768	21306
863.9	21313
864.032	21089
864.164	21199
864.296	21275
864.428	21370
864.559	21294
864.691	21332
864.823	21150
864.954	21188
865.086	21135
865.217	21043
865.349	21009
865.48	20998
865.612	21104
865.743	21218
865.875	21104
866.006	21024
866.137	21176
866.269	21066
866.4	21005
866.531	21039
866.662	20937
866.793	21077
866.924	20998
867.055	21047
867.186	21096
867.317	20925
867.448	20990
867.579	20918
867.71	20971
867.841	20956
867.972	21047
868.103	21020
868.233	20971
868.364	21051
868.495	21077
868.625	21150
868.756	21382
868.886	21207
869.017	21283
869.147	21233
869.278	21279
869.408	21321
869.539	21294
869.669	21359
869.799	21325
869.929	21393
870.06	21408
870.19	21530
870.32	21564
870.45	21644
870.58	21587
870.71	21766
870.84	21804
870.97	21701
871.1	21739
871.23	21911
871.36	21915
871.489	21827
871.619	21819
871.749	21911
871.879	21915
872.008	21975
872.138	21850
872.267	21869
872.397	21823
872.526	21648
872.656	21724
872.785	21637
872.915	21816
873.044	21899
873.173	21911
873.303	21991
873.432	21899
873.561	22063
873.69	21793
873.819	21800
873.948	21850
874.077	22040
874.206	21850
874.335	21907
874.464	21972
874.593	22169
874.722	22044
874.851	22082
874.979	22097
875.108	22200
875.237	22166
875.365	22070
875.494	22059
875.623	22162
875.751	21994
875.88	22150
876.008	21987
876.136	22356
876.265	22398
876.393	22687
876.521	22527
876.65	22630
876.778	22573
876.906	22382
877.034	22398
877.162	22329
877.29	22447
877.418	22516
877.546	22409
877.674	22421
877.802	22382
877.93	22371
878.058	22390
878.185	22314
878.313	22318
878.441	22348
878.568	22413
878.696	22375
878.824	22455
878.951	22489
879.079	22580
879.206	22809
879.333	22653
879.461	22436
879.588	22478
879.715	22577
879.842	22778
879.97	22630
880.097	22348
880.224	22272
880.351	22196
880.478	22329
880.605	22344
880.732	22280
880.859	22523
880.986	22246
881.112	22177
881.239	22074
881.366	22013
881.493	21835
881.619	21907
881.746	21926
881.872	21911
881.999	21789
882.125	21873
882.252	21972
882.378	21755
882.505	21945
882.631	21717
882.757	21572
882.883	21736
883.01	21576
883.136	21538
883.262	21306
883.388	21405
883.514	21485
883.64	21637
883.766	21397
883.892	21332
884.018	21310
884.143	21606
884.269	21561
884.395	21252
884.52	21180
884.646	21237
884.772	21070
884.897	21089
885.023	21214
885.148	21363
885.274	21291
885.399	21310
885.524	21165
885.65	21192
885.775	21226
885.9	21165
886.025	21287
886.15	21161
886.275	21214
886.4	21017
886.525	21195
886.65	21195
886.775	21161
886.9	21291
887.025	21374
887.149	21214
887.274	20963
887.399	20963
887.523	20967
887.648	20895
887.773	20948
887.897	21039
888.021	21089
888.146	20849
888.27	21024
888.395	20918
888.519	20883
888.643	20918
888.767	20910
888.891	20876
889.015	20727
889.139	20762
889.263	20720
889.387	20910
889.511	20925
889.635	20918
889.759	20762
889.883	20724
890.006	20765
890.13	20857
890.254	20663
890.377	20579
890.501	20613
890.624	20541
890.748	20549
890.871	20480
890.995	20370
891.118	20275
891.241	20385
891.364	20332
891.488	20317
891.611	20317
891.734	20393
891.857	20339
891.98	20412
892.103	20396
892.226	20248
892.349	20328
892.471	20142
892.594	20153
892.717	20298
892.839	20088
892.962	20202
893.085	20259
893.207	20294
893.33	20157
893.452	20225
893.575	20282
893.697	20149
893.819	20355
893.941	20351
894.064	20427
894.186	20157
894.308	20081
894.43	20324
894.552	20271
894.674	20271
894.796	20134
894.918	20164
895.04	20195
895.161	20202
895.283	20229
895.405	20153
895.526	20218
895.648	20317
895.769	20214
895.891	20275
896.012	20225
896.134	20172
896.255	20168
896.376	20149
896.498	20244
896.619	20256
896.74	20286
896.861	20229
896.982	20549
897.103	20636
897.224	20381
897.345	20427
897.466	20332
897.587	20492
897.708	20442
897.828	20533
897.949	20362
898.07	20278
898.19	20309
898.311	20434
898.431	20298
898.552	20442
898.672	20431
898.792	20469
898.913	20438
899.033	20256
899.153	20153
899.273	20043
899.393	20233
899.513	20229
899.633	20248
899.753	20073
899.873	20039
899.993	20180
900.113	20046
900.232	20126
900.352	20005
900.472	19997
900.591	19841
900.711	19951
900.83	19928
900.95	19997
901.069	19947
901.189	19784
901.308	19609
901.427	19601
901.546	19430
901.665	19624
901.784	19548
901.904	19362
902.023	19209
902.141	19050
902.26	19004
902.379	19175
902.498	19012
902.617	18882
902.735	19099
902.854	19027
902.973	18996
903.091	18730
903.21	18722
903.328	18658
903.446	18620
903.565	18494
903.683	18418
903.801	18433
903.919	18346
904.038	18422
904.156	18262
904.274	18338
904.392	18197
904.51	18186
904.627	18209
904.745	18372
904.863	18281
904.981	18053
905.098	17935
905.216	17904
905.334	17980
905.451	17946
905.569	17901
905.686	17893
905.803	17912
905.921	17684
906.038	17840
906.155	17695
906.272	17539
906.389	17703
906.506	17478
906.623	17532
906.74	17433
906.857	17379
906.974	17326
907.091	17524
907.208	17566
907.324	17448
907.441	17395
907.557	17223
907.674	17250
907.79	17178
907.907	17185
908.023	17246
908.139	17155
908.256	17094
908.372	17090
908.488	17041
908.604	16999
908.72	16850
908.836	16942
908.952	16938
909.068	16831
909.184	17075
909.3	16991
909.415	16942
909.531	16957
909.647	16649
909.762	16637
909.878	16592
909.993	16580
910.108	16630
910.224	16538
910.339	16622
910.454	16474
910.57	16504
910.685	16474
910.8	16603
910.915	16573
911.03	16489
911.145	16333
911.259	16261
911.374	16276
911.489	16147
911.604	16181
911.718	15945
911.833	15987
911.947	15857
912.062	15934
912.176	15903
912.291	15998
912.405	15876
912.519	16051
912.633	16017
912.748	15918
912.862	15964
912.976	15785
913.09	15759
913.204	15679
913.318	15873
913.431	15793
913.545	15861
913.659	15804
913.772	15755
913.886	15568
914	15553
914.113	15633
914.226	15698
914.34	15584
914.453	15488
914.566	15572
914.68	15435
914.793	15367
914.906	15306
915.019	15169
915.132	15157
915.245	15165
915.358	15283
915.47	15161
915.583	15146
915.696	15188
915.809	15199
915.921	15389
916.034	15070
916.146	15066
916.259	15032
916.371	15249
916.483	15127
916.595	15005
916.708	15001
916.82	15074
916.932	15047
917.044	14963
917.156	14952
917.268	14902
917.38	14906
917.491	14792
917.603	14902
917.715	14857
917.826	14944
917.938	14891
918.049	14708
918.161	14807
918.272	14921
918.384	14941
918.495	14765
918.606	14659
918.717	14575
918.828	14537
918.939	14613
919.05	14438
919.161	14560
919.272	14343
919.383	14454
919.494	14590
919.604	14762
919.715	14587
919.826	14476
919.936	14533
920.047	14594
920.157	14537
920.267	14746
920.378	14499
920.488	14549
920.598	14667
920.708	14834
920.818	14629
920.928	14769
921.038	14762
921.148	14731
921.258	14507
921.368	14393
921.477	14301
921.587	14343
921.697	14138
921.806	14218
921.916	14180
922.025	14024
922.134	13970
922.244	13822
922.353	13940
922.462	13833
922.571	13693
922.68	13518
922.789	13597
922.898	13537
923.007	13510
923.116	13613
923.224	13472
923.333	13544
923.442	13460
923.55	13339
923.659	13411
923.767	13445
923.876	13331
923.984	13373
924.092	13377
924.201	13388
924.309	13308
924.417	13285
924.525	13221
924.633	13206
924.741	14259
924.849	13012
924.956	13190
925.064	12966
925.172	12886
925.279	12996
925.387	13012
925.494	12966
925.602	13126
925.709	13004
925.816	12871
925.924	12958
926.031	13042
926.138	12962
926.245	12905
926.352	12833
926.459	12954
926.566	12989
926.673	12825
926.779	12734
926.886	12642
926.993	12559
927.099	12563
927.206	12528
927.312	12422
927.419	12593
927.525	12559
927.631	12593
927.737	12418
927.843	12433
927.95	12353
928.056	12353
928.162	12369
928.267	12361
928.373	12951
928.479	12407
928.585	12209
928.69	12296
928.796	12414
928.901	12228
929.007	12140
929.112	12247
929.218	12140
929.323	12171
929.428	12155
929.533	12232
929.638	12038
929.743	12019
929.848	12106
929.953	11988
930.058	11916
930.163	11737
930.267	11828
930.372	11893
930.477	11771
930.581	12026
930.685	11794
930.79	11558
930.894	11642
930.998	11589
931.103	11695
931.207	11410
931.311	11345
931.415	11288
931.519	11117
931.623	10934
