Data from test_V78500241_1023.txt Node
Date: Fri Mar 25 15:16:58 CST 2022
User: usil
Spectrometer: V785-0024
Trigger mode: 0
Integration Time (sec): 4.000000E-1
Scans to average: 1
Nonlinearity correction enabled: false
Boxcar width: 0
Storing dark spectrum: false
XAxis mode: Wavelengths
Number of Pixels in Spectrum: 1024
>>>>>Begin Spectral Data<<<<<
801.071	28607
801.214	28443
801.356	28188
801.499	28128
801.641	27972
801.783	28185
801.926	27987
802.068	27922
802.211	27987
802.353	27865
802.496	27762
802.638	27614
802.78	27694
802.923	27606
803.065	27583
803.208	27652
803.35	27682
803.492	27610
803.635	27804
803.777	27625
803.919	27717
804.061	28078
804.204	27865
804.346	27930
804.488	27690
804.63	27838
804.773	27743
804.915	27854
805.057	27876
805.199	27800
805.341	28010
805.483	28013
805.626	28044
805.768	27922
805.91	27838
806.052	28063
806.194	28070
806.336	28211
806.478	28109
806.62	28135
806.762	28318
806.904	28223
807.046	28538
807.188	28386
807.33	28390
807.472	28554
807.614	28386
807.756	28401
807.898	28360
808.04	28314
808.182	28204
808.324	28242
808.465	28455
808.607	28573
808.749	28504
808.891	28637
809.033	28763
809.174	28831
809.316	28596
809.458	28634
809.6	28500
809.741	28740
809.883	28831
810.025	28930
810.166	28987
810.308	28949
810.45	28976
810.591	28904
810.733	28759
810.875	28679
811.016	28584
811.158	28706
811.299	28683
811.441	28721
811.582	28885
811.724	28858
811.865	28660
812.007	28668
812.148	28668
812.29	28596
812.431	28820
812.573	29048
812.714	29006
812.855	29250
812.997	29398
813.138	29417
813.279	29334
813.421	29140
813.562	29303
813.703	29029
813.845	28881
813.986	28656
814.127	28557
814.268	28417
814.41	28493
814.551	28375
814.692	28382
814.833	28394
814.974	28466
815.115	28493
815.256	28261
815.397	28200
815.539	28344
815.68	28128
815.821	28158
815.962	28204
816.103	28185
816.244	28078
816.385	28048
816.526	27975
816.666	27888
816.807	27747
816.948	27827
817.089	27884
817.23	27861
817.371	27755
817.512	27675
817.653	27770
817.793	27736
817.934	27747
818.075	27717
818.216	27823
818.356	27557
818.497	27667
818.638	27355
818.778	27488
818.919	27530
819.06	27568
819.2	27504
819.341	27774
819.481	27713
819.622	27720
819.762	28006
819.903	28135
820.043	27846
820.184	27926
820.324	27899
820.465	27842
820.605	27816
820.746	27873
820.886	27804
821.026	27873
821.167	27819
821.307	27861
821.447	27717
821.588	27705
821.728	27481
821.868	27329
822.008	27264
822.149	27138
822.289	27195
822.429	26883
822.569	26788
822.709	26804
822.849	26674
822.99	26804
823.13	26769
823.27	26670
823.41	26518
823.55	26503
823.69	26511
823.83	26549
823.97	26457
824.11	26499
824.25	26355
824.389	26339
824.529	26370
824.669	26434
824.809	26488
824.949	26522
825.089	26396
825.228	26427
825.368	26202
825.508	26332
825.648	26313
825.787	26320
825.927	26434
826.067	26229
826.206	26221
826.346	26332
826.485	26229
826.625	26240
826.765	26461
826.904	26317
827.044	25982
827.183	25852
827.323	25879
827.462	26081
827.601	26065
827.741	25955
827.88	26103
828.02	25951
828.159	25917
828.298	26008
828.437	26107
828.577	25833
828.716	25989
828.855	26005
828.994	25871
829.134	25658
829.273	25643
829.412	25639
829.551	25632
829.69	25784
829.829	25761
829.968	25738
830.107	25799
830.246	25738
830.385	25674
830.524	25715
830.663	25502
830.802	25502
830.941	25384
831.08	25247
831.219	25419
831.357	25445
831.496	25635
831.635	25407
831.774	25118
831.913	25126
832.051	25050
832.19	25000
832.329	25179
832.467	24996
832.606	25034
832.744	24943
832.883	24943
833.022	24939
833.16	25042
833.299	25088
833.437	25015
833.576	25076
833.714	25076
833.852	25091
833.991	25145
834.129	25103
834.267	25114
834.406	25000
834.544	25129
834.682	25141
834.821	25012
834.959	25312
835.097	25057
835.235	25061
835.373	24916
835.511	25000
835.65	24958
835.788	24875
835.926	24768
836.064	24707
836.202	24779
836.34	24871
836.478	24958
836.615	24821
836.753	24905
836.891	24886
837.029	24878
837.167	24631
837.305	24787
837.443	24871
837.58	24772
837.718	24684
837.856	24719
837.993	24635
838.131	24757
838.269	24498
838.406	24631
838.544	24505
838.681	24388
838.819	24403
838.956	24110
839.094	24117
839.231	24319
839.369	24311
839.506	24631
839.643	24365
839.781	24121
839.918	24163
840.055	24190
840.193	24110
840.33	24064
840.467	24155
840.604	24106
840.742	24350
840.879	24018
841.016	24064
841.153	23996
841.29	24159
841.427	24064
841.564	24258
841.701	24015
841.838	24026
841.975	23897
842.112	23946
842.249	23783
842.385	23961
842.522	23965
842.659	23802
842.796	23809
842.933	23870
843.069	23745
843.206	23764
843.343	23958
843.479	23809
843.616	23855
843.752	23592
843.889	23638
844.025	23786
844.162	23703
844.298	23786
844.435	23589
844.571	23611
844.708	23649
844.844	23756
844.98	23710
845.117	23779
845.253	23638
845.389	23452
845.525	23611
845.661	23493
845.798	23368
845.934	23467
846.07	23372
846.206	23315
846.342	23520
846.478	23273
846.614	23098
846.75	23003
846.886	23086
847.022	23159
847.158	23094
847.294	23071
847.429	23014
847.565	23181
847.701	23379
847.837	22850
847.972	22828
848.108	23010
848.244	22828
848.379	22797
848.515	22744
848.65	22611
848.786	22812
848.921	22637
849.057	22801
849.192	22668
849.328	22706
849.463	22755
849.598	22649
849.734	22554
849.869	22634
850.004	22443
850.14	22459
850.275	22455
850.41	22348
850.545	22451
850.68	22375
850.815	22443
850.95	22489
851.085	22637
851.22	22584
851.355	22493
851.49	22398
851.625	22310
851.76	22379
851.895	22363
852.03	22474
852.165	22314
852.299	22481
852.434	22485
852.569	22512
852.703	22451
852.838	22516
852.973	22485
853.107	22622
853.242	22360
853.376	22318
853.511	22154
853.645	22246
853.78	22379
853.914	22314
854.048	22166
854.183	22299
854.317	22394
854.451	22379
854.585	22265
854.72	22318
854.854	22306
854.988	22139
855.122	22287
855.256	22238
855.39	22325
855.524	22268
855.658	22310
855.792	22268
855.926	22352
856.06	22192
856.194	22314
856.327	22211
856.461	22246
856.595	22139
856.729	22181
856.862	22322
856.996	22162
857.13	22341
857.263	22417
857.397	22360
857.53	22139
857.664	22223
857.797	22409
857.931	22295
858.064	22363
858.197	22436
858.331	22211
858.464	22124
858.597	22112
858.731	22207
858.864	22299
858.997	22078
859.13	22207
859.263	22306
859.396	22306
859.529	22265
859.662	22188
859.795	22200
859.928	22200
860.061	22428
860.194	22470
860.327	22280
860.46	22276
860.592	22337
860.725	22325
860.858	22360
860.99	22287
861.123	22124
861.256	22169
861.388	22333
861.521	22946
861.653	22124
861.786	22013
861.918	22158
862.05	21972
862.183	22090
862.315	22257
862.447	22215
862.58	22143
862.712	21991
862.844	21953
862.976	21979
863.108	21945
863.24	22405
863.372	21899
863.504	21850
863.636	21926
863.768	22177
863.9	21895
864.032	21869
864.164	22002
864.296	21975
864.428	22116
864.559	22097
864.691	22105
864.823	21964
864.954	22048
865.086	21838
865.217	21899
865.349	21854
865.48	21922
865.612	21903
865.743	21941
865.875	21934
866.006	21660
866.137	21880
866.269	21850
866.4	21842
866.531	21736
866.662	21747
866.793	21656
866.924	21713
867.055	21804
867.186	21797
867.317	21778
867.448	21739
867.579	21641
867.71	21739
867.841	21728
867.972	21755
868.103	21656
868.233	21675
868.364	21698
868.495	21930
868.625	21991
868.756	22169
868.886	21835
869.017	21884
869.147	22093
869.278	22124
869.408	22029
869.539	21915
869.669	22036
869.799	22097
869.929	22185
870.06	22177
870.19	22352
870.32	22322
870.45	22246
870.58	22295
870.71	22455
870.84	22459
870.97	22489
871.1	22356
871.23	22519
871.36	22577
871.489	22466
871.619	22580
871.749	22675
871.879	22622
872.008	22649
872.138	22546
872.267	22531
872.397	22500
872.526	22318
872.656	22409
872.785	22421
872.915	22546
873.044	22653
873.173	22634
873.303	22649
873.432	22698
873.561	22736
873.69	22656
873.819	22485
873.948	22717
874.077	22546
874.206	22519
874.335	22675
874.464	22786
874.593	22774
874.722	22786
874.851	22854
874.979	22763
875.108	23037
875.237	22767
875.365	22797
875.494	22839
875.623	22843
875.751	22866
875.88	22858
876.008	22976
876.136	23094
876.265	23360
876.393	23337
876.521	23239
876.65	23296
876.778	23246
876.906	23124
877.034	23086
877.162	23128
877.29	23136
877.418	23223
877.546	23109
877.674	23109
877.802	23216
877.93	23109
878.058	23181
878.185	22972
878.313	23041
878.441	23075
878.568	22942
878.696	23064
878.824	23083
878.951	23212
879.079	23356
879.206	23444
879.333	23353
879.461	23170
879.588	23337
879.715	23227
879.842	23402
879.97	23303
880.097	22972
880.224	23033
880.351	22968
880.478	23037
880.605	22942
880.732	22980
880.859	23246
880.986	22999
881.112	22946
881.239	22835
881.366	22713
881.493	22668
881.619	22527
881.746	22580
881.872	22641
881.999	22523
882.125	22459
882.252	22512
882.378	22478
882.505	22645
882.631	22348
882.757	22223
882.883	22322
883.01	22112
883.136	22143
883.262	22093
883.388	22051
883.514	22287
883.64	22295
883.766	22246
883.892	22078
884.018	21975
884.143	22166
884.269	22287
884.395	21975
884.52	21759
884.646	21941
884.772	21785
884.897	21724
885.023	21812
885.148	21869
885.274	22013
885.399	21964
885.524	21831
885.65	21797
885.775	21888
885.9	21895
886.025	21994
886.15	21907
886.275	21759
886.4	21762
886.525	21724
886.65	21759
886.775	21755
886.9	22036
887.025	22070
887.149	21907
887.274	21709
887.399	21686
887.523	21690
887.648	21568
887.773	21454
887.897	21698
888.021	21622
888.146	21679
888.27	21739
888.395	21743
888.519	21580
888.643	21713
888.767	21766
888.891	21545
889.015	21477
889.139	21549
889.263	21378
889.387	21492
889.511	21530
889.635	21359
889.759	21359
889.883	21355
890.006	21428
890.13	21450
890.254	21473
890.377	21268
890.501	21268
890.624	21192
890.748	21207
890.871	21081
890.995	21066
891.118	20826
891.241	21020
891.364	20933
891.488	21138
891.611	20864
891.734	21104
891.857	20963
891.98	20944
892.103	20960
892.226	20929
892.349	20998
892.471	20804
892.594	20853
892.717	20998
892.839	20788
892.962	20861
893.085	20925
893.207	20849
893.33	20720
893.452	20724
893.575	20910
893.697	20834
893.819	20914
893.941	21013
894.064	20967
894.186	20811
894.308	20823
894.43	20941
894.552	20998
894.674	20979
894.796	20636
894.918	20731
895.04	20876
895.161	20826
895.283	20750
895.405	20826
895.526	20823
895.648	20838
895.769	20876
895.891	20834
896.012	20910
896.134	20956
896.255	20902
896.376	20826
896.498	20899
896.619	20910
896.74	20948
896.861	20937
896.982	21119
897.103	21302
897.224	21176
897.345	21039
897.466	20895
897.587	21070
897.708	21146
897.828	21161
897.949	21005
898.07	20910
898.19	21070
898.311	21062
898.431	20979
898.552	20960
898.672	21146
898.792	21116
898.913	21142
899.033	21020
899.153	20876
899.273	20769
899.393	20804
899.513	20830
899.633	20819
899.753	20769
899.873	20826
899.993	20887
900.113	20651
900.232	20750
900.352	20697
900.472	20560
900.591	20476
900.711	20556
900.83	20530
900.95	20697
901.069	20613
901.189	20465
901.308	20271
901.427	20180
901.546	20218
901.665	20176
901.784	20164
901.904	19936
902.023	19951
902.141	19833
902.26	19674
902.379	19803
902.498	19719
902.617	19582
902.735	19578
902.854	19613
902.973	19529
903.091	19430
903.21	19209
903.328	19266
903.446	19255
903.565	19019
903.683	19198
903.801	19072
903.919	19118
904.038	19050
904.156	18825
904.274	18852
904.392	18901
904.51	18882
904.627	18894
904.745	18920
904.863	18901
904.981	18673
905.098	18574
905.216	18661
905.334	18555
905.451	18582
905.569	18475
905.686	18528
905.803	18460
905.921	18353
906.038	18483
906.155	18311
906.272	18155
906.389	18266
906.506	18049
906.623	18133
906.74	18083
906.857	18072
906.974	17935
907.091	18038
907.208	18182
907.324	18121
907.441	17935
907.557	17977
907.674	17836
907.79	17638
907.907	17840
908.023	17843
908.139	17756
908.256	17729
908.372	17680
908.488	17585
908.604	17524
908.72	17474
908.836	17551
908.952	17433
909.068	17490
909.184	17646
909.3	17482
909.415	17512
909.531	17482
909.647	17284
909.762	17128
909.878	17136
909.993	17212
910.108	17140
910.224	17090
910.339	17166
910.454	17067
910.57	16938
910.685	16911
910.8	17151
910.915	17064
911.03	16980
911.145	16831
911.259	16828
911.374	16740
911.489	16740
911.604	16641
911.718	16569
911.833	16634
911.947	16531
912.062	16428
912.176	16478
912.291	16462
912.405	16462
912.519	16664
912.633	16668
912.748	16451
912.862	16481
912.976	16325
913.09	16242
913.204	16265
913.318	16390
913.431	16478
913.545	16341
913.659	16451
913.772	16299
913.886	16211
914	16101
914.113	16204
914.226	16337
914.34	16112
914.453	16063
914.566	16177
914.68	15994
914.793	15930
914.906	15679
915.019	15717
915.132	15667
915.245	15759
915.358	15717
915.47	15774
915.583	15736
915.696	15713
915.809	15861
915.921	15751
916.034	15663
916.146	15641
916.259	15618
916.371	15629
916.483	15542
916.595	15507
916.708	15519
916.82	15538
916.932	15519
917.044	15500
917.156	15443
917.268	15412
917.38	15382
917.491	15302
917.603	15336
917.715	15466
917.826	15344
917.938	15283
918.049	15123
918.161	15336
918.272	15420
918.384	15313
918.495	15249
918.606	15176
918.717	14956
918.828	15077
918.939	15093
919.05	15043
919.161	15051
919.272	14781
919.383	15009
919.494	15146
919.604	15233
919.715	15093
919.826	14986
919.936	14979
920.047	15150
920.157	15108
920.267	15207
920.378	15062
920.488	14963
920.598	15222
920.708	15256
920.818	15214
920.928	15195
921.038	15370
921.148	15283
921.258	14990
921.368	14891
921.477	14781
921.587	14750
921.697	14625
921.806	14925
921.916	14598
922.025	14423
922.134	14393
922.244	14362
922.353	14434
922.462	14271
922.571	14294
922.68	14126
922.789	13925
922.898	14012
923.007	13913
923.116	13993
923.224	14054
923.333	13982
923.442	13814
923.55	13894
923.659	13871
923.767	13932
923.876	13868
923.984	13841
924.092	13811
924.201	13830
924.309	13830
924.417	13677
924.525	13594
924.633	13772
924.741	14549
924.849	13510
924.956	13624
925.064	13422
925.172	13373
925.279	13335
925.387	13472
925.494	13316
925.602	13597
925.709	13537
925.816	13266
925.924	13312
926.031	13350
926.138	13308
926.245	13426
926.352	13301
926.459	13438
926.566	13441
926.673	13282
926.779	13118
926.886	13103
926.993	13008
927.099	12935
927.206	12962
927.312	12943
927.419	12924
927.525	12928
927.631	12954
927.737	12871
927.843	12726
927.95	12684
928.056	12802
928.162	12787
928.267	12810
928.373	13392
928.479	12840
928.585	12608
928.69	12658
928.796	12719
928.901	12700
929.007	12445
929.112	12620
929.218	12566
929.323	12521
929.428	12555
929.533	12654
929.638	12467
929.743	12380
929.848	12460
929.953	12388
930.058	12277
930.163	12129
930.267	12175
930.372	12327
930.477	12091
930.581	12422
930.685	12133
930.79	12140
930.894	12106
930.998	12098
931.103	12182
931.207	11790
931.311	11661
931.415	11634
931.519	11429
931.623	11414
