Data from test_V78500241_3465.txt Node
Date: Fri Mar 25 15:33:59 CST 2022
User: usil
Spectrometer: V785-0024
Trigger mode: 0
Integration Time (sec): 4.000000E-1
Scans to average: 1
Nonlinearity correction enabled: false
Boxcar width: 0
Storing dark spectrum: false
XAxis mode: Wavelengths
Number of Pixels in Spectrum: 1024
>>>>>Begin Spectral Data<<<<<
801.071	27230
801.214	27245
801.356	27036
801.499	26937
801.641	26914
801.783	26883
801.926	26853
802.068	26811
802.211	26746
802.353	26617
802.496	26575
802.638	26480
802.78	26419
802.923	26419
803.065	26347
803.208	26301
803.35	26465
803.492	26465
803.635	26674
803.777	26412
803.919	26602
804.061	26853
804.204	26617
804.346	26503
804.488	26598
804.63	26564
804.773	26476
804.915	26431
805.057	26727
805.199	26720
805.341	26617
805.483	26750
805.626	26667
805.768	26625
805.91	26686
806.052	26716
806.194	26648
806.336	26830
806.478	26682
806.62	26667
806.762	26804
806.904	26960
807.046	27173
807.188	27089
807.33	27184
807.472	27249
807.614	27005
807.756	26998
807.898	26971
808.04	26902
808.182	26937
808.324	26781
808.465	26895
808.607	27138
808.749	27157
808.891	27218
809.033	27534
809.174	27412
809.316	27294
809.458	27245
809.6	27226
809.741	27329
809.883	27401
810.025	27549
810.166	27587
810.308	27511
810.45	27485
810.591	27492
810.733	27325
810.875	27237
811.016	27192
811.158	27188
811.299	27329
811.441	27408
811.582	27298
811.724	27100
811.865	27066
812.007	27245
812.148	27176
812.29	27355
812.431	27340
812.573	27504
812.714	27633
812.855	27732
812.997	27797
813.138	27903
813.279	27994
813.421	27854
813.562	27690
813.703	27610
813.845	27405
813.986	27085
814.127	27036
814.268	26914
814.41	26990
814.551	26842
814.692	27222
814.833	26883
814.974	26899
815.115	27077
815.256	26773
815.397	26708
815.539	26758
815.68	26701
815.821	26697
815.962	26727
816.103	26731
816.244	26598
816.385	26507
816.526	26495
816.666	26393
816.807	26187
816.948	26374
817.089	26278
817.23	26145
817.371	26138
817.512	26134
817.653	26172
817.793	26119
817.934	26202
818.075	26103
818.216	26313
818.356	26180
818.497	26054
818.638	25936
818.778	26069
818.919	25909
819.06	25989
819.2	26046
819.341	26191
819.481	26145
819.622	26434
819.762	26473
819.903	26629
820.043	26225
820.184	26286
820.324	26317
820.465	26461
820.605	26370
820.746	26210
820.886	26164
821.026	26244
821.167	26157
821.307	26202
821.447	26252
821.588	26157
821.728	25989
821.868	25879
822.008	25700
822.149	25677
822.289	25529
822.429	25449
822.569	25274
822.709	25388
822.849	25103
822.99	25259
823.13	25179
823.27	25263
823.41	25031
823.55	24882
823.69	25107
823.83	25000
823.97	24867
824.11	24700
824.25	24768
824.389	24783
824.529	24878
824.669	24821
824.809	24833
824.949	24852
825.089	24996
825.228	24795
825.368	24620
825.508	24642
825.648	24612
825.787	24570
825.927	24654
826.067	24547
826.206	24681
826.346	24760
826.485	24650
826.625	24673
826.765	24863
826.904	24673
827.044	24460
827.183	24433
827.323	24251
827.462	24445
827.601	24441
827.741	24426
827.88	24414
828.02	24350
828.159	24372
828.298	24410
828.437	24277
828.577	24365
828.716	24490
828.855	24296
828.994	24330
829.134	23984
829.273	24159
829.412	24064
829.551	24026
829.69	24091
829.829	24095
829.968	24201
830.107	24087
830.246	24087
830.385	24057
830.524	23996
830.663	23999
830.802	23885
830.941	23760
831.08	23676
831.219	23771
831.357	23817
831.496	23882
831.635	23756
831.774	23611
831.913	23551
832.051	23482
832.19	23512
832.329	23353
832.467	23376
832.606	23436
832.744	23277
832.883	23376
833.022	23326
833.16	23406
833.299	23364
833.437	23524
833.576	23425
833.714	23474
833.852	23493
833.991	23467
834.129	23501
834.267	23478
834.406	23501
834.544	23543
834.682	23501
834.821	23410
834.959	23642
835.097	23318
835.235	23501
835.373	23406
835.511	23448
835.65	23277
835.788	23337
835.926	23311
836.064	23170
836.202	23128
836.34	23330
836.478	23478
836.615	23364
836.753	23322
836.891	23395
837.029	23379
837.167	23269
837.305	23193
837.443	23265
837.58	23079
837.718	23128
837.856	23166
837.993	23044
838.131	23155
838.269	23048
838.406	23288
838.544	23022
838.681	22782
838.819	22767
838.956	22611
839.094	22729
839.231	22763
839.369	22706
839.506	22999
839.643	22847
839.781	22592
839.918	22588
840.055	22615
840.193	22664
840.33	22618
840.467	22626
840.604	22615
840.742	22790
840.879	22546
841.016	22592
841.153	22470
841.29	22626
841.427	22550
841.564	22672
841.701	22611
841.838	22618
841.975	22436
842.112	22443
842.249	22390
842.385	22398
842.522	22713
842.659	22352
842.796	22356
842.933	22409
843.069	22352
843.206	22211
843.343	22287
843.479	22310
843.616	22375
843.752	22112
843.889	22147
844.025	22360
844.162	22078
844.298	22166
844.435	22135
844.571	22105
844.708	22215
844.844	22207
844.98	22207
845.117	22261
845.253	22070
845.389	21983
845.525	22017
845.661	21983
845.798	21762
845.934	21994
846.07	21956
846.206	21892
846.342	22002
846.478	21793
846.614	21701
846.75	21507
846.886	21766
847.022	21629
847.158	21591
847.294	21583
847.429	21549
847.565	21515
847.701	21857
847.837	21306
847.972	21302
848.108	21389
848.244	21492
848.379	21207
848.515	21237
848.65	21207
848.786	21096
848.921	21260
849.057	21378
849.192	21401
849.328	21195
849.463	21180
849.598	21108
849.734	21226
849.869	20967
850.004	20967
850.14	21051
850.275	20891
850.41	20975
850.545	20861
850.68	20849
850.815	20929
850.95	21028
851.085	21195
851.22	21032
851.355	21017
851.49	20925
851.625	20971
851.76	20944
851.895	20845
852.03	20868
852.165	20998
852.299	20914
852.434	20891
852.569	20891
852.703	20861
852.838	21020
852.973	21024
853.107	21036
853.242	20948
853.376	20811
853.511	20590
853.645	20792
853.78	20887
853.914	20743
854.048	20754
854.183	20811
854.317	20849
854.451	20956
854.585	20762
854.72	20845
854.854	20788
854.988	20678
855.122	20686
855.256	20670
855.39	20750
855.524	20899
855.658	20872
855.792	20868
855.926	20815
856.06	20781
856.194	20834
856.327	20701
856.461	20792
856.595	20632
856.729	20727
856.862	20941
856.996	20708
857.13	20899
857.263	20880
857.397	20910
857.53	20762
857.664	20823
857.797	20849
857.931	20960
858.064	20914
858.197	20963
858.331	20785
858.464	20648
858.597	20663
858.731	20819
858.864	20765
858.997	20811
859.13	20918
859.263	20857
859.396	20876
859.529	20648
859.662	20883
859.795	20716
859.928	20773
860.061	21055
860.194	21024
860.327	20960
860.46	20937
860.592	20982
860.725	21043
860.858	20891
860.99	20823
861.123	20781
861.256	20743
861.388	20838
861.521	21466
861.653	20712
861.786	20587
861.918	20640
862.05	20731
862.183	20663
862.315	20716
862.447	20731
862.58	20785
862.712	20552
862.844	20564
862.976	20796
863.108	20537
863.24	20998
863.372	20457
863.504	20640
863.636	20526
863.768	20522
863.9	20461
864.032	20492
864.164	20541
864.296	20530
864.428	20648
864.559	20571
864.691	20530
864.823	20606
864.954	20495
865.086	20454
865.217	20415
865.349	20385
865.48	20431
865.612	20454
865.743	20568
865.875	20423
866.006	20404
866.137	20423
866.269	20358
866.4	20442
866.531	20336
866.662	20324
866.793	20282
866.924	20324
867.055	20438
867.186	20507
867.317	20298
867.448	20278
867.579	20324
867.71	20339
867.841	20427
867.972	20374
868.103	20317
868.233	20541
868.364	20374
868.495	20404
868.625	20609
868.756	20746
868.886	20594
869.017	20716
869.147	20743
869.278	20773
869.408	20575
869.539	20549
869.669	20712
869.799	20701
869.929	20800
870.06	20788
870.19	20906
870.32	20910
870.45	20944
870.58	20967
870.71	21169
870.84	21123
870.97	21028
871.1	21047
871.23	21192
871.36	21268
871.489	21081
871.619	21150
871.749	21272
871.879	21291
872.008	21252
872.138	21310
872.267	21161
872.397	21089
872.526	20994
872.656	20963
872.785	21058
872.915	21237
873.044	21279
873.173	21184
873.303	21302
873.432	21310
873.561	21405
873.69	21268
873.819	21260
873.948	21268
874.077	21275
874.206	21161
874.335	21321
874.464	21256
874.593	21477
874.722	21477
874.851	21378
874.979	21462
875.108	21599
875.237	21424
875.365	21367
875.494	21439
875.623	21507
875.751	21538
875.88	21401
876.008	21583
876.136	21705
876.265	21945
876.393	22067
876.521	21960
876.65	21991
876.778	21899
876.906	21869
877.034	21774
877.162	21903
877.29	21770
877.418	21888
877.546	21854
877.674	21660
877.802	21903
877.93	21819
878.058	21789
878.185	21660
878.313	21808
878.441	21922
878.568	21641
878.696	21770
878.824	21823
878.951	21934
879.079	22051
879.206	22150
879.333	21979
879.461	21892
879.588	21975
879.715	21915
879.842	22070
879.97	21895
880.097	21751
880.224	21656
880.351	21709
880.478	21656
880.605	21625
880.732	21686
880.859	21880
880.986	21732
881.112	21698
881.239	21606
881.366	21454
881.493	21363
881.619	21230
881.746	21302
881.872	21355
881.999	21325
882.125	21226
882.252	21233
882.378	21230
882.505	21310
882.631	21127
882.757	21001
882.883	21032
883.01	20918
883.136	20891
883.262	20883
883.388	20861
883.514	20914
883.64	21032
883.766	20872
883.892	20823
884.018	20735
884.143	20956
884.269	20994
884.395	20701
884.52	20575
884.646	20625
884.772	20564
884.897	20343
885.023	20655
885.148	20625
885.274	20659
885.399	20735
885.524	20541
885.65	20655
885.775	20617
885.9	20594
886.025	20826
886.15	20655
886.275	20522
886.4	20552
886.525	20499
886.65	20552
886.775	20412
886.9	20746
887.025	20686
887.149	20514
887.274	20404
887.399	20393
887.523	20393
887.648	20278
887.773	20271
887.897	20454
888.021	20347
888.146	20358
888.27	20442
888.395	20549
888.519	20305
888.643	20343
888.767	20446
888.891	20332
889.015	20206
889.139	20259
889.263	20096
889.387	20305
889.511	20400
889.635	20267
889.759	20176
889.883	20199
890.006	20183
890.13	20328
890.254	20065
890.377	20168
890.501	19936
890.624	19898
890.748	20001
890.871	19875
890.995	19780
891.118	19742
891.241	19761
891.364	19757
891.488	19860
891.611	19712
891.734	19822
891.857	19727
891.98	19883
892.103	19837
892.226	19734
892.349	19643
892.471	19529
892.594	19590
892.717	19647
892.839	19609
892.962	19696
893.085	19658
893.207	19731
893.33	19601
893.452	19616
893.575	19742
893.697	19674
893.819	19723
893.941	19780
894.064	19734
894.186	19639
894.308	19567
894.43	19575
894.552	19776
894.674	19795
894.796	19658
894.918	19635
895.04	19594
895.161	19696
895.283	19696
895.405	19521
895.526	19643
895.648	19635
895.769	19708
895.891	19746
896.012	19750
896.134	19731
896.255	19651
896.376	19609
896.498	19807
896.619	19742
896.74	19704
896.861	19811
896.982	19963
897.103	20176
897.224	19875
897.345	19849
897.466	19890
897.587	19788
897.708	19928
897.828	19875
897.949	19913
898.07	19723
898.19	19803
898.311	19947
898.431	19925
898.552	20001
898.672	20012
898.792	19997
898.913	19947
899.033	19837
899.153	19746
899.273	19624
899.393	19605
899.513	19662
899.633	19658
899.753	19700
899.873	19616
899.993	19609
900.113	19571
900.232	19582
900.352	19556
900.472	19449
900.591	19411
900.711	19506
900.83	19312
900.95	19365
901.069	19487
901.189	19407
901.308	19137
901.427	19008
901.546	19008
901.665	18985
901.784	18989
901.904	18856
902.023	18669
902.141	18593
902.26	18502
902.379	18669
902.498	18479
902.617	18570
902.735	18536
902.854	18544
902.973	18544
903.091	18372
903.21	18167
903.328	18205
903.446	18121
903.565	17923
903.683	18121
903.801	17851
903.919	17927
904.038	17942
904.156	17710
904.274	17893
904.392	17775
904.51	17707
904.627	17665
904.745	17859
904.863	17889
904.981	17600
905.098	17509
905.216	17444
905.334	17516
905.451	17524
905.569	17421
905.686	17433
905.803	17387
905.921	17261
906.038	17387
906.155	17254
906.272	17174
906.389	17143
906.506	16892
906.623	17071
906.74	16995
906.857	16881
906.974	16904
907.091	17083
907.208	17212
907.324	17128
907.441	17033
907.557	16725
907.674	16694
907.79	16641
907.907	16679
908.023	16717
908.139	16786
908.256	16713
908.372	16645
908.488	16615
908.604	16428
908.72	16527
908.836	16421
908.952	16306
909.068	16363
909.184	16538
909.3	16443
909.415	16546
909.531	16386
909.647	16280
909.762	16116
909.878	16131
909.993	16158
910.108	16223
910.224	16101
910.339	16063
910.454	16048
910.57	16017
910.685	15857
910.8	16200
910.915	16090
911.03	15934
911.145	15720
911.259	15831
911.374	15766
911.489	15694
911.604	15553
911.718	15584
911.833	15504
911.947	15458
912.062	15317
912.176	15553
912.291	15519
912.405	15519
912.519	15591
912.633	15637
912.748	15469
912.862	15477
912.976	15378
913.09	15291
913.204	15241
913.318	15348
913.431	15466
913.545	15382
913.659	15378
913.772	15211
913.886	15245
914	15154
914.113	15150
914.226	15199
914.34	15233
914.453	14979
914.566	15138
914.68	15032
914.793	15074
914.906	14811
915.019	14849
915.132	14727
915.245	14735
915.358	14891
915.47	14792
915.583	14746
915.696	14773
915.809	14811
915.921	14845
916.034	14701
916.146	14617
916.259	14655
916.371	14781
916.483	14804
916.595	14617
916.708	14621
916.82	14575
916.932	14518
917.044	14499
917.156	14533
917.268	14469
917.38	14507
917.491	14423
917.603	14438
917.715	14503
917.826	14457
917.938	14427
918.049	14271
918.161	14377
918.272	14476
918.384	14530
918.495	14385
918.606	14225
918.717	14195
918.828	14214
918.939	14172
919.05	14012
919.161	14138
919.272	14035
919.383	14005
919.494	14221
919.604	14393
919.715	14195
919.826	14161
919.936	14111
920.047	14172
920.157	14115
920.267	14396
920.378	14206
920.488	14180
920.598	14324
920.708	14419
920.818	14362
920.928	14347
921.038	14415
921.148	14457
921.258	14115
921.368	13913
921.477	13947
921.587	13925
921.697	13719
921.806	13913
921.916	13784
922.025	13647
922.134	13571
922.244	13487
922.353	13620
922.462	13460
922.571	13327
922.68	13240
922.789	13213
922.898	13114
923.007	13137
923.116	13232
923.224	13133
923.333	13168
923.442	13015
923.55	13027
923.659	13027
923.767	13103
923.876	12981
923.984	13046
924.092	12928
924.201	12939
924.309	12966
924.417	12890
924.525	12859
924.633	12878
924.741	13616
924.849	12730
924.956	12726
925.064	12684
925.172	12540
925.279	12574
925.387	12601
925.494	12601
925.602	12871
925.709	12673
925.816	12593
925.924	12616
926.031	12700
926.138	12601
926.245	12707
926.352	12479
926.459	12669
926.566	12730
926.673	12551
926.779	12456
926.886	12327
926.993	12213
927.099	12258
927.206	12209
927.312	12186
927.419	12270
927.525	12197
927.631	12273
927.737	12243
927.843	12011
927.95	11996
928.056	12095
928.162	12057
928.267	12129
928.373	12662
928.479	12106
928.585	11908
928.69	11946
928.796	12060
928.901	11920
929.007	11798
929.112	11965
929.218	11859
929.323	11843
929.428	11764
929.533	11939
929.638	11775
929.743	11703
929.848	11908
929.953	11672
930.058	11668
930.163	11581
930.267	11482
930.372	11653
930.477	11402
930.581	11699
930.685	11509
930.79	11356
930.894	11452
930.998	11360
931.103	11463
931.207	11223
931.311	11136
931.415	10927
931.519	10721
931.623	10820
