Data from test_V78500241_2715.txt Node
Date: Fri Mar 25 15:28:45 CST 2022
User: usil
Spectrometer: V785-0024
Trigger mode: 0
Integration Time (sec): 4.000000E-1
Scans to average: 1
Nonlinearity correction enabled: false
Boxcar width: 0
Storing dark spectrum: false
XAxis mode: Wavelengths
Number of Pixels in Spectrum: 1024
>>>>>Begin Spectral Data<<<<<
801.071	27192
801.214	27081
801.356	26940
801.499	26754
801.641	26826
801.783	26667
801.926	26777
802.068	26750
802.211	26655
802.353	26530
802.496	26442
802.638	26339
802.78	26381
802.923	26415
803.065	26172
803.208	26176
803.35	26343
803.492	26339
803.635	26568
803.777	26495
803.919	26560
804.061	26861
804.204	26644
804.346	26537
804.488	26400
804.63	26442
804.773	26389
804.915	26579
805.057	26545
805.199	26476
805.341	26587
805.483	26621
805.626	26670
805.768	26495
805.91	26678
806.052	26609
806.194	26545
806.336	26773
806.478	26587
806.62	26499
806.762	26785
806.904	26781
807.046	27131
807.188	26944
807.33	27146
807.472	26952
807.614	26842
807.756	27032
807.898	26948
808.04	26804
808.182	26834
808.324	26823
808.465	26857
808.607	27127
808.749	27199
808.891	27359
809.033	27340
809.174	27298
809.316	27142
809.458	27176
809.6	27188
809.741	27218
809.883	27306
810.025	27530
810.166	27466
810.308	27458
810.45	27519
810.591	27378
810.733	27233
810.875	27211
811.016	27112
811.158	27089
811.299	27340
811.441	27405
811.582	27397
811.724	27207
811.865	27192
812.007	27218
812.148	27104
812.29	27093
812.431	27260
812.573	27485
812.714	27496
812.855	27564
812.997	27739
813.138	27953
813.279	27884
813.421	27720
813.562	27656
813.703	27359
813.845	27325
813.986	27093
814.127	26956
814.268	26731
814.41	26765
814.551	26785
814.692	26762
814.833	26765
814.974	26674
815.115	26819
815.256	26819
815.397	26845
815.539	26762
815.68	26632
815.821	26549
815.962	26629
816.103	26564
816.244	26522
816.385	26343
816.526	26457
816.666	26210
816.807	26050
816.948	26275
817.089	26278
817.23	26134
817.371	26035
817.512	26073
817.653	26012
817.793	26031
817.934	26046
818.075	26225
818.216	26210
818.356	25993
818.497	25902
818.638	25959
818.778	25887
818.919	25818
819.06	25925
819.2	25982
819.341	26016
819.481	26218
819.622	26229
819.762	26442
819.903	26381
820.043	26309
820.184	26286
820.324	26168
820.465	26225
820.605	26111
820.746	26149
820.886	26065
821.026	26233
821.167	26157
821.307	26259
821.447	26073
821.588	26069
821.728	25970
821.868	25757
822.008	25609
822.149	25582
822.289	25479
822.429	25411
822.569	25251
822.709	25282
822.849	25038
822.99	25179
823.13	25004
823.27	25084
823.41	24935
823.55	24673
823.69	25031
823.83	24852
823.97	24798
824.11	24604
824.25	24772
824.389	24681
824.529	24856
824.669	24707
824.809	24783
824.949	24684
825.089	24844
825.228	24665
825.368	24448
825.508	24433
825.648	24692
825.787	24650
825.927	24646
826.067	24513
826.206	24410
826.346	24654
826.485	24703
826.625	24589
826.765	24726
826.904	24623
827.044	24471
827.183	24388
827.323	24254
827.462	24258
827.601	24270
827.741	24110
827.88	24338
828.02	24133
828.159	24194
828.298	24224
828.437	24270
828.577	24270
828.716	24315
828.855	24220
828.994	24011
829.134	24068
829.273	24041
829.412	24038
829.551	23927
829.69	23942
829.829	23992
829.968	24110
830.107	24133
830.246	23939
830.385	23996
830.524	23901
830.663	23767
830.802	23767
830.941	23566
831.08	23581
831.219	23642
831.357	23634
831.496	23912
831.635	23649
831.774	23459
831.913	23512
832.051	23421
832.19	23269
832.329	23376
832.467	23170
832.606	23204
832.744	23174
832.883	23322
833.022	23269
833.16	23299
833.299	23265
833.437	23307
833.576	23341
833.714	23395
833.852	23284
833.991	23326
834.129	23360
834.267	23497
834.406	23372
834.544	23273
834.682	23372
834.821	23376
834.959	23543
835.097	23258
835.235	23273
835.373	23246
835.511	23311
835.65	23018
835.788	23140
835.926	23090
836.064	22873
836.202	23060
836.34	23162
836.478	23254
836.615	23064
836.753	23170
836.891	23269
837.029	23159
837.167	23216
837.305	23033
837.443	23105
837.58	23022
837.718	23052
837.856	23060
837.993	22972
838.131	23121
838.269	22885
838.406	23003
838.544	22885
838.681	22839
838.819	22626
838.956	22512
839.094	22584
839.231	22542
839.369	22694
839.506	22904
839.643	22706
839.781	22409
839.918	22394
840.055	22577
840.193	22489
840.33	22493
840.467	22462
840.604	22459
840.742	22698
840.879	22348
841.016	22386
841.153	22314
841.29	22645
841.427	22306
841.564	22504
841.701	22451
841.838	22325
841.975	22428
842.112	22363
842.249	22276
842.385	22325
842.522	22375
842.659	22169
842.796	22166
842.933	22249
843.069	22158
843.206	22105
843.343	22211
843.479	22143
843.616	22253
843.752	21949
843.889	21994
844.025	22051
844.162	21903
844.298	22032
844.435	21968
844.571	21903
844.708	22025
844.844	22124
844.98	21949
845.117	22181
845.253	21895
845.389	21854
845.525	21903
845.661	21876
845.798	21660
845.934	21690
846.07	21656
846.206	21797
846.342	21732
846.478	21618
846.614	21557
846.75	21329
846.886	21420
847.022	21519
847.158	21435
847.294	21458
847.429	21477
847.565	21393
847.701	21686
847.837	21150
847.972	21207
848.108	21291
848.244	21184
848.379	21138
848.515	21127
848.65	21005
848.786	21051
848.921	21096
849.057	21142
849.192	21180
849.328	21077
849.463	21119
849.598	21013
849.734	21039
849.869	20929
850.004	20845
850.14	20876
850.275	20819
850.41	20731
850.545	20727
850.68	20697
850.815	20826
850.95	20807
851.085	20994
851.22	20925
851.355	20807
851.49	20804
851.625	20785
851.76	20792
851.895	20716
852.03	20735
852.165	20686
852.299	20636
852.434	20933
852.569	20925
852.703	20823
852.838	20861
852.973	20971
853.107	20918
853.242	20701
853.376	20686
853.511	20609
853.645	20644
853.78	20659
853.914	20743
854.048	20594
854.183	20594
854.317	20777
854.451	20819
854.585	20648
854.72	20640
854.854	20758
854.988	20590
855.122	20594
855.256	20473
855.39	20621
855.524	20716
855.658	20648
855.792	20636
855.926	20579
856.06	20674
856.194	20670
856.327	20518
856.461	20484
856.595	20575
856.729	20644
856.862	20651
856.996	20693
857.13	20693
857.263	20743
857.397	20758
857.53	20632
857.664	20651
857.797	20670
857.931	20720
858.064	20583
858.197	20785
858.331	20644
858.464	20674
858.597	20488
858.731	20598
858.864	20522
858.997	20579
859.13	20564
859.263	20746
859.396	20727
859.529	20488
859.662	20659
859.795	20564
859.928	20621
860.061	20823
860.194	20826
860.327	20788
860.46	20663
860.592	20727
860.725	20750
860.858	20731
860.99	20663
861.123	20564
861.256	20552
861.388	20526
861.521	21108
861.653	20568
861.786	20377
861.918	20457
862.05	20503
862.183	20629
862.315	20670
862.447	20651
862.58	20549
862.712	20370
862.844	20377
862.976	20499
863.108	20438
863.24	20693
863.372	20187
863.504	20339
863.636	20278
863.768	20419
863.9	20358
864.032	20294
864.164	20206
864.296	20431
864.428	20575
864.559	20381
864.691	20461
864.823	20309
864.954	20419
865.086	20271
865.217	20263
865.349	20145
865.48	20233
865.612	20214
865.743	20355
865.875	20248
866.006	20153
866.137	20256
866.269	20336
866.4	20244
866.531	20221
866.662	20069
866.793	20210
866.924	20111
867.055	20248
867.186	20275
867.317	20294
867.448	20107
867.579	20256
867.71	20115
867.841	20142
867.972	20199
868.103	20122
868.233	20195
868.364	20233
868.495	20377
868.625	20412
868.756	20537
868.886	20431
869.017	20476
869.147	20579
869.278	20434
869.408	20488
869.539	20469
869.669	20549
869.799	20499
869.929	20537
870.06	20575
870.19	20708
870.32	20785
870.45	20811
870.58	20777
870.71	20990
870.84	20819
870.97	20788
871.1	20880
871.23	20944
871.36	21081
871.489	20914
871.619	20895
871.749	20906
871.879	21032
872.008	21112
872.138	21116
872.267	21043
872.397	21017
872.526	20842
872.656	20864
872.785	20906
872.915	21032
873.044	21123
873.173	21127
873.303	21093
873.432	21096
873.561	21017
873.69	21032
873.819	21051
873.948	21116
874.077	21127
874.206	21089
874.335	21062
874.464	21245
874.593	21207
874.722	21329
874.851	21348
874.979	21382
875.108	21370
875.237	21142
875.365	21146
875.494	21272
875.623	21325
875.751	21370
875.88	21492
876.008	21408
876.136	21416
876.265	21728
876.393	21911
876.521	21701
876.65	21724
876.778	21827
876.906	21595
877.034	21755
877.162	21713
877.29	21599
877.418	21595
877.546	21663
877.674	21717
877.802	21507
877.93	21622
878.058	21622
878.185	21583
878.313	21603
878.441	21629
878.568	21500
878.696	21610
878.824	21804
878.951	21713
879.079	21857
879.206	21899
879.333	21876
879.461	21774
879.588	21717
879.715	21766
879.842	21941
879.97	21686
880.097	21397
880.224	21431
880.351	21511
880.478	21519
880.605	21382
880.732	21348
880.859	21694
880.986	21530
881.112	21473
881.239	21340
881.366	21211
881.493	21230
881.619	21192
881.746	21089
881.872	21131
881.999	21036
882.125	20967
882.252	21077
882.378	21009
882.505	21089
882.631	20963
882.757	20750
882.883	20769
883.01	20819
883.136	20712
883.262	20659
883.388	20537
883.514	20689
883.64	20735
883.766	20655
883.892	20632
884.018	20545
884.143	20811
884.269	20792
884.395	20590
884.52	20454
884.646	20469
884.772	20415
884.897	20294
885.023	20393
885.148	20473
885.274	20594
885.399	20415
885.524	20454
885.65	20396
885.775	20461
885.9	20400
886.025	20590
886.15	20488
886.275	20275
886.4	20199
886.525	20301
886.65	20339
886.775	20328
886.9	20499
887.025	20549
887.149	20404
887.274	20202
887.399	20058
887.523	20271
887.648	20221
887.773	20062
887.897	20229
888.021	20294
888.146	20050
888.27	20267
888.395	20263
888.519	20221
888.643	20176
888.767	20278
888.891	20187
889.015	20054
889.139	20081
889.263	20065
889.387	20077
889.511	20134
889.635	20187
889.759	19967
889.883	19997
890.006	19944
890.13	20088
890.254	20012
890.377	19898
890.501	19784
890.624	19723
890.748	19818
890.871	19597
890.995	19586
891.118	19495
891.241	19620
891.364	19510
891.488	19681
891.611	19559
891.734	19582
891.857	19670
891.98	19556
892.103	19704
892.226	19582
892.349	19594
892.471	19346
892.594	19346
892.717	19506
892.839	19495
892.962	19457
893.085	19559
893.207	19510
893.33	19400
893.452	19365
893.575	19487
893.697	19403
893.819	19586
893.941	19693
894.064	19597
894.186	19472
894.308	19400
894.43	19514
894.552	19769
894.674	19586
894.796	19407
894.918	19472
895.04	19358
895.161	19544
895.283	19434
895.405	19396
895.526	19487
895.648	19483
895.769	19468
895.891	19647
896.012	19582
896.134	19472
896.255	19499
896.376	19377
896.498	19514
896.619	19544
896.74	19468
896.861	19400
896.982	19852
897.103	19833
897.224	19708
897.345	19685
897.466	19742
897.587	19689
897.708	19780
897.828	19632
897.949	19556
898.07	19590
898.19	19666
898.311	19757
898.431	19765
898.552	19776
898.672	19738
898.792	19841
898.913	19780
899.033	19677
899.153	19544
899.273	19506
899.393	19529
899.513	19449
899.633	19544
899.753	19552
899.873	19392
899.993	19590
900.113	19480
900.232	19350
900.352	19422
900.472	19293
900.591	19320
900.711	19369
900.83	19118
900.95	19464
901.069	19445
901.189	19198
901.308	18981
901.427	18848
901.546	18943
901.665	18928
901.784	18878
901.904	18749
902.023	18593
902.141	18593
902.26	18452
902.379	18483
902.498	18410
902.617	18395
902.735	18467
902.854	18441
902.973	18338
903.091	18045
903.21	18129
903.328	18095
903.446	18019
903.565	17912
903.683	17870
903.801	17756
903.919	17878
904.038	17775
904.156	17558
904.274	17767
904.392	17729
904.51	17577
904.627	17535
904.745	17589
904.863	17661
904.981	17467
905.098	17292
905.216	17322
905.334	17307
905.451	17284
905.569	17258
905.686	17383
905.803	17162
905.921	17090
906.038	17284
906.155	17174
906.272	17124
906.389	16953
906.506	16824
906.623	16892
906.74	16790
906.857	16831
906.974	16828
907.091	16923
907.208	17071
907.324	16786
907.441	16740
907.557	16558
907.674	16554
907.79	16550
907.907	16421
908.023	16565
908.139	16637
908.256	16447
908.372	16516
908.488	16440
908.604	16314
908.72	16344
908.836	16421
908.952	16352
909.068	16360
909.184	16558
909.3	16261
909.415	16390
909.531	16348
909.647	16063
909.762	16036
909.878	16002
909.993	16051
910.108	16013
910.224	15975
910.339	16032
910.454	15873
910.57	15892
910.685	15728
910.8	16116
910.915	15987
911.03	15808
911.145	15622
911.259	15549
911.374	15671
911.489	15530
911.604	15519
911.718	15367
911.833	15272
911.947	15294
912.062	15256
912.176	15355
912.291	15428
912.405	15401
912.519	15641
912.633	15671
912.748	15435
912.862	15249
912.976	15203
913.09	15161
913.204	15188
913.318	15218
913.431	15321
913.545	15279
913.659	15332
913.772	15154
913.886	15085
914	14918
914.113	15070
914.226	15241
914.34	14979
914.453	14845
914.566	15051
914.68	14925
914.793	14773
914.906	14686
915.019	14632
915.132	14610
915.245	14598
915.358	14701
915.47	14682
915.583	14587
915.696	14686
915.809	14758
915.921	14762
916.034	14621
916.146	14587
916.259	14537
916.371	14674
916.483	14632
916.595	14404
916.708	14473
916.82	14537
916.932	14450
917.044	14461
917.156	14438
917.268	14309
917.38	14320
917.491	14286
917.603	14339
917.715	14339
917.826	14393
917.938	14225
918.049	14096
918.161	14267
918.272	14469
918.384	14438
918.495	14351
918.606	14096
918.717	14031
918.828	14123
918.939	14142
919.05	13986
919.161	13982
919.272	13959
919.383	13856
919.494	14119
919.604	14271
919.715	14142
919.826	14001
919.936	13932
920.047	14035
920.157	14031
920.267	14244
920.378	14073
920.488	13917
920.598	14206
920.708	14370
920.818	14195
920.928	14210
921.038	14267
921.148	14301
921.258	14027
921.368	13944
921.477	13784
921.587	13750
921.697	13651
921.806	13826
921.916	13578
922.025	13533
922.134	13400
922.244	13430
922.353	13449
922.462	13373
922.571	13278
922.68	13175
922.789	13088
922.898	13072
923.007	12939
923.116	13107
923.224	13069
923.333	13057
923.442	12943
923.55	12928
923.659	12916
923.767	12973
923.876	12878
923.984	12920
924.092	12848
924.201	12871
924.309	12802
924.417	12871
924.525	12871
924.633	12722
924.741	13700
924.849	12574
924.956	12673
925.064	12601
925.172	12456
925.279	12464
925.387	12513
925.494	12544
925.602	12616
925.709	12555
925.816	12467
925.924	12452
926.031	12544
926.138	12376
926.245	12540
926.352	12334
926.459	12506
926.566	12540
926.673	12384
926.779	12197
926.886	12178
926.993	12148
927.099	12125
927.206	12076
927.312	12041
927.419	12270
927.525	12144
927.631	12175
927.737	12007
927.843	11954
927.95	11779
928.056	11916
928.162	11969
928.267	11950
928.373	12540
928.479	12079
928.585	11775
928.69	11851
928.796	11859
928.901	11821
929.007	11573
929.112	11775
929.218	11680
929.323	11729
929.428	11764
929.533	11783
929.638	11665
929.743	11596
929.848	11710
929.953	11573
930.058	11436
930.163	11387
930.267	11417
930.372	11501
930.477	11349
930.581	11524
930.685	11478
930.79	11299
930.894	11201
930.998	11201
931.103	11406
931.207	11018
931.311	10972
931.415	10900
931.519	10706
931.623	10599
