Data from test_V78500241_3238.txt Node
Date: Fri Mar 25 15:32:24 CST 2022
User: usil
Spectrometer: V785-0024
Trigger mode: 0
Integration Time (sec): 4.000000E-1
Scans to average: 1
Nonlinearity correction enabled: false
Boxcar width: 0
Storing dark spectrum: false
XAxis mode: Wavelengths
Number of Pixels in Spectrum: 1024
>>>>>Begin Spectral Data<<<<<
801.071	27142
801.214	27112
801.356	26899
801.499	26876
801.641	26853
801.783	26845
801.926	26891
802.068	26743
802.211	26891
802.353	26659
802.496	26617
802.638	26427
802.78	26507
802.923	26317
803.065	26191
803.208	26396
803.35	26389
803.492	26484
803.635	26651
803.777	26480
803.919	26568
804.061	26921
804.204	26602
804.346	26522
804.488	26545
804.63	26549
804.773	26484
804.915	26564
805.057	26651
805.199	26450
805.341	26609
805.483	26762
805.626	26754
805.768	26617
805.91	26785
806.052	26708
806.194	26686
806.336	26853
806.478	26617
806.62	26716
806.762	26842
806.904	26785
807.046	27252
807.188	27218
807.33	27135
807.472	27116
807.614	27085
807.756	27024
807.898	26933
808.04	26948
808.182	26739
808.324	27028
808.465	27001
808.607	27230
808.749	27226
808.891	27408
809.033	27405
809.174	27173
809.316	27378
809.458	27176
809.6	27226
809.741	27336
809.883	27317
810.025	27515
810.166	27515
810.308	27488
810.45	27549
810.591	27515
810.733	27226
810.875	27245
811.016	27146
811.158	27146
811.299	27481
811.441	27427
811.582	27367
811.724	27378
811.865	27173
812.007	27268
812.148	27283
812.29	27184
812.431	27408
812.573	27561
812.714	27606
812.855	27785
812.997	27861
813.138	27842
813.279	27797
813.421	27720
813.562	27713
813.703	27504
813.845	27492
813.986	27150
814.127	27100
814.268	26990
814.41	26800
814.551	26830
814.692	26895
814.833	26876
814.974	26811
815.115	26990
815.256	26834
815.397	26678
815.539	26800
815.68	26792
815.821	26693
815.962	26720
816.103	26693
816.244	26507
816.385	26541
816.526	26427
816.666	26229
816.807	26081
816.948	26237
817.089	26305
817.23	26221
817.371	26275
817.512	26149
817.653	26157
817.793	26130
817.934	26153
818.075	26180
818.216	26206
818.356	26107
818.497	26161
818.638	26039
818.778	25906
818.919	25833
819.06	25963
819.2	26138
819.341	26142
819.481	26122
819.622	26332
819.762	26484
819.903	26343
820.043	26377
820.184	26278
820.324	26298
820.465	26343
820.605	26332
820.746	26275
820.886	26092
821.026	26294
821.167	26195
821.307	26256
821.447	26077
821.588	26008
821.728	26020
821.868	25681
822.008	25693
822.149	25681
822.289	25518
822.429	25487
822.569	25331
822.709	25388
822.849	25126
822.99	25217
823.13	25019
823.27	25023
823.41	25038
823.55	24848
823.69	24962
823.83	25023
823.97	24954
824.11	24753
824.25	24783
824.389	24604
824.529	24871
824.669	24741
824.809	24947
824.949	24962
825.089	24871
825.228	24901
825.368	24703
825.508	24635
825.648	24593
825.787	24711
825.927	24848
826.067	24642
826.206	24642
826.346	24726
826.485	24696
826.625	24639
826.765	24787
826.904	24612
827.044	24502
827.183	24547
827.323	24456
827.462	24285
827.601	24509
827.741	24388
827.88	24262
828.02	24262
828.159	24292
828.298	24353
828.437	24342
828.577	24292
828.716	24426
828.855	24361
828.994	24057
829.134	24049
829.273	24076
829.412	24049
829.551	24057
829.69	24167
829.829	24057
829.968	24216
830.107	24239
830.246	24049
830.385	24087
830.524	23973
830.663	23923
830.802	23707
830.941	23687
831.08	23570
831.219	23863
831.357	23832
831.496	23805
831.635	23642
831.774	23665
831.913	23493
832.051	23570
832.19	23547
832.329	23604
832.467	23299
832.606	23246
832.744	23387
832.883	23353
833.022	23360
833.16	23455
833.299	23497
833.437	23436
833.576	23459
833.714	23296
833.852	23474
833.991	23440
834.129	23562
834.267	23315
834.406	23482
834.544	23539
834.682	23376
834.821	23318
834.959	23596
835.097	23303
835.235	23322
835.373	23444
835.511	23490
835.65	23406
835.788	23227
835.926	23200
836.064	23037
836.202	23223
836.34	23261
836.478	23372
836.615	23307
836.753	23296
836.891	23421
837.029	23360
837.167	23337
837.305	23178
837.443	23242
837.58	23197
837.718	23162
837.856	23166
837.993	23181
838.131	23102
838.269	22946
838.406	23090
838.544	22908
838.681	22786
838.819	22755
838.956	22710
839.094	22554
839.231	22675
839.369	22889
839.506	23124
839.643	22904
839.781	22607
839.918	22417
840.055	22599
840.193	22656
840.33	22561
840.467	22615
840.604	22561
840.742	22896
840.879	22424
841.016	22485
841.153	22413
841.29	22672
841.427	22637
841.564	22710
841.701	22523
841.838	22565
841.975	22554
842.112	22554
842.249	22363
842.385	22474
842.522	22634
842.659	22493
842.796	22230
842.933	22360
843.069	22348
843.206	22253
843.343	22276
843.479	22249
843.616	22257
843.752	22196
843.889	22147
844.025	22158
844.162	22055
844.298	22109
844.435	22082
844.571	22086
844.708	22128
844.844	22268
844.98	22246
845.117	22238
845.253	22048
845.389	21968
845.525	22044
845.661	21907
845.798	21785
845.934	21857
846.07	21823
846.206	21800
846.342	21953
846.478	21835
846.614	21610
846.75	21542
846.886	21644
847.022	21625
847.158	21625
847.294	21663
847.429	21557
847.565	21458
847.701	21800
847.837	21302
847.972	21154
848.108	21313
848.244	21462
848.379	21222
848.515	21173
848.65	21104
848.786	21165
848.921	21180
849.057	21310
849.192	21245
849.328	21279
849.463	21081
849.598	21123
849.734	21195
849.869	20948
850.004	20921
850.14	20967
850.275	21017
850.41	20895
850.545	20921
850.68	20872
850.815	20986
850.95	20910
851.085	21100
851.22	20982
851.355	20975
851.49	20929
851.625	20868
851.76	21020
851.895	20902
852.03	20762
852.165	20994
852.299	21051
852.434	21051
852.569	20967
852.703	21051
852.838	20910
852.973	20982
853.107	20994
853.242	20777
853.376	20868
853.511	20826
853.645	20651
853.78	20876
853.914	20834
854.048	20773
854.183	20773
854.317	20807
854.451	20929
854.585	20792
854.72	20708
854.854	20895
854.988	20651
855.122	20781
855.256	20636
855.39	20724
855.524	20887
855.658	20826
855.792	20746
855.926	20674
856.06	20864
856.194	20857
856.327	20743
856.461	20674
856.595	20781
856.729	20648
856.862	20864
856.996	20807
857.13	20781
857.263	20868
857.397	20963
857.53	20781
857.664	20845
857.797	20788
857.931	20868
858.064	20811
858.197	20891
858.331	20826
858.464	20693
858.597	20674
858.731	20777
858.864	20773
858.997	20811
859.13	20762
859.263	20777
859.396	20906
859.529	20743
859.662	20674
859.795	20701
859.928	20861
860.061	20918
860.194	20948
860.327	20800
860.46	20861
860.592	20895
860.725	21043
860.858	20906
860.99	20686
861.123	20712
861.256	20708
861.388	20716
861.521	21272
861.653	20686
861.786	20625
861.918	20522
862.05	20632
862.183	20670
862.315	20731
862.447	20727
862.58	20750
862.712	20545
862.844	20488
862.976	20682
863.108	20640
863.24	20933
863.372	20549
863.504	20564
863.636	20560
863.768	20526
863.9	20575
864.032	20522
864.164	20431
864.296	20560
864.428	20583
864.559	20579
864.691	20507
864.823	20617
864.954	20545
865.086	20503
865.217	20423
865.349	20362
865.48	20385
865.612	20370
865.743	20526
865.875	20434
866.006	20404
866.137	20355
866.269	20427
866.4	20358
866.531	20358
866.662	20313
866.793	20347
866.924	20423
867.055	20355
867.186	20393
867.317	20149
867.448	20237
867.579	20218
867.71	20252
867.841	20305
867.972	20286
868.103	20267
868.233	20324
868.364	20385
868.495	20412
868.625	20545
868.756	20602
868.886	20434
869.017	20636
869.147	20644
869.278	20788
869.408	20594
869.539	20625
869.669	20689
869.799	20583
869.929	20686
870.06	20583
870.19	20941
870.32	20910
870.45	20857
870.58	20902
870.71	21066
870.84	21024
870.97	20944
871.1	20956
871.23	21176
871.36	21077
871.489	21169
871.619	21192
871.749	21154
871.879	21237
872.008	21351
872.138	21374
872.267	21211
872.397	21017
872.526	21009
872.656	21047
872.785	21013
872.915	21116
873.044	21321
873.173	21184
873.303	21226
873.432	21287
873.561	21344
873.69	21207
873.819	21195
873.948	21272
874.077	21146
874.206	21131
874.335	21268
874.464	21302
874.593	21420
874.722	21317
874.851	21485
874.979	21530
875.108	21496
875.237	21450
875.365	21302
875.494	21408
875.623	21428
875.751	21443
875.88	21408
876.008	21663
876.136	21568
876.265	21873
876.393	22112
876.521	21941
876.65	22006
876.778	21812
876.906	21724
877.034	21907
877.162	21857
877.29	21682
877.418	21979
877.546	21762
877.674	21778
877.802	21854
877.93	21819
878.058	21838
878.185	21679
878.313	21812
878.441	21808
878.568	21553
878.696	21747
878.824	21717
878.951	21701
879.079	21975
879.206	22112
879.333	21892
879.461	21835
879.588	21808
879.715	22036
879.842	21968
879.97	21934
880.097	21625
880.224	21614
880.351	21625
880.478	21663
880.605	21614
880.732	21675
880.859	21793
880.986	21595
881.112	21656
881.239	21389
881.366	21310
881.493	21287
881.619	21161
881.746	21230
881.872	21336
881.999	21138
882.125	21116
882.252	21131
882.378	21230
882.505	21291
882.631	21005
882.757	21020
882.883	21032
883.01	20876
883.136	20868
883.262	20785
883.388	20682
883.514	20967
883.64	20887
883.766	20921
883.892	20674
884.018	20659
884.143	20762
884.269	20937
884.395	20579
884.52	20537
884.646	20663
884.772	20446
884.897	20446
885.023	20606
885.148	20651
885.274	20765
885.399	20777
885.524	20537
885.65	20552
885.775	20571
885.9	20518
886.025	20667
886.15	20617
886.275	20587
886.4	20328
886.525	20530
886.65	20533
886.775	20332
886.9	20537
887.025	20800
887.149	20545
887.274	20389
887.399	20362
887.523	20271
887.648	20286
887.773	20351
887.897	20355
888.021	20358
888.146	20252
888.27	20404
888.395	20415
888.519	20294
888.643	20431
888.767	20377
888.891	20313
889.015	20119
889.139	20069
889.263	20115
889.387	20187
889.511	20324
889.635	20202
889.759	20077
889.883	20092
890.006	20153
890.13	20176
890.254	20012
890.377	20027
890.501	19951
890.624	19852
890.748	19928
890.871	19807
890.995	19662
891.118	19635
891.241	19681
891.364	19700
891.488	19959
891.611	19776
891.734	19693
891.857	19849
891.98	19738
892.103	19731
892.226	19685
892.349	19685
892.471	19556
892.594	19651
892.717	19620
892.839	19521
892.962	19620
893.085	19662
893.207	19613
893.33	19658
893.452	19525
893.575	19696
893.697	19643
893.819	19868
893.941	19788
894.064	19677
894.186	19670
894.308	19677
894.43	19750
894.552	19700
894.674	19628
894.796	19495
894.918	19674
895.04	19662
895.161	19765
895.283	19639
895.405	19464
895.526	19658
895.648	19582
895.769	19594
895.891	19582
896.012	19723
896.134	19651
896.255	19704
896.376	19563
896.498	19578
896.619	19594
896.74	19742
896.861	19575
896.982	19913
897.103	20058
897.224	19986
897.345	19818
897.466	19864
897.587	19913
897.708	19947
897.828	19974
897.949	19890
898.07	19559
898.19	19856
898.311	19932
898.431	19765
898.552	19860
898.672	20012
898.792	19967
898.913	19822
899.033	19677
899.153	19712
899.273	19487
899.393	19647
899.513	19605
899.633	19609
899.753	19635
899.873	19525
899.993	19563
900.113	19590
900.232	19624
900.352	19544
900.472	19510
900.591	19407
900.711	19533
900.83	19270
900.95	19472
901.069	19457
901.189	19251
901.308	19107
901.427	19061
901.546	19023
901.665	18878
901.784	19015
901.904	18848
902.023	18684
902.141	18570
902.26	18486
902.379	18642
902.498	18445
902.617	18521
902.735	18467
902.854	18464
902.973	18563
903.091	18174
903.21	18190
903.328	18129
903.446	18106
903.565	18076
903.683	17901
903.801	17878
903.919	17950
904.038	17878
904.156	17783
904.274	17771
904.392	17699
904.51	17657
904.627	17699
904.745	17764
904.863	17794
904.981	17573
905.098	17539
905.216	17509
905.334	17497
905.451	17512
905.569	17402
905.686	17509
905.803	17387
905.921	17307
906.038	17349
906.155	17231
906.272	17128
906.389	17113
906.506	17071
906.623	16972
906.74	17014
906.857	16908
906.974	16877
907.091	17006
907.208	17086
907.324	17037
907.441	16866
907.557	16740
907.674	16713
907.79	16660
907.907	16588
908.023	16672
908.139	16748
908.256	16573
908.372	16615
908.488	16649
908.604	16584
908.72	16470
908.836	16546
908.952	16348
909.068	16379
909.184	16561
909.3	16386
909.415	16542
909.531	16432
909.647	16192
909.762	16169
909.878	16135
909.993	16135
910.108	16169
910.224	16105
910.339	16131
910.454	16090
910.57	15968
910.685	15865
910.8	16177
910.915	16017
911.03	15922
911.145	15755
911.259	15743
911.374	15827
911.489	15656
911.604	15629
911.718	15454
911.833	15462
911.947	15443
912.062	15348
912.176	15542
912.291	15496
912.405	15393
912.519	15732
912.633	15709
912.748	15564
912.862	15534
912.976	15325
913.09	15131
913.204	15272
913.318	15302
913.431	15458
913.545	15374
913.659	15439
913.772	15138
913.886	15066
914	15112
914.113	15214
914.226	15199
914.34	15112
914.453	14967
914.566	15043
914.68	15058
914.793	14876
914.906	14804
915.019	14762
915.132	14617
915.245	14724
915.358	14739
915.47	14773
915.583	14716
915.696	14693
915.809	14781
915.921	14823
916.034	14613
916.146	14651
916.259	14522
916.371	14648
916.483	14701
916.595	14613
916.708	14537
916.82	14545
916.932	14537
917.044	14454
917.156	14507
917.268	14389
917.38	14396
917.491	14438
917.603	14351
917.715	14469
917.826	14385
917.938	14259
918.049	14256
918.161	14339
918.272	14537
918.384	14457
918.495	14446
918.606	14164
918.717	14065
918.828	14191
918.939	14130
919.05	14027
919.161	14111
919.272	13936
919.383	14039
919.494	14225
919.604	14278
919.715	14008
919.826	14088
919.936	14149
920.047	14206
920.157	14191
920.267	14286
920.378	14142
920.488	14103
920.598	14225
920.708	14465
920.818	14305
920.928	14168
921.038	14431
921.148	14396
921.258	14172
921.368	14027
921.477	13845
921.587	13925
921.697	13784
921.806	13887
921.916	13746
922.025	13597
922.134	13415
922.244	13495
922.353	13597
922.462	13400
922.571	13289
922.68	13198
922.789	13107
922.898	13206
923.007	13183
923.116	13149
923.224	13164
923.333	13156
923.442	13072
923.55	12920
923.659	13114
923.767	13053
923.876	12890
923.984	13103
924.092	12878
924.201	12897
924.309	12973
924.417	12909
924.525	12905
924.633	12878
924.741	13761
924.849	12635
924.956	12707
925.064	12616
925.172	12532
925.279	12551
925.387	12684
925.494	12498
925.602	12719
925.709	12627
925.816	12460
925.924	12464
926.031	12635
926.138	12452
926.245	12532
926.352	12525
926.459	12544
926.566	12650
926.673	12418
926.779	12369
926.886	12350
926.993	12262
927.099	12285
927.206	12114
927.312	12155
927.419	12292
927.525	12197
927.631	12175
927.737	12102
927.843	12083
927.95	11980
928.056	11961
928.162	11980
928.267	12038
928.373	12688
928.479	12095
928.585	11908
928.69	11920
928.796	12015
928.901	11840
929.007	11771
929.112	11821
929.218	11878
929.323	11729
929.428	11809
929.533	11882
929.638	11615
929.743	11737
929.848	11752
929.953	11707
930.058	11573
930.163	11455
930.267	11444
930.372	11589
930.477	11440
930.581	11604
930.685	11512
930.79	11345
930.894	11391
930.998	11231
931.103	11551
931.207	11102
931.311	10934
931.415	10965
931.519	10725
931.623	10714
