Data from test_V78500241_558.txt Node
Date: Fri Mar 25 15:13:44 CST 2022
User: usil
Spectrometer: V785-0024
Trigger mode: 0
Integration Time (sec): 4.000000E-1
Scans to average: 1
Nonlinearity correction enabled: false
Boxcar width: 0
Storing dark spectrum: false
XAxis mode: Wavelengths
Number of Pixels in Spectrum: 1024
>>>>>Begin Spectral Data<<<<<
801.071	27192
801.214	27020
801.356	26754
801.499	26910
801.641	26796
801.783	26606
801.926	26720
802.068	26590
802.211	26533
802.353	26484
802.496	26495
802.638	26256
802.78	26138
802.923	26218
803.065	26225
803.208	26206
803.35	26271
803.492	26374
803.635	26457
803.777	26221
803.919	26442
804.061	26781
804.204	26453
804.346	26404
804.488	26408
804.63	26336
804.773	26294
804.915	26366
805.057	26526
805.199	26453
805.341	26446
805.483	26575
805.626	26499
805.768	26290
805.91	26438
806.052	26587
806.194	26320
806.336	26465
806.478	26492
806.62	26568
806.762	26663
806.904	26853
807.046	26937
807.188	26872
807.33	26674
807.472	26906
807.614	26811
807.756	26868
807.898	26720
808.04	26724
808.182	26807
808.324	26727
808.465	26762
808.607	26925
808.749	27058
808.891	27199
809.033	27310
809.174	27203
809.316	27169
809.458	27135
809.6	27055
809.741	27230
809.883	27283
810.025	27306
810.166	27397
810.308	27439
810.45	27302
810.591	27340
810.733	27116
810.875	27108
811.016	27036
811.158	26956
811.299	27222
811.441	27279
811.582	27249
811.724	26971
811.865	26986
812.007	27066
812.148	27150
812.29	27180
812.431	27211
812.573	27488
812.714	27481
812.855	27519
812.997	27823
813.138	27804
813.279	27937
813.421	27641
813.562	27675
813.703	27545
813.845	27408
813.986	27047
814.127	26921
814.268	26777
814.41	26804
814.551	26807
814.692	26929
814.833	26800
814.974	26697
815.115	26830
815.256	26594
815.397	26617
815.539	26659
815.68	26712
815.821	26613
815.962	26609
816.103	26598
816.244	26488
816.385	26366
816.526	26278
816.666	26115
816.807	26024
816.948	26111
817.089	26054
817.23	26122
817.371	26031
817.512	26096
817.653	26138
817.793	25963
817.934	26069
818.075	26035
818.216	25989
818.356	25913
818.497	25925
818.638	25788
818.778	25674
818.919	25849
819.06	25772
819.2	25947
819.341	26073
819.481	26195
819.622	26218
819.762	26336
819.903	26263
820.043	26256
820.184	26305
820.324	26183
820.465	26290
820.605	26172
820.746	26282
820.886	26050
821.026	26263
821.167	26111
821.307	26183
821.447	26103
821.588	25936
821.728	25837
821.868	25563
822.008	25537
822.149	25559
822.289	25426
822.429	25384
822.569	25278
822.709	25194
822.849	24924
822.99	25012
823.13	24981
823.27	25023
823.41	24844
823.55	24631
823.69	24810
823.83	24848
823.97	24757
824.11	24703
824.25	24544
824.389	24627
824.529	24757
824.669	24681
824.809	24886
824.949	24776
825.089	24703
825.228	24658
825.368	24612
825.508	24570
825.648	24441
825.787	24544
825.927	24475
826.067	24418
826.206	24521
826.346	24433
826.485	24551
826.625	24464
826.765	24642
826.904	24437
827.044	24403
827.183	24315
827.323	24205
827.462	24194
827.601	24235
827.741	24117
827.88	24270
828.02	24072
828.159	24201
828.298	24243
828.437	24319
828.577	24098
828.716	24247
828.855	24117
828.994	23817
829.134	23870
829.273	23821
829.412	23961
829.551	23965
829.69	23855
829.829	23931
829.968	24117
830.107	24068
830.246	23923
830.385	23843
830.524	23931
830.663	23843
830.802	23676
830.941	23608
831.08	23512
831.219	23733
831.357	23547
831.496	23809
831.635	23509
831.774	23535
831.913	23410
832.051	23353
832.19	23311
832.329	23364
832.467	23372
832.606	23334
832.744	23341
832.883	23318
833.022	23212
833.16	23303
833.299	23280
833.437	23315
833.576	23395
833.714	23227
833.852	23414
833.991	23353
834.129	23372
834.267	23345
834.406	23353
834.544	23296
834.682	23284
834.821	23345
834.959	23436
835.097	23265
835.235	23368
835.373	23330
835.511	23227
835.65	23109
835.788	23235
835.926	23189
836.064	23079
836.202	23022
836.34	23159
836.478	23227
836.615	23246
836.753	23147
836.891	23212
837.029	23227
837.167	23064
837.305	22881
837.443	23086
837.58	22984
837.718	23121
837.856	23162
837.993	22892
838.131	23025
838.269	22968
838.406	22904
838.544	22771
838.681	22603
838.819	22611
838.956	22516
839.094	22584
839.231	22531
839.369	22615
839.506	22816
839.643	22752
839.781	22527
839.918	22432
840.055	22485
840.193	22409
840.33	22417
840.467	22219
840.604	22580
840.742	22710
840.879	22398
841.016	22394
841.153	22287
841.29	22531
841.427	22500
841.564	22504
841.701	22367
841.838	22295
841.975	22363
842.112	22329
842.249	22268
842.385	22105
842.522	22382
842.659	22272
842.796	22147
842.933	22158
843.069	22154
843.206	22082
843.343	22299
843.479	22086
843.616	22169
843.752	21991
843.889	21998
844.025	22090
844.162	21926
844.298	22055
844.435	21884
844.571	21884
844.708	21972
844.844	22192
844.98	22074
845.117	22040
845.253	21895
845.389	21762
845.525	21823
845.661	21656
845.798	21720
845.934	21732
846.07	21732
846.206	21804
846.342	21747
846.478	21671
846.614	21523
846.75	21313
846.886	21443
847.022	21485
847.158	21393
847.294	21545
847.429	21568
847.565	21367
847.701	21682
847.837	21310
847.972	21184
848.108	21329
848.244	21222
848.379	21020
848.515	21005
848.65	21077
848.786	21032
848.921	21066
849.057	21173
849.192	21108
849.328	21055
849.463	21074
849.598	20925
849.734	20925
849.869	20811
850.004	20838
850.14	20743
850.275	20727
850.41	20811
850.545	20796
850.68	20864
850.815	20834
850.95	20739
851.085	20891
851.22	21005
851.355	20796
851.49	20796
851.625	20667
851.76	20727
851.895	20727
852.03	20682
852.165	20712
852.299	20735
852.434	20948
852.569	20849
852.703	20765
852.838	20861
852.973	20960
853.107	20902
853.242	20781
853.376	20530
853.511	20598
853.645	20552
853.78	20746
853.914	20575
854.048	20613
854.183	20583
854.317	20739
854.451	20823
854.585	20708
854.72	20636
854.854	20587
854.988	20602
855.122	20686
855.256	20442
855.39	20640
855.524	20750
855.658	20617
855.792	20613
855.926	20686
856.06	20716
856.194	20663
856.327	20632
856.461	20560
856.595	20518
856.729	20625
856.862	20636
856.996	20651
857.13	20640
857.263	20929
857.397	20807
857.53	20731
857.664	20712
857.797	20727
857.931	20712
858.064	20720
858.197	20731
858.331	20568
858.464	20579
858.597	20473
858.731	20556
858.864	20579
858.997	20587
859.13	20613
859.263	20568
859.396	20663
859.529	20594
859.662	20613
859.795	20522
859.928	20632
860.061	20777
860.194	20838
860.327	20590
860.46	20724
860.592	20640
860.725	20697
860.858	20781
860.99	20678
861.123	20659
861.256	20587
861.388	20617
861.521	21534
861.653	20393
861.786	20294
861.918	20423
862.05	20473
862.183	20545
862.315	20590
862.447	20590
862.58	20545
862.712	20370
862.844	20381
862.976	20450
863.108	20355
863.24	20674
863.372	20324
863.504	20305
863.636	20305
863.768	20454
863.9	20317
864.032	20351
864.164	20336
864.296	20377
864.428	20393
864.559	20301
864.691	20495
864.823	20263
864.954	20347
865.086	20336
865.217	20263
865.349	20237
865.48	20271
865.612	20305
865.743	20339
865.875	20290
866.006	20126
866.137	20180
866.269	20221
866.4	20259
866.531	20218
866.662	20195
866.793	20153
866.924	20161
867.055	20187
867.186	20149
867.317	20126
867.448	20088
867.579	20145
867.71	20065
867.841	20035
867.972	20172
868.103	20298
868.233	20164
868.364	20107
868.495	20275
868.625	20488
868.756	20473
868.886	20442
869.017	20419
869.147	20609
869.278	20518
869.408	20393
869.539	20434
869.669	20560
869.799	20377
869.929	20568
870.06	20518
870.19	20724
870.32	20613
870.45	20785
870.58	20689
870.71	20887
870.84	20819
870.97	20819
871.1	20792
871.23	21013
871.36	20975
871.489	20929
871.619	20967
871.749	21020
871.879	21036
872.008	21074
872.138	20918
872.267	20990
872.397	20883
872.526	20819
872.656	20819
872.785	20785
872.915	20914
873.044	21104
873.173	21036
873.303	21070
873.432	21001
873.561	21142
873.69	21100
873.819	20990
873.948	21119
874.077	21024
874.206	21009
874.335	21062
874.464	21108
874.593	21283
874.722	21207
874.851	21325
874.979	21279
875.108	21386
875.237	21249
875.365	21218
875.494	21264
875.623	21348
875.751	21256
875.88	21283
876.008	21294
876.136	21553
876.265	21679
876.393	21835
876.521	21705
876.65	21751
876.778	21648
876.906	21564
877.034	21580
877.162	21743
877.29	21538
877.418	21622
877.546	21641
877.674	21591
877.802	21736
877.93	21587
878.058	21561
878.185	21542
878.313	21557
878.441	21530
878.568	21420
878.696	21507
878.824	21603
878.951	21705
879.079	21857
879.206	21903
879.333	21827
879.461	21671
879.588	21823
879.715	21816
879.842	21880
879.97	21732
880.097	21466
880.224	21439
880.351	21488
880.478	21557
880.605	21454
880.732	21488
880.859	21732
880.986	21447
881.112	21469
881.239	21218
881.366	21195
881.493	21252
881.619	20967
881.746	21024
881.872	21085
881.999	21051
882.125	21036
882.252	20994
882.378	20933
882.505	21150
882.631	20845
882.757	20857
882.883	20765
883.01	20823
883.136	20724
883.262	20651
883.388	20564
883.514	20796
883.64	20853
883.766	20689
883.892	20454
884.018	20583
884.143	20625
884.269	20724
884.395	20404
884.52	20408
884.646	20590
884.772	20396
884.897	20298
885.023	20469
885.148	20381
885.274	20480
885.399	20476
885.524	20438
885.65	20457
885.775	20282
885.9	20381
886.025	20480
886.15	20499
886.275	20427
886.4	20298
886.525	20195
886.65	20355
886.775	20358
886.9	20374
887.025	20632
887.149	20305
887.274	20263
887.399	20237
887.523	20157
887.648	20126
887.773	20046
887.897	20081
888.021	20214
888.146	20111
888.27	20301
888.395	20225
888.519	20206
888.643	20153
888.767	20309
888.891	20065
889.015	20001
889.139	19909
889.263	19974
889.387	19951
889.511	20218
889.635	20164
889.759	20001
889.883	19936
890.006	20027
890.13	19967
890.254	19982
890.377	19940
890.501	19704
890.624	19772
890.748	19818
890.871	19693
890.995	19544
891.118	19548
891.241	19632
891.364	19620
891.488	19700
891.611	19468
891.734	19529
891.857	19689
891.98	19616
892.103	19685
892.226	19548
892.349	19563
892.471	19335
892.594	19457
892.717	19590
892.839	19331
892.962	19502
893.085	19578
893.207	19495
893.33	19373
893.452	19453
893.575	19578
893.697	19445
893.819	19567
893.941	19731
894.064	19556
894.186	19419
894.308	19411
894.43	19521
894.552	19590
894.674	19502
894.796	19415
894.918	19369
895.04	19476
895.161	19472
895.283	19510
895.405	19377
895.526	19502
895.648	19350
895.769	19445
895.891	19495
896.012	19472
896.134	19601
896.255	19510
896.376	19567
896.498	19575
896.619	19578
896.74	19563
896.861	19552
896.982	19814
897.103	19826
897.224	19719
897.345	19666
897.466	19632
897.587	19670
897.708	19852
897.828	19814
897.949	19620
898.07	19521
898.19	19521
898.311	19826
898.431	19559
898.552	19677
898.672	19772
898.792	19750
898.913	19685
899.033	19563
899.153	19445
899.273	19457
899.393	19331
899.513	19441
899.633	19495
899.753	19457
899.873	19377
899.993	19438
900.113	19499
900.232	19411
900.352	19339
900.472	19384
900.591	19076
900.711	19244
900.83	19187
900.95	19419
901.069	19381
901.189	19137
901.308	18977
901.427	18863
901.546	18806
901.665	18954
901.784	18844
901.904	18722
902.023	18642
902.141	18426
902.26	18384
902.379	18445
902.498	18414
902.617	18323
902.735	18384
902.854	18289
902.973	18319
903.091	18152
903.21	18053
903.328	17992
903.446	17973
903.565	17794
903.683	17965
903.801	17794
903.919	17821
904.038	17805
904.156	17528
904.274	17775
904.392	17615
904.51	17661
904.627	17623
904.745	17695
904.863	17733
904.981	17425
905.098	17322
905.216	17315
905.334	17353
905.451	17330
905.569	17239
905.686	17379
905.803	17345
905.921	17075
906.038	17166
906.155	17166
906.272	16999
906.389	17033
906.506	16968
906.623	16847
906.74	16839
906.857	16717
906.974	16679
907.091	16889
907.208	17094
907.324	16847
907.441	16664
907.557	16554
907.674	16550
907.79	16481
907.907	16561
908.023	16462
908.139	16592
908.256	16561
908.372	16569
908.488	16500
908.604	16371
908.72	16272
908.836	16310
908.952	16226
909.068	16268
909.184	16341
909.3	16287
909.415	16257
909.531	16261
909.647	15975
909.762	16166
909.878	15956
909.993	16025
910.108	15953
910.224	15968
910.339	16051
910.454	15854
910.57	15736
910.685	15846
910.8	15907
910.915	15899
911.03	15895
911.145	15629
911.259	15686
911.374	15606
911.489	15462
911.604	15416
911.718	15313
911.833	15355
911.947	15264
912.062	15321
912.176	15401
912.291	15313
912.405	15416
912.519	15504
912.633	15447
912.748	15450
912.862	15348
912.976	15108
913.09	15138
913.204	15214
913.318	15146
913.431	15313
913.545	15226
913.659	15237
913.772	15138
913.886	15009
914	14941
914.113	15020
914.226	15112
914.34	15024
914.453	14937
914.566	15013
914.68	14887
914.793	14826
914.906	14731
915.019	14579
915.132	14530
915.245	14674
915.358	14625
915.47	14655
915.583	14613
915.696	14659
915.809	14689
915.921	14765
916.034	14610
916.146	14598
916.259	14476
916.371	14651
916.483	14552
916.595	14446
916.708	14404
916.82	14461
916.932	14377
917.044	14377
917.156	14275
917.268	14210
917.38	14381
917.491	14233
917.603	14339
917.715	14259
917.826	14415
917.938	14271
918.049	14065
918.161	14183
918.272	14328
918.384	14393
918.495	14221
918.606	14077
918.717	13944
918.828	14020
918.939	14050
919.05	13978
919.161	14157
919.272	13830
919.383	13894
919.494	14020
919.604	14202
919.715	14073
919.826	13890
919.936	14039
920.047	14077
920.157	13947
920.267	14240
920.378	13970
920.488	13959
920.598	14157
920.708	14233
920.818	14180
920.928	14081
921.038	14389
921.148	14244
921.258	13944
921.368	13791
921.477	13803
921.587	13700
921.697	13666
921.806	13723
921.916	13639
922.025	13480
922.134	13453
922.244	13362
922.353	13407
922.462	13274
922.571	13274
922.68	13095
922.789	13114
922.898	13065
923.007	12981
923.116	13091
923.224	13004
923.333	13080
923.442	12886
923.55	12878
923.659	12939
923.767	12962
923.876	12905
923.984	12897
924.092	12802
924.201	12802
924.309	12867
924.417	12867
924.525	12817
924.633	12741
924.741	13472
924.849	12578
924.956	12798
925.064	12570
925.172	12513
925.279	12578
925.387	12608
925.494	12517
925.602	12658
925.709	12547
925.816	12437
925.924	12456
926.031	12601
926.138	12464
926.245	12452
926.352	12365
926.459	12547
926.566	12566
926.673	12292
926.779	12292
926.886	12155
926.993	12095
927.099	12034
927.206	12083
927.312	12053
927.419	12159
927.525	12114
927.631	12110
927.737	11961
927.843	11923
927.95	11843
928.056	11927
928.162	11923
928.267	11965
928.373	12498
928.479	11992
928.585	11733
928.69	11977
928.796	11912
928.901	11813
929.007	11691
929.112	11794
929.218	11775
929.323	11672
929.428	11699
929.533	11737
929.638	11703
929.743	11665
929.848	11714
929.953	11539
930.058	11539
930.163	11433
930.267	11474
930.372	11471
930.477	11330
930.581	11505
930.685	11337
930.79	11349
930.894	11220
930.998	11216
931.103	11349
931.207	11048
931.311	10961
931.415	10812
931.519	10653
931.623	10607
