Data from test_V78500241_3094.txt Node
Date: Fri Mar 25 15:31:24 CST 2022
User: usil
Spectrometer: V785-0024
Trigger mode: 0
Integration Time (sec): 4.000000E-1
Scans to average: 1
Nonlinearity correction enabled: false
Boxcar width: 0
Storing dark spectrum: false
XAxis mode: Wavelengths
Number of Pixels in Spectrum: 1024
>>>>>Begin Spectral Data<<<<<
801.071	27020
801.214	27096
801.356	26659
801.499	26682
801.641	26545
801.783	26453
801.926	26503
802.068	26583
802.211	26541
802.353	26282
802.496	26248
802.638	26237
802.78	26092
802.923	26035
803.065	26126
803.208	26069
803.35	26122
803.492	26286
803.635	26267
803.777	26100
803.919	26324
804.061	26648
804.204	26495
804.346	26210
804.488	26111
804.63	26305
804.773	26275
804.915	26240
805.057	26324
805.199	26248
805.341	26404
805.483	26324
805.626	26457
805.768	26267
805.91	26313
806.052	26480
806.194	26259
806.336	26594
806.478	26332
806.62	26358
806.762	26571
806.904	26651
807.046	26785
807.188	26811
807.33	26819
807.472	26929
807.614	26762
807.756	26708
807.898	26636
808.04	26571
808.182	26453
808.324	26594
808.465	26678
808.607	26807
808.749	26948
808.891	27161
809.033	27039
809.174	26967
809.316	26910
809.458	26963
809.6	26933
809.741	26940
809.883	27104
810.025	27230
810.166	27203
810.308	27249
810.45	27275
810.591	27157
810.733	27047
810.875	27009
811.016	26819
811.158	26880
811.299	27028
811.441	27108
811.582	27077
811.724	26963
811.865	26842
812.007	26944
812.148	26937
812.29	27047
812.431	26940
812.573	27272
812.714	27222
812.855	27340
812.997	27534
813.138	27542
813.279	27523
813.421	27549
813.562	27435
813.703	27192
813.845	27169
813.986	26823
814.127	26583
814.268	26686
814.41	26667
814.551	26655
814.692	26663
814.833	26568
814.974	26473
815.115	26453
815.256	26457
815.397	26393
815.539	26415
815.68	26393
815.821	26442
815.962	26351
816.103	26374
816.244	26252
816.385	26142
816.526	26073
816.666	25982
816.807	25811
816.948	25955
817.089	26035
817.23	25913
817.371	25811
817.512	25868
817.653	25772
817.793	25761
817.934	25677
818.075	25772
818.216	25856
818.356	25841
818.497	25658
818.638	25582
818.778	25556
818.919	25525
819.06	25620
819.2	25693
819.341	25765
819.481	25849
819.622	25875
819.762	26084
819.903	26062
820.043	26001
820.184	26001
820.324	25917
820.465	26062
820.605	25799
820.746	25849
820.886	25852
821.026	25795
821.167	25951
821.307	25986
821.447	25845
821.588	25795
821.728	25563
821.868	25453
822.008	25187
822.149	25206
822.289	25301
822.429	24996
822.569	25015
822.709	25031
822.849	24719
822.99	24783
823.13	24844
823.27	24806
823.41	24559
823.55	24502
823.69	24688
823.83	24608
823.97	24547
824.11	24559
824.25	24433
824.389	24414
824.529	24574
824.669	24502
824.809	24452
824.949	24547
825.089	24456
825.228	24399
825.368	24285
825.508	24232
825.648	24296
825.787	24426
825.927	24433
826.067	24247
826.206	24232
826.346	24410
826.485	24369
826.625	24254
826.765	24418
826.904	24388
827.044	24034
827.183	24190
827.323	24076
827.462	24022
827.601	23946
827.741	24003
827.88	24072
828.02	23760
828.159	23996
828.298	24022
828.437	23973
828.577	23923
828.716	24076
828.855	23824
828.994	23623
829.134	23745
829.273	23710
829.412	23726
829.551	23710
829.69	23604
829.829	23634
829.968	23779
830.107	23771
830.246	23611
830.385	23642
830.524	23577
830.663	23486
830.802	23512
830.941	23273
831.08	23170
831.219	23372
831.357	23364
831.496	23512
831.635	23258
831.774	23178
831.913	23227
832.051	23056
832.19	22927
832.329	23166
832.467	23018
832.606	23094
832.744	22843
832.883	23033
833.022	22995
833.16	22961
833.299	23018
833.437	22934
833.576	23094
833.714	23060
833.852	23208
833.991	23079
834.129	23151
834.267	23060
834.406	23064
834.544	23075
834.682	23083
834.821	22968
834.959	23273
835.097	22961
835.235	23155
835.373	23048
835.511	22953
835.65	22854
835.788	22953
835.926	22896
836.064	22637
836.202	22653
836.34	22938
836.478	23044
836.615	22896
836.753	22824
836.891	22946
837.029	22900
837.167	22740
837.305	22812
837.443	22805
837.58	22694
837.718	22778
837.856	22668
837.993	22706
838.131	22736
838.269	22584
838.406	22660
838.544	22557
838.681	22474
838.819	22451
838.956	22261
839.094	22192
839.231	22276
839.369	22329
839.506	22683
839.643	22421
839.781	22215
839.918	22177
840.055	22093
840.193	22154
840.33	22120
840.467	22280
840.604	22238
840.742	22440
840.879	22025
841.016	22135
841.153	22109
841.29	22211
841.427	22143
841.564	22158
841.701	22173
841.838	22063
841.975	21994
842.112	22158
842.249	22051
842.385	22032
842.522	22112
842.659	22116
842.796	21842
842.933	21838
843.069	21945
843.206	21846
843.343	21941
843.479	21994
843.616	21915
843.752	21682
843.889	21667
844.025	21850
844.162	21762
844.298	21915
844.435	21587
844.571	21720
844.708	21781
844.844	21857
844.98	21797
845.117	21842
845.253	21652
845.389	21473
845.525	21530
845.661	21606
845.798	21416
845.934	21447
846.07	21359
846.206	21439
846.342	21530
846.478	21431
846.614	21165
846.75	21203
846.886	21135
847.022	21218
847.158	21214
847.294	21226
847.429	21313
847.565	21157
847.701	21507
847.837	20906
847.972	20937
848.108	20952
848.244	20929
848.379	20739
848.515	20720
848.65	20682
848.786	20899
848.921	20762
849.057	20895
849.192	20853
849.328	20864
849.463	20678
849.598	20777
849.734	20556
849.869	20617
850.004	20461
850.14	20583
850.275	20499
850.41	20438
850.545	20526
850.68	20518
850.815	20488
850.95	20606
851.085	20667
851.22	20552
851.355	20583
851.49	20503
851.625	20457
851.76	20404
851.895	20484
852.03	20442
852.165	20636
852.299	20530
852.434	20492
852.569	20511
852.703	20507
852.838	20511
852.973	20663
853.107	20651
853.242	20328
853.376	20374
853.511	20210
853.645	20328
853.78	20503
853.914	20355
854.048	20210
854.183	20377
854.317	20526
854.451	20450
854.585	20328
854.72	20431
854.854	20393
854.988	20320
855.122	20286
855.256	20225
855.39	20309
855.524	20488
855.658	20351
855.792	20313
855.926	20465
856.06	20385
856.194	20305
856.327	20237
856.461	20343
856.595	20339
856.729	20381
856.862	20347
856.996	20343
857.13	20381
857.263	20568
857.397	20442
857.53	20351
857.664	20488
857.797	20419
857.931	20541
858.064	20377
858.197	20419
858.331	20377
858.464	20225
858.597	20290
858.731	20317
858.864	20298
858.997	20237
859.13	20389
859.263	20332
859.396	20404
859.529	20385
859.662	20275
859.795	20328
859.928	20446
860.061	20446
860.194	20511
860.327	20431
860.46	20415
860.592	20400
860.725	20423
860.858	20450
860.99	20415
861.123	20317
861.256	20233
861.388	20313
861.521	20746
861.653	20233
861.786	20043
861.918	20149
862.05	20256
862.183	20195
862.315	20298
862.447	20294
862.58	20366
862.712	20046
862.844	20084
862.976	20153
863.108	20195
863.24	20415
863.372	20031
863.504	20157
863.636	20012
863.768	20149
863.9	20199
864.032	19982
864.164	20069
864.296	20039
864.428	20195
864.559	20107
864.691	20202
864.823	19974
864.954	20111
865.086	20073
865.217	19936
865.349	19871
865.48	19925
865.612	20001
865.743	20248
865.875	20081
866.006	19974
866.137	20027
866.269	19849
866.4	19860
866.531	19906
866.662	19921
866.793	19883
866.924	19944
867.055	19856
867.186	19982
867.317	19852
867.448	19887
867.579	19883
867.71	19871
867.841	19856
867.972	19883
868.103	19978
868.233	19849
868.364	19993
868.495	20084
868.625	20130
868.756	20248
868.886	20084
869.017	20103
869.147	20259
869.278	20332
869.408	20199
869.539	20168
869.669	20210
869.799	20229
869.929	20370
870.06	20176
870.19	20355
870.32	20381
870.45	20587
870.58	20552
870.71	20655
870.84	20606
870.97	20689
871.1	20575
871.23	20686
871.36	20682
871.489	20804
871.619	20796
871.749	20796
871.879	20659
872.008	20899
872.138	20842
872.267	20853
872.397	20473
872.526	20705
872.656	20571
872.785	20659
872.915	20804
873.044	20883
873.173	20807
873.303	20834
873.432	20838
873.561	20781
873.69	20731
873.819	20785
873.948	20868
874.077	20735
874.206	20667
874.335	20792
874.464	20876
874.593	21039
874.722	20994
874.851	21001
874.979	21062
875.108	21074
875.237	20921
875.365	20925
875.494	20944
875.623	21119
875.751	21032
875.88	21081
876.008	21245
876.136	21131
876.265	21496
876.393	21633
876.521	21595
876.65	21515
876.778	21458
876.906	21344
877.034	21344
877.162	21283
877.29	21378
877.418	21389
877.546	21454
877.674	21374
877.802	21291
877.93	21386
878.058	21416
878.185	21214
878.313	21344
878.441	21272
878.568	21226
878.696	21294
878.824	21393
878.951	21450
879.079	21534
879.206	21755
879.333	21553
879.461	21393
879.588	21454
879.715	21477
879.842	21622
879.97	21447
880.097	21214
880.224	21275
880.351	21340
880.478	21180
880.605	21302
880.732	21241
880.859	21378
880.986	21272
881.112	21211
881.239	21100
881.366	20925
881.493	20857
881.619	20720
881.746	20876
881.872	20845
881.999	20701
882.125	20667
882.252	20811
882.378	20743
882.505	20929
882.631	20644
882.757	20632
882.883	20556
883.01	20480
883.136	20514
883.262	20400
883.388	20218
883.514	20621
883.64	20549
883.766	20484
883.892	20218
884.018	20328
884.143	20434
884.269	20438
884.395	20210
884.52	20176
884.646	20271
884.772	20069
884.897	20046
885.023	20263
885.148	20271
885.274	20389
885.399	20259
885.524	20096
885.65	20176
885.775	20119
885.9	20161
886.025	20328
886.15	20191
886.275	20100
886.4	20164
886.525	20153
886.65	20065
886.775	20065
886.9	20214
887.025	20377
887.149	20161
887.274	19993
887.399	19955
887.523	19947
887.648	19685
887.773	19928
887.897	20050
888.021	19944
888.146	19982
888.27	19986
888.395	19932
888.519	19947
888.643	20005
888.767	19936
888.891	19894
889.015	19761
889.139	19795
889.263	19651
889.387	19807
889.511	19982
889.635	19925
889.759	19734
889.883	19772
890.006	19727
890.13	19879
890.254	19655
890.377	19647
890.501	19590
890.624	19514
890.748	19571
890.871	19373
890.995	19304
891.118	19278
891.241	19407
891.364	19327
891.488	19377
891.611	19373
891.734	19285
891.857	19487
891.98	19263
892.103	19422
892.226	19362
892.349	19327
892.471	19110
892.594	19088
892.717	19304
892.839	19301
892.962	19183
893.085	19304
893.207	19327
893.33	19110
893.452	19259
893.575	19285
893.697	19206
893.819	19426
893.941	19434
894.064	19445
894.186	19278
894.308	19145
894.43	19320
894.552	19476
894.674	19324
894.796	19308
894.918	19289
895.04	19331
895.161	19373
895.283	19324
895.405	19110
895.526	19278
895.648	19274
895.769	19369
895.891	19198
896.012	19343
896.134	19419
896.255	19289
896.376	19187
896.498	19301
896.619	19247
896.74	19179
896.861	19278
896.982	19563
897.103	19845
897.224	19483
897.345	19525
897.466	19327
897.587	19559
897.708	19670
897.828	19460
897.949	19464
898.07	19320
898.19	19499
898.311	19643
898.431	19453
898.552	19468
898.672	19597
898.792	19639
898.913	19480
899.033	19415
899.153	19377
899.273	19202
899.393	19301
899.513	19426
899.633	19346
899.753	19228
899.873	19122
899.993	19301
900.113	19335
900.232	19156
900.352	19152
900.472	19141
900.591	19069
900.711	19046
900.83	19076
900.95	19107
901.069	19091
901.189	18840
901.308	18810
901.427	18593
901.546	18772
901.665	18768
901.784	18639
901.904	18528
902.023	18418
902.141	18285
902.26	18110
902.379	18205
902.498	18205
902.617	18209
902.735	18262
902.854	18235
902.973	18102
903.091	17961
903.21	17813
903.328	17874
903.446	17764
903.565	17729
903.683	17600
903.801	17547
903.919	17741
904.038	17707
904.156	17551
904.274	17391
904.392	17459
904.51	17512
904.627	17341
904.745	17471
904.863	17497
904.981	17292
905.098	17121
905.216	17181
905.334	17212
905.451	17067
905.569	16942
905.686	17170
905.803	17010
905.921	16953
906.038	16965
906.155	16923
906.272	16820
906.389	16809
906.506	16713
906.623	16641
906.74	16717
906.857	16504
906.974	16603
907.091	16778
907.208	16691
907.324	16668
907.441	16577
907.557	16363
907.674	16421
907.79	16306
907.907	16363
908.023	16424
908.139	16344
908.256	16341
908.372	16291
908.488	16325
908.604	16185
908.72	16139
908.836	16093
908.952	16135
909.068	16131
909.184	16188
909.3	16032
909.415	16154
909.531	16063
909.647	15880
909.762	15747
909.878	15785
909.993	15793
910.108	15717
910.224	15835
910.339	15827
910.454	15751
910.57	15633
910.685	15610
910.8	15835
910.915	15816
911.03	15633
911.145	15393
911.259	15519
911.374	15454
911.489	15386
911.604	15340
911.718	15146
911.833	15135
911.947	15188
912.062	14986
912.176	15241
912.291	15272
912.405	15233
912.519	15428
912.633	15439
912.748	15077
912.862	15161
912.976	14982
913.09	14883
913.204	14921
913.318	15001
913.431	15184
913.545	14967
913.659	15047
913.772	14975
913.886	14769
914	14838
914.113	14880
914.226	14971
914.34	14899
914.453	14686
914.566	14815
914.68	14765
914.793	14697
914.906	14594
915.019	14442
915.132	14408
915.245	14404
915.358	14374
915.47	14423
915.583	14454
915.696	14465
915.809	14602
915.921	14537
916.034	14423
916.146	14328
916.259	14252
916.371	14362
916.483	14358
916.595	14199
916.708	14275
916.82	14332
916.932	14290
917.044	14298
917.156	14195
917.268	14046
917.38	14149
917.491	14088
917.603	14123
917.715	14233
917.826	14172
917.938	14024
918.049	13974
918.161	14096
918.272	14210
918.384	14161
918.495	14084
918.606	13902
918.717	13833
918.828	13826
918.939	13909
919.05	13693
919.161	13894
919.272	13696
919.383	13799
919.494	13887
919.604	13986
919.715	13902
919.826	13738
919.936	13833
920.047	13940
920.157	13818
920.267	14027
920.378	13902
920.488	13894
920.598	14077
920.708	14187
920.818	13932
920.928	14024
921.038	14187
921.148	14145
921.258	13871
921.368	13818
921.477	13670
921.587	13590
921.697	13491
921.806	13624
921.916	13495
922.025	13415
922.134	13221
922.244	13274
922.353	13282
922.462	13156
922.571	13084
922.68	12886
922.789	12943
922.898	12920
923.007	12890
923.116	12977
923.224	12856
923.333	12966
923.442	12787
923.55	12764
923.659	12692
923.767	12719
923.876	12673
923.984	12722
924.092	12623
924.201	12684
924.309	12673
924.417	12719
924.525	12589
924.633	12566
924.741	13559
924.849	12365
924.956	12540
925.064	12410
925.172	12296
925.279	12338
925.387	12395
925.494	12372
925.602	12536
925.709	12353
925.816	12247
925.924	12369
926.031	12460
926.138	12410
926.245	12285
926.352	12243
926.459	12357
926.566	12403
926.673	12277
926.779	12125
926.886	12213
926.993	12019
927.099	11973
927.206	11920
927.312	11889
927.419	11923
927.525	11920
927.631	11920
927.737	11916
927.843	11824
927.95	11703
928.056	11802
928.162	11813
928.267	11809
928.373	12517
928.479	11904
928.585	11634
928.69	11741
928.796	11840
928.901	11653
929.007	11474
929.112	11623
929.218	11596
929.323	11482
929.428	11554
929.533	11657
929.638	11471
929.743	11467
929.848	11528
929.953	11490
930.058	11414
930.163	11250
930.267	11330
930.372	11345
930.477	11242
930.581	11395
930.685	11280
930.79	11105
930.894	11174
930.998	11094
931.103	11212
931.207	10858
931.311	10744
931.415	10706
931.519	10535
931.623	10561
