Data from test_V78500241_2210.txt Node
Date: Fri Mar 25 15:25:15 CST 2022
User: usil
Spectrometer: V785-0024
Trigger mode: 0
Integration Time (sec): 4.000000E-1
Scans to average: 1
Nonlinearity correction enabled: false
Boxcar width: 0
Storing dark spectrum: false
XAxis mode: Wavelengths
Number of Pixels in Spectrum: 1024
>>>>>Begin Spectral Data<<<<<
801.071	27694
801.214	27808
801.356	27720
801.499	27496
801.641	27519
801.783	27466
801.926	27469
802.068	27469
802.211	27447
802.353	27230
802.496	27070
802.638	27047
802.78	27157
802.923	26963
803.065	26895
803.208	27043
803.35	27089
803.492	27294
803.635	27233
803.777	27272
803.919	27218
804.061	27553
804.204	27355
804.346	27222
804.488	27237
804.63	27306
804.773	27211
804.915	27317
805.057	27306
805.199	27279
805.341	27348
805.483	27450
805.626	27405
805.768	27370
805.91	27431
806.052	27481
806.194	27180
806.336	27511
806.478	27454
806.62	27378
806.762	27504
806.904	27629
807.046	27804
807.188	27975
807.33	27892
807.472	27953
807.614	27637
807.756	27785
807.898	27732
808.04	27705
808.182	27724
808.324	27549
808.465	27774
808.607	27979
808.749	28067
808.891	28101
809.033	27994
809.174	28032
809.316	27998
809.458	28063
809.6	27998
809.741	28185
809.883	28185
810.025	28295
810.166	28257
810.308	28265
810.45	28280
810.591	28097
810.733	27953
810.875	27899
811.016	27747
811.158	27850
811.299	27987
811.441	28181
811.582	28139
811.724	28082
811.865	27941
812.007	28082
812.148	28070
812.29	27975
812.431	28143
812.573	28219
812.714	28462
812.855	28573
812.997	28596
813.138	28694
813.279	28599
813.421	28656
813.562	28554
813.703	28352
813.845	28204
813.986	28109
814.127	27918
814.268	27682
814.41	27842
814.551	27671
814.692	27842
814.833	27652
814.974	27515
815.115	27724
815.256	27515
815.397	27679
815.539	27591
815.68	27504
815.821	27443
815.962	27561
816.103	27625
816.244	27237
816.385	27173
816.526	27256
816.666	27138
816.807	26982
816.948	27154
817.089	27085
817.23	26994
817.371	26925
817.512	26952
817.653	26918
817.793	26952
817.934	26971
818.075	26861
818.216	27142
818.356	26986
818.497	26796
818.638	26670
818.778	26758
818.919	26781
819.06	26731
819.2	26937
819.341	27062
819.481	26986
819.622	27009
819.762	27325
819.903	27180
820.043	27119
820.184	27070
820.324	27131
820.465	27051
820.605	27077
820.746	27032
820.886	26971
821.026	26994
821.167	26956
821.307	27077
821.447	27028
821.588	26807
821.728	26864
821.868	26473
822.008	26404
822.149	26556
822.289	26518
822.429	26221
822.569	26134
822.709	26134
822.849	26012
822.99	26024
823.13	25814
823.27	25898
823.41	25772
823.55	25639
823.69	25803
823.83	25864
823.97	25708
824.11	25506
824.25	25540
824.389	25537
824.529	25590
824.669	25578
824.809	25632
824.949	25681
825.089	25525
825.228	25635
825.368	25400
825.508	25392
825.648	25556
825.787	25613
825.927	25468
826.067	25479
826.206	25552
826.346	25449
826.485	25476
826.625	25460
826.765	25540
826.904	25362
827.044	25282
827.183	25179
827.323	25183
827.462	25244
827.601	25145
827.741	25129
827.88	25274
828.02	25038
828.159	25080
828.298	25289
828.437	25198
828.577	25042
828.716	25213
828.855	25091
828.994	24905
829.134	24840
829.273	24882
829.412	24829
829.551	24840
829.69	24970
829.829	24817
829.968	24962
830.107	24989
830.246	24821
830.385	24833
830.524	24810
830.663	24658
830.802	24540
830.941	24574
831.08	24448
831.219	24589
831.357	24566
831.496	24574
831.635	24380
831.774	24410
831.913	24433
832.051	24228
832.19	24171
832.329	24232
832.467	24102
832.606	24098
832.744	24007
832.883	24171
833.022	24076
833.16	24045
833.299	24270
833.437	24159
833.576	24247
833.714	24167
833.852	24194
833.991	24209
834.129	24323
834.267	24308
834.406	24296
834.544	24136
834.682	24117
834.821	24254
834.959	24361
835.097	24171
835.235	24243
835.373	24243
835.511	24087
835.65	24110
835.788	24022
835.926	23798
836.064	23882
836.202	23802
836.34	23958
836.478	24053
836.615	23988
836.753	24076
836.891	24053
837.029	24064
837.167	23942
837.305	23935
837.443	23783
837.58	23893
837.718	23779
837.856	24026
837.993	23843
838.131	23821
838.269	23699
838.406	23817
838.544	23634
838.681	23444
838.819	23391
838.956	23372
839.094	23318
839.231	23303
839.369	23528
839.506	23828
839.643	23608
839.781	23246
839.918	23311
840.055	23246
840.193	23292
840.33	23220
840.467	23258
840.604	23102
840.742	23535
840.879	23098
841.016	23204
841.153	23048
841.29	23360
841.427	23322
841.564	23181
841.701	23265
841.838	23132
841.975	23052
842.112	23216
842.249	23037
842.385	22923
842.522	23159
842.659	23109
842.796	22953
842.933	23041
843.069	22877
843.206	22942
843.343	23037
843.479	22961
843.616	22980
843.752	22820
843.889	22759
844.025	22866
844.162	22771
844.298	22729
844.435	22729
844.571	22713
844.708	22679
844.844	22866
844.98	22706
845.117	22961
845.253	22687
845.389	22588
845.525	22710
845.661	22603
845.798	22405
845.934	22451
846.07	22512
846.206	22656
846.342	22656
846.478	22451
846.614	22261
846.75	22169
846.886	22219
847.022	22261
847.158	22242
847.294	22333
847.429	22181
847.565	22272
847.701	22223
847.837	22025
847.972	22025
848.108	21926
848.244	21987
848.379	21930
848.515	21728
848.65	21819
848.786	21755
848.921	21838
849.057	21964
849.192	21968
849.328	21854
849.463	21705
849.598	21816
849.734	21804
849.869	21698
850.004	21591
850.14	21545
850.275	21652
850.41	21416
850.545	21485
850.68	21583
850.815	21583
850.95	21690
851.085	21728
851.22	21587
851.355	21561
851.49	21538
851.625	21500
851.76	21629
851.895	21485
852.03	21488
852.165	21481
852.299	21576
852.434	21652
852.569	21564
852.703	21488
852.838	21652
852.973	21717
853.107	21625
853.242	21485
853.376	21542
853.511	21230
853.645	21382
853.78	21450
853.914	21370
854.048	21336
854.183	21245
854.317	21450
854.451	21515
854.585	21313
854.72	21294
854.854	21523
854.988	21344
855.122	21382
855.256	21351
855.39	21431
855.524	21504
855.658	21530
855.792	21363
855.926	21435
856.06	21420
856.194	21583
856.327	21401
856.461	21325
856.595	21321
856.729	21378
856.862	21321
856.996	21477
857.13	21473
857.263	21416
857.397	21507
857.53	21405
857.664	21428
857.797	21397
857.931	21622
858.064	21435
858.197	21564
858.331	21405
858.464	21306
858.597	21329
858.731	21256
858.864	21329
858.997	21389
859.13	21386
859.263	21447
859.396	21389
859.529	21348
859.662	21332
859.795	21317
859.928	21401
860.061	21534
860.194	21469
860.327	21321
860.46	21275
860.592	21496
860.725	21481
860.858	21389
860.99	21477
861.123	21275
861.256	21272
861.388	21317
861.521	22128
861.653	21336
861.786	21047
861.918	21203
862.05	21287
862.183	21340
862.315	21336
862.447	21382
862.58	21363
862.712	21055
862.844	21096
862.976	21138
863.108	21100
863.24	21420
863.372	20986
863.504	21070
863.636	21081
863.768	21077
863.9	21154
864.032	21017
864.164	20963
864.296	21062
864.428	21154
864.559	21192
864.691	21180
864.823	21085
864.954	21001
865.086	20933
865.217	21070
865.349	20956
865.48	21043
865.612	20944
865.743	21093
865.875	21036
866.006	20948
866.137	21066
866.269	21028
866.4	21036
866.531	20994
866.662	20823
866.793	20754
866.924	20842
867.055	20921
867.186	21058
867.317	20925
867.448	20796
867.579	20864
867.71	20750
867.841	20986
867.972	20872
868.103	20963
868.233	20834
868.364	21013
868.495	21074
868.625	21142
868.756	21127
868.886	21100
869.017	21135
869.147	21332
869.278	21336
869.408	21116
869.539	21089
869.669	21150
869.799	21264
869.929	21321
870.06	21252
870.19	21370
870.32	21412
870.45	21519
870.58	21462
870.71	21644
870.84	21538
870.97	21625
871.1	21625
871.23	21743
871.36	21724
871.489	21694
871.619	21842
871.749	21766
871.879	21797
872.008	21869
872.138	21728
872.267	21701
872.397	21637
872.526	21572
872.656	21477
872.785	21591
872.915	21743
873.044	21888
873.173	21747
873.303	21827
873.432	21781
873.561	21838
873.69	21759
873.819	21614
873.948	21812
874.077	21717
874.206	21660
874.335	21625
874.464	21781
874.593	21899
874.722	22010
874.851	22051
874.979	22040
875.108	22090
875.237	21884
875.365	22006
875.494	22044
875.623	22063
875.751	21983
875.88	21987
876.008	22086
876.136	22051
876.265	22379
876.393	22489
876.521	22546
876.65	22424
876.778	22329
876.906	22341
877.034	22257
877.162	22333
877.29	22246
877.418	22344
877.546	22280
877.674	22276
877.802	22474
877.93	22371
878.058	22234
878.185	22291
878.313	22379
878.441	22337
878.568	22207
878.696	22238
878.824	22386
878.951	22386
879.079	22474
879.206	22634
879.333	22451
879.461	22531
879.588	22386
879.715	22432
879.842	22630
879.97	22348
880.097	22154
880.224	22070
880.351	22135
880.478	22078
880.605	22002
880.732	22185
880.859	22367
880.986	22112
881.112	22158
881.239	21945
881.366	21911
881.493	21846
881.619	21812
881.746	21739
881.872	21701
881.999	21724
882.125	21637
882.252	21800
882.378	21694
882.505	21861
882.631	21675
882.757	21447
882.883	21549
883.01	21561
883.136	21431
883.262	21386
883.388	21214
883.514	21447
883.64	21389
883.766	21355
883.892	21116
884.018	21184
884.143	21405
884.269	21439
884.395	21146
884.52	21165
884.646	21062
884.772	21039
884.897	20952
885.023	21074
885.148	21173
885.274	21294
885.399	21195
885.524	21062
885.65	21116
885.775	21104
885.9	21070
886.025	21199
886.15	21131
886.275	20994
886.4	20956
886.525	21024
886.65	21032
886.775	20994
886.9	21195
887.025	21173
887.149	21070
887.274	20853
887.399	20963
887.523	20743
887.648	20883
887.773	20705
887.897	20906
888.021	20994
888.146	20720
888.27	21009
888.395	20872
888.519	20929
888.643	20899
888.767	20705
888.891	20758
889.015	20678
889.139	20670
889.263	20678
889.387	20762
889.511	20731
889.635	20762
889.759	20590
889.883	20606
890.006	20648
890.13	20739
890.254	20541
890.377	20708
890.501	20332
890.624	20324
890.748	20366
890.871	20332
890.995	20153
891.118	20176
891.241	20305
891.364	20282
891.488	20187
891.611	20218
891.734	20225
891.857	20286
891.98	20252
892.103	20233
892.226	20164
892.349	20153
892.471	20046
892.594	20077
892.717	20191
892.839	20142
892.962	20157
893.085	20233
893.207	20172
893.33	19947
893.452	19959
893.575	20031
893.697	20149
893.819	20282
893.941	20237
894.064	20180
894.186	20031
894.308	20020
894.43	20210
894.552	20320
894.674	20195
894.796	20149
894.918	20164
895.04	20008
895.161	20180
895.283	20065
895.405	20073
895.526	20157
895.648	20043
895.769	20096
895.891	20210
896.012	20199
896.134	20142
896.255	20092
896.376	20103
896.498	20005
896.619	20168
896.74	20092
896.861	20138
896.982	20492
897.103	20575
897.224	20393
897.345	20328
897.466	20180
897.587	20259
897.708	20465
897.828	20484
897.949	20225
898.07	20206
898.19	20199
898.311	20317
898.431	20305
898.552	20290
898.672	20339
898.792	20514
898.913	20313
899.033	20180
899.153	20259
899.273	20077
899.393	20046
899.513	20115
899.633	20005
899.753	20199
899.873	19963
899.993	20081
900.113	20027
900.232	20073
900.352	19993
900.472	20005
900.591	19799
900.711	19894
900.83	19776
900.95	19959
901.069	19902
901.189	19845
901.308	19537
901.427	19510
901.546	19400
901.665	19403
901.784	19472
901.904	19346
902.023	19168
902.141	18958
902.26	19019
902.379	19072
902.498	18920
902.617	18901
902.735	18920
902.854	18890
902.973	18905
903.091	18688
903.21	18574
903.328	18673
903.446	18551
903.565	18506
903.683	18403
903.801	18330
903.919	18433
904.038	18330
904.156	18239
904.274	18319
904.392	18076
904.51	18095
904.627	18144
904.745	18197
904.863	18201
904.981	17950
905.098	17828
905.216	17904
905.334	17920
905.451	17882
905.569	17798
905.686	17916
905.803	17756
905.921	17615
906.038	17733
906.155	17699
906.272	17554
906.389	17520
906.506	17345
906.623	17387
906.74	17334
906.857	17280
906.974	17269
907.091	17516
907.208	17566
907.324	17406
907.441	17296
907.557	17121
907.674	17086
907.79	17010
907.907	17174
908.023	17193
908.139	17121
908.256	17064
908.372	16946
908.488	16923
908.604	16854
908.72	16858
908.836	16908
908.952	16881
909.068	16759
909.184	16900
909.3	16896
909.415	16911
909.531	16858
909.647	16599
909.762	16523
909.878	16527
909.993	16584
910.108	16546
910.224	16592
910.339	16451
910.454	16421
910.57	16318
910.685	16253
910.8	16459
910.915	16402
911.03	16299
911.145	16158
911.259	16242
911.374	16215
911.489	16017
911.604	15998
911.718	15865
911.833	15915
911.947	15682
912.062	15717
912.176	15915
912.291	15899
912.405	15873
912.519	15998
912.633	15998
912.748	15823
912.862	15797
912.976	15766
913.09	15523
913.204	15648
913.318	15812
913.431	15724
913.545	15838
913.659	15797
913.772	15568
913.886	15420
914	15519
914.113	15568
914.226	15526
914.34	15542
914.453	15428
914.566	15553
914.68	15359
914.793	15287
914.906	15150
915.019	15077
915.132	15032
915.245	15051
915.358	15146
915.47	15203
915.583	15154
915.696	15104
915.809	15222
915.921	15313
916.034	15005
916.146	14990
916.259	14990
916.371	15028
916.483	14971
916.595	14921
916.708	14914
916.82	14933
916.932	14887
917.044	14967
917.156	14872
917.268	14724
917.38	14800
917.491	14819
917.603	14857
917.715	14845
917.826	14777
917.938	14746
918.049	14697
918.161	14590
918.272	14804
918.384	14823
918.495	14667
918.606	14594
918.717	14461
918.828	14518
918.939	14495
919.05	14393
919.161	14518
919.272	14256
919.383	14423
919.494	14537
919.604	14765
919.715	14484
919.826	14377
919.936	14385
920.047	14590
920.157	14374
920.267	14693
920.378	14423
920.488	14499
920.598	14575
920.708	14796
920.818	14590
920.928	14590
921.038	14727
921.148	14682
921.258	14434
921.368	14343
921.477	14259
921.587	14221
921.697	14092
921.806	14157
921.916	14039
922.025	13940
922.134	13734
922.244	13803
922.353	13871
922.462	13750
922.571	13670
922.68	13464
922.789	13506
922.898	13487
923.007	13426
923.116	13502
923.224	13426
923.333	13441
923.442	13388
923.55	13426
923.659	13365
923.767	13403
923.876	13297
923.984	13396
924.092	13244
924.201	13244
924.309	13225
924.417	13247
924.525	13168
924.633	13225
924.741	13970
924.849	12913
924.956	13126
925.064	12935
925.172	12863
925.279	12848
925.387	12935
925.494	12962
925.602	13023
925.709	12920
925.816	12798
925.924	12802
926.031	12970
926.138	12863
926.245	12840
926.352	12802
926.459	12890
926.566	12837
926.673	12715
926.779	12608
926.886	12658
926.993	12536
927.099	12464
927.206	12395
927.312	12410
927.419	12502
927.525	12464
927.631	12540
927.737	12342
927.843	12258
927.95	12232
928.056	12216
928.162	12296
928.267	12346
928.373	12890
928.479	12346
928.585	12213
928.69	12228
928.796	12346
928.901	12213
929.007	11988
929.112	12110
929.218	12117
929.323	11992
929.428	12015
929.533	12159
929.638	11885
929.743	11821
929.848	12133
929.953	11935
930.058	11798
930.163	11703
930.267	11634
930.372	11824
930.477	11695
930.581	11904
930.685	11745
930.79	11600
930.894	11630
930.998	11554
931.103	11718
931.207	11395
931.311	11307
931.415	11231
931.519	11048
931.623	11025
