Data from test_V78500241_1325.txt Node
Date: Fri Mar 25 15:19:04 CST 2022
User: usil
Spectrometer: V785-0024
Trigger mode: 0
Integration Time (sec): 4.000000E-1
Scans to average: 1
Nonlinearity correction enabled: false
Boxcar width: 0
Storing dark spectrum: false
XAxis mode: Wavelengths
Number of Pixels in Spectrum: 1024
>>>>>Begin Spectral Data<<<<<
801.071	28021
801.214	28105
801.356	27850
801.499	27724
801.641	27348
801.783	27644
801.926	27564
802.068	27591
802.211	27481
802.353	27439
802.496	27207
802.638	27150
802.78	27199
802.923	27317
803.065	27165
803.208	27138
803.35	27325
803.492	27313
803.635	27416
803.777	27310
803.919	27344
804.061	27755
804.204	27679
804.346	27386
804.488	27382
804.63	27458
804.773	27450
804.915	27382
805.057	27500
805.199	27587
805.341	27519
805.483	27595
805.626	27606
805.768	27519
805.91	27553
806.052	27580
806.194	27507
806.336	27766
806.478	27473
806.62	27698
806.762	27762
806.904	27930
807.046	28135
807.188	28101
807.33	27895
807.472	28078
807.614	27835
807.756	28067
807.898	27747
808.04	27922
808.182	27888
808.324	27831
808.465	27873
808.607	28021
808.749	28249
808.891	28394
809.033	28386
809.174	28299
809.316	28261
809.458	28246
809.6	28169
809.741	28428
809.883	28280
810.025	28622
810.166	28588
810.308	28497
810.45	28390
810.591	28451
810.733	28234
810.875	28268
811.016	28093
811.158	28154
811.299	28306
811.441	28436
811.582	28398
811.724	28185
811.865	28310
812.007	28177
812.148	28287
812.29	28230
812.431	28481
812.573	28573
812.714	28626
812.855	28641
812.997	28862
813.138	28949
813.279	28869
813.421	28744
813.562	28702
813.703	28542
813.845	28413
813.986	28306
814.127	28048
814.268	27945
814.41	27991
814.551	27907
814.692	28010
814.833	27865
814.974	27804
815.115	27857
815.256	27842
815.397	27895
815.539	27838
815.68	27793
815.821	27675
815.962	27686
816.103	27838
816.244	27545
816.385	27568
816.526	27443
816.666	27424
816.807	27214
816.948	27230
817.089	27370
817.23	27291
817.371	27344
817.512	27150
817.653	27313
817.793	27138
817.934	27112
818.075	27249
818.216	27127
818.356	27176
818.497	27058
818.638	26910
818.778	26998
818.919	26925
819.06	27051
819.2	27283
819.341	27287
819.481	27256
819.622	27450
819.762	27553
819.903	27488
820.043	27431
820.184	27511
820.324	27329
820.465	27287
820.605	27294
820.746	27222
820.886	27142
821.026	27230
821.167	27245
821.307	27310
821.447	27188
821.588	27203
821.728	26998
821.868	26762
822.008	26792
822.149	26606
822.289	26522
822.429	26453
822.569	26358
822.709	26389
822.849	26263
822.99	26267
823.13	26202
823.27	26122
823.41	26012
823.55	25875
823.69	25947
823.83	25970
823.97	25913
824.11	25795
824.25	25662
824.389	25890
824.529	25993
824.669	25822
824.809	26039
824.949	25959
825.089	25913
825.228	25913
825.368	25662
825.508	25704
825.648	25639
825.787	25696
825.927	25814
826.067	25651
826.206	25651
826.346	25624
826.485	25689
826.625	25635
826.765	25791
826.904	25719
827.044	25457
827.183	25540
827.323	25472
827.462	25495
827.601	25445
827.741	25407
827.88	25548
828.02	25289
828.159	25483
828.298	25449
828.437	25434
828.577	25476
828.716	25533
828.855	25331
828.994	25270
829.134	25225
829.273	25015
829.412	25228
829.551	25012
829.69	25133
829.829	25110
829.968	25156
830.107	25217
830.246	25122
830.385	25110
830.524	25069
830.663	24985
830.802	24833
830.941	24696
831.08	24833
831.219	24810
831.357	24878
831.496	25015
831.635	24776
831.774	24681
831.913	24528
832.051	24521
832.19	24391
832.329	24505
832.467	24410
832.606	24384
832.744	24380
832.883	24517
833.022	24296
833.16	24460
833.299	24490
833.437	24384
833.576	24490
833.714	24464
833.852	24414
833.991	24525
834.129	24635
834.267	24445
834.406	24445
834.544	24448
834.682	24486
834.821	24414
834.959	24601
835.097	24403
835.235	24559
835.373	24437
835.511	24391
835.65	24346
835.788	24243
835.926	24266
836.064	24133
836.202	24125
836.34	24319
836.478	24380
836.615	24251
836.753	24311
836.891	24289
837.029	24270
837.167	24304
837.305	24194
837.443	24171
837.58	24003
837.718	24197
837.856	24095
837.993	24178
838.131	24194
838.269	23920
838.406	24133
838.544	24022
838.681	23866
838.819	23695
838.956	23653
839.094	23752
839.231	23638
839.369	23828
839.506	24060
839.643	23916
839.781	23649
839.918	23623
840.055	23604
840.193	23608
840.33	23455
840.467	23592
840.604	23558
840.742	23771
840.879	23334
841.016	23349
841.153	23452
841.29	23589
841.427	23638
841.564	23570
841.701	23604
841.838	23551
841.975	23383
842.112	23353
842.249	23288
842.385	23231
842.522	23433
842.659	23307
842.796	23353
842.933	23239
843.069	23155
843.206	23284
843.343	23368
843.479	23265
843.616	23284
843.752	23075
843.889	23109
844.025	23284
844.162	23033
844.298	23094
844.435	22953
844.571	23010
844.708	23140
844.844	23288
844.98	23162
845.117	23277
845.253	22980
845.389	22949
845.525	23029
845.661	22881
845.798	22767
845.934	22911
846.07	22778
846.206	22805
846.342	22847
846.478	22797
846.614	22508
846.75	22481
846.886	22512
847.022	22557
847.158	22596
847.294	22622
847.429	22424
847.565	22322
847.701	22691
847.837	22291
847.972	22154
848.108	22246
848.244	22322
848.379	22131
848.515	22078
848.65	22150
848.786	22215
848.921	21987
849.057	22223
849.192	22181
849.328	22181
849.463	22158
849.598	21994
849.734	22021
849.869	21987
850.004	21922
850.14	22010
850.275	21854
850.41	21819
850.545	21922
850.68	21789
850.815	21865
850.95	21755
851.085	22105
851.22	21994
851.355	21869
851.49	21895
851.625	21823
851.76	21926
851.895	21694
852.03	21751
852.165	21865
852.299	21857
852.434	21899
852.569	21949
852.703	21880
852.838	21964
852.973	21846
853.107	21998
853.242	21956
853.376	21759
853.511	21568
853.645	21694
853.78	21846
853.914	21648
854.048	21686
854.183	21637
854.317	21816
854.451	21861
854.585	21660
854.72	21652
854.854	21819
854.988	21648
855.122	21629
855.256	21526
855.39	21701
855.524	21797
855.658	21743
855.792	21743
855.926	21644
856.06	21618
856.194	21743
856.327	21686
856.461	21519
856.595	21641
856.729	21671
856.862	21800
856.996	21743
857.13	21663
857.263	21816
857.397	21823
857.53	21690
857.664	21603
857.797	21785
857.931	21842
858.064	21876
858.197	21812
858.331	21682
858.464	21633
858.597	21660
858.731	21610
858.864	21652
858.997	21682
859.13	21656
859.263	21660
859.396	21739
859.529	21599
859.662	21534
859.795	21652
859.928	21633
860.061	21816
860.194	21926
860.327	21747
860.46	21698
860.592	21930
860.725	21816
860.858	21850
860.99	21755
861.123	21675
861.256	21553
861.388	21637
861.521	22386
861.653	21542
861.786	21504
861.918	21454
862.05	21633
862.183	21755
862.315	21519
862.447	21652
862.58	21603
862.712	21386
862.844	21291
862.976	21469
863.108	21507
863.24	21804
863.372	21207
863.504	21416
863.636	21466
863.768	21340
863.9	21393
864.032	21405
864.164	21344
864.296	21469
864.428	21542
864.559	21393
864.691	21393
864.823	21408
864.954	21344
865.086	21363
865.217	21302
865.349	21272
865.48	21317
865.612	21329
865.743	21386
865.875	21230
866.006	21275
866.137	21317
866.269	21367
866.4	21112
866.531	21108
866.662	21203
866.793	21298
866.924	21230
867.055	21287
867.186	21291
867.317	21195
867.448	21131
867.579	21157
867.71	21165
867.841	21096
867.972	21142
868.103	21287
868.233	21245
868.364	21272
868.495	21279
868.625	21348
868.756	21530
868.886	21412
869.017	21336
869.147	21507
869.278	21538
869.408	21424
869.539	21488
869.669	21408
869.799	21469
869.929	21656
870.06	21561
870.19	21781
870.32	21755
870.45	21755
870.58	21880
870.71	21846
870.84	21861
870.97	21865
871.1	21907
871.23	22025
871.36	22013
871.489	22051
871.619	22029
871.749	22025
871.879	22036
872.008	22177
872.138	22078
872.267	22051
872.397	21979
872.526	21819
872.656	21869
872.785	21819
872.915	22063
873.044	22234
873.173	22139
873.303	21991
873.432	22147
873.561	22162
873.69	22051
873.819	22036
873.948	22181
874.077	22143
874.206	22074
874.335	22097
874.464	22177
874.593	22276
874.722	22242
874.851	22310
874.979	22303
875.108	22360
875.237	22341
875.365	22128
875.494	22314
875.623	22333
875.751	22291
875.88	22246
876.008	22451
876.136	22489
876.265	22577
876.393	22828
876.521	22637
876.65	22748
876.778	22763
876.906	22641
877.034	22573
877.162	22664
877.29	22596
877.418	22698
877.546	22596
877.674	22683
877.802	22653
877.93	22649
878.058	22729
878.185	22485
878.313	22592
878.441	22645
878.568	22478
878.696	22573
878.824	22645
878.951	22698
879.079	22790
879.206	22984
879.333	22774
879.461	22554
879.588	22660
879.715	22691
879.842	22896
879.97	22702
880.097	22375
880.224	22565
880.351	22557
880.478	22409
880.605	22398
880.732	22455
880.859	22733
880.986	22424
881.112	22535
881.239	22352
881.366	22230
881.493	22181
881.619	21956
881.746	22105
881.872	21998
881.999	22013
882.125	21930
882.252	22013
882.378	21975
882.505	22196
882.631	21812
882.757	21857
882.883	21842
883.01	21717
883.136	21679
883.262	21591
883.388	21561
883.514	21701
883.64	21701
883.766	21637
883.892	21625
884.018	21519
884.143	21545
884.269	21861
884.395	21545
884.52	21386
884.646	21389
884.772	21283
884.897	21184
885.023	21336
885.148	21397
885.274	21542
885.399	21428
885.524	21397
885.65	21351
885.775	21351
885.9	21336
886.025	21359
886.15	21317
886.275	21268
886.4	21268
886.525	21264
886.65	21184
886.775	21374
886.9	21416
887.025	21469
887.149	21249
887.274	21131
887.399	21123
887.523	21077
887.648	21062
887.773	21043
887.897	21131
888.021	21131
888.146	20963
888.27	21146
888.395	21199
888.519	21165
888.643	21188
888.767	21150
888.891	21100
889.015	20998
889.139	20921
889.263	20868
889.387	21108
889.511	21089
889.635	21013
889.759	20830
889.883	20880
890.006	20807
890.13	21116
890.254	20960
890.377	20796
890.501	20629
890.624	20617
890.748	20746
890.871	20552
890.995	20408
891.118	20282
891.241	20533
891.364	20518
891.488	20629
891.611	20537
891.734	20412
891.857	20480
891.98	20469
892.103	20450
892.226	20511
892.349	20233
892.471	20290
892.594	20374
892.717	20404
892.839	20309
892.962	20351
893.085	20385
893.207	20366
893.33	20290
893.452	20286
893.575	20442
893.697	20240
893.819	20507
893.941	20606
894.064	20507
894.186	20385
894.308	20180
894.43	20286
894.552	20564
894.674	20507
894.796	20153
894.918	20370
895.04	20355
895.161	20400
895.283	20473
895.405	20172
895.526	20465
895.648	20415
895.769	20317
895.891	20370
896.012	20339
896.134	20343
896.255	20450
896.376	20442
896.498	20305
896.619	20450
896.74	20423
896.861	20412
896.982	20621
897.103	20777
897.224	20663
897.345	20560
897.466	20533
897.587	20629
897.708	20746
897.828	20727
897.949	20552
898.07	20438
898.19	20495
898.311	20552
898.431	20518
898.552	20579
898.672	20617
898.792	20727
898.913	20568
899.033	20499
899.153	20427
899.273	20252
899.393	20206
899.513	20313
899.633	20389
899.753	20377
899.873	20282
899.993	20336
900.113	20138
900.232	20176
900.352	20229
900.472	20134
900.591	20008
900.711	20088
900.83	20161
900.95	20134
901.069	20149
901.189	19970
901.308	19761
901.427	19651
901.546	19738
901.665	19647
901.784	19727
901.904	19590
902.023	19419
902.141	19297
902.26	19247
902.379	19369
902.498	19221
902.617	19076
902.735	19209
902.854	19225
902.973	19065
903.091	18886
903.21	18890
903.328	18875
903.446	18741
903.565	18608
903.683	18635
903.801	18536
903.919	18642
904.038	18631
904.156	18467
904.274	18483
904.392	18361
904.51	18376
904.627	18330
904.745	18467
904.863	18456
904.981	18106
905.098	18083
905.216	18091
905.334	18087
905.451	18079
905.569	18114
905.686	18125
905.803	18174
905.921	17927
906.038	17965
906.155	18011
906.272	17737
906.389	17809
906.506	17710
906.623	17638
906.74	17570
906.857	17589
906.974	17554
907.091	17630
907.208	17771
907.324	17653
907.441	17493
907.557	17269
907.674	17349
907.79	17246
907.907	17231
908.023	17318
908.139	17372
908.256	17296
908.372	17178
908.488	17178
908.604	17086
908.72	16987
908.836	17060
908.952	17067
909.068	17056
909.184	17159
909.3	16999
909.415	17083
909.531	16999
909.647	16843
909.762	16763
909.878	16801
909.993	16729
910.108	16713
910.224	16687
910.339	16828
910.454	16504
910.57	16603
910.685	16542
910.8	16706
910.915	16736
911.03	16618
911.145	16424
911.259	16398
911.374	16409
911.489	16242
911.604	16318
911.718	16078
911.833	16101
911.947	16032
912.062	16097
912.176	16017
912.291	16109
912.405	16150
912.519	16192
912.633	16128
912.748	16086
912.862	15998
912.976	15960
913.09	15835
913.204	15892
913.318	15945
913.431	16082
913.545	15975
913.659	15953
913.772	15918
913.886	15724
914	15713
914.113	15766
914.226	15865
914.34	15686
914.453	15614
914.566	15797
914.68	15549
914.793	15614
914.906	15336
915.019	15310
915.132	15302
915.245	15313
915.358	15325
915.47	15348
915.583	15302
915.696	15363
915.809	15469
915.921	15519
916.034	15272
916.146	15222
916.259	15268
916.371	15252
916.483	15245
916.595	15108
916.708	15013
916.82	15119
916.932	15089
917.044	15108
917.156	15001
917.268	14944
917.38	14937
917.491	14876
917.603	15009
917.715	15001
917.826	15154
917.938	14883
918.049	14838
918.161	14785
918.272	14956
918.384	14941
918.495	14944
918.606	14697
918.717	14659
918.828	14727
918.939	14705
919.05	14568
919.161	14750
919.272	14461
919.383	14602
919.494	14746
919.604	14887
919.715	14769
919.826	14568
919.936	14590
920.047	14724
920.157	14549
920.267	14868
920.378	14651
920.488	14667
920.598	14830
920.708	14941
920.818	14842
920.928	14739
921.038	14929
921.148	14845
921.258	14568
921.368	14549
921.477	14499
921.587	14328
921.697	14259
921.806	14431
921.916	14191
922.025	14084
922.134	13986
922.244	14043
922.353	14008
922.462	13917
922.571	13852
922.68	13734
922.789	13594
922.898	13696
923.007	13620
923.116	13750
923.224	13605
923.333	13731
923.442	13632
923.55	13502
923.659	13540
923.767	13677
923.876	13457
923.984	13582
924.092	13335
924.201	13434
924.309	13373
924.417	13354
924.525	13388
924.633	13293
924.741	14256
924.849	13099
924.956	13228
925.064	13160
925.172	13057
925.279	13133
925.387	13080
925.494	13141
925.602	13236
925.709	13076
925.816	12989
925.924	13133
926.031	13099
926.138	13042
926.245	13114
926.352	12932
926.459	13057
926.566	13076
926.673	12973
926.779	12875
926.886	12810
926.993	12673
927.099	12639
927.206	12635
927.312	12635
927.419	12665
927.525	12544
927.631	12719
927.737	12589
927.843	12547
927.95	12380
928.056	12410
928.162	12452
928.267	12509
928.373	13107
928.479	12601
928.585	12308
928.69	12369
928.796	12448
928.901	12357
929.007	12254
929.112	12361
929.218	12296
929.323	12186
929.428	12209
929.533	12300
929.638	12133
929.743	12205
929.848	12216
929.953	12095
930.058	11996
930.163	11859
930.267	11866
930.372	11984
930.477	11783
930.581	12095
930.685	11855
930.79	11764
930.894	11726
930.998	11783
931.103	11870
931.207	11486
931.311	11425
931.415	11242
931.519	11090
931.623	11162
