Data from test_V78500241_2573.txt Node
Date: Fri Mar 25 15:27:46 CST 2022
User: usil
Spectrometer: V785-0024
Trigger mode: 0
Integration Time (sec): 4.000000E-1
Scans to average: 1
Nonlinearity correction enabled: false
Boxcar width: 0
Storing dark spectrum: false
XAxis mode: Wavelengths
Number of Pixels in Spectrum: 1024
>>>>>Begin Spectral Data<<<<<
801.071	27469
801.214	27211
801.356	26990
801.499	26910
801.641	27005
801.783	26891
801.926	26872
802.068	26914
802.211	26674
802.353	26735
802.496	26602
802.638	26427
802.78	26465
802.923	26400
803.065	26343
803.208	26336
803.35	26400
803.492	26511
803.635	26693
803.777	26545
803.919	26727
804.061	26986
804.204	26720
804.346	26575
804.488	26457
804.63	26613
804.773	26434
804.915	26682
805.057	26823
805.199	26617
805.341	26727
805.483	26754
805.626	26716
805.768	26689
805.91	26819
806.052	26834
806.194	26701
806.336	26861
806.478	26651
806.62	26739
806.762	26944
806.904	27066
807.046	27226
807.188	27260
807.33	27161
807.472	27264
807.614	26998
807.756	27222
807.898	26948
808.04	26921
808.182	26956
808.324	27055
808.465	27009
808.607	27131
808.749	27279
808.891	27492
809.033	27405
809.174	27302
809.316	27332
809.458	27211
809.6	27351
809.741	27447
809.883	27519
810.025	27625
810.166	27622
810.308	27603
810.45	27450
810.591	27412
810.733	27302
810.875	27329
811.016	27256
811.158	27275
811.299	27500
811.441	27435
811.582	27549
811.724	27268
811.865	27256
812.007	27374
812.148	27294
812.29	27393
812.431	27500
812.573	27641
812.714	27778
812.855	27785
812.997	27888
813.138	28109
813.279	27907
813.421	27819
813.562	27804
813.703	27572
813.845	27492
813.986	27233
814.127	27127
814.268	26979
814.41	26979
814.551	27066
814.692	26948
814.833	27013
814.974	26883
815.115	27001
815.256	26880
815.397	26769
815.539	26823
815.68	26781
815.821	26762
815.962	26807
816.103	26807
816.244	26640
816.385	26663
816.526	26518
816.666	26332
816.807	26389
816.948	26355
817.089	26507
817.23	26271
817.371	26355
817.512	26176
817.653	26187
817.793	26107
817.934	26221
818.075	26317
818.216	26332
818.356	26252
818.497	26191
818.638	25959
818.778	25955
818.919	25963
819.06	26088
819.2	26210
819.341	26214
819.481	26172
819.622	26457
819.762	26503
819.903	26533
820.043	26408
820.184	26317
820.324	26374
820.465	26549
820.605	26324
820.746	26221
820.886	26161
821.026	26385
821.167	26145
821.307	26415
821.447	26290
821.588	26278
821.728	26024
821.868	25864
822.008	25753
822.149	25868
822.289	25693
822.429	25472
822.569	25510
822.709	25518
822.849	25263
822.99	25278
823.13	25137
823.27	25187
823.41	25194
823.55	24992
823.69	25038
823.83	25076
823.97	24958
824.11	24886
824.25	24798
824.389	24791
824.529	24970
824.669	24939
824.809	25019
824.949	24890
825.089	24992
825.228	24924
825.368	24867
825.508	24722
825.648	24696
825.787	24684
825.927	24798
826.067	24719
826.206	24840
826.346	24894
826.485	24798
826.625	24821
826.765	24829
826.904	24875
827.044	24639
827.183	24578
827.323	24479
827.462	24513
827.601	24494
827.741	24502
827.88	24479
828.02	24372
828.159	24498
828.298	24502
828.437	24528
828.577	24486
828.716	24631
828.855	24528
828.994	24273
829.134	24213
829.273	24258
829.412	24117
829.551	24167
829.69	24182
829.829	24239
829.968	24357
830.107	24304
830.246	24110
830.385	24194
830.524	24076
830.663	23969
830.802	24003
830.941	23874
831.08	23767
831.219	23874
831.357	23988
831.496	24030
831.635	23752
831.774	23687
831.913	23562
832.051	23615
832.19	23630
832.329	23665
832.467	23531
832.606	23482
832.744	23455
832.883	23558
833.022	23471
833.16	23467
833.299	23539
833.437	23474
833.576	23531
833.714	23630
833.852	23619
833.991	23547
834.129	23668
834.267	23722
834.406	23596
834.544	23531
834.682	23577
834.821	23676
834.959	23756
835.097	23543
835.235	23566
835.373	23581
835.511	23547
835.65	23455
835.788	23516
835.926	23322
836.064	23132
836.202	23315
836.34	23417
836.478	23509
836.615	23440
836.753	23376
836.891	23501
837.029	23524
837.167	23307
837.305	23185
837.443	23280
837.58	23273
837.718	23391
837.856	23372
837.993	23235
838.131	23387
838.269	23155
838.406	23231
838.544	23170
838.681	22824
838.819	22885
838.956	22710
839.094	22904
839.231	22850
839.369	23041
839.506	23185
839.643	23041
839.781	22843
839.918	22733
840.055	22771
840.193	22767
840.33	22706
840.467	22778
840.604	22755
840.742	23052
840.879	22470
841.016	22694
841.153	22637
841.29	22755
841.427	22717
841.564	22733
841.701	22740
841.838	22679
841.975	22679
842.112	22565
842.249	22691
842.385	22459
842.522	22679
842.659	22554
842.796	22386
842.933	22478
843.069	22276
843.206	22284
843.343	22394
843.479	22432
843.616	22538
843.752	22185
843.889	22166
844.025	22310
844.162	22200
844.298	22192
844.435	22223
844.571	22135
844.708	22226
844.844	22310
844.98	22432
845.117	22291
845.253	22124
845.389	22097
845.525	22185
845.661	22135
845.798	22074
845.934	21956
846.07	22051
846.206	22044
846.342	22070
846.478	21857
846.614	21762
846.75	21591
846.886	21717
847.022	21743
847.158	21759
847.294	21739
847.429	21926
847.565	21583
847.701	21934
847.837	21549
847.972	21386
848.108	21454
848.244	21477
848.379	21287
848.515	21188
848.65	21203
848.786	21260
848.921	21226
849.057	21420
849.192	21389
849.328	21279
849.463	21207
849.598	21222
849.734	21188
849.869	21146
850.004	21074
850.14	21131
850.275	21138
850.41	20994
850.545	20975
850.68	21013
850.815	21020
850.95	21150
851.085	21150
851.22	21077
851.355	21093
851.49	21009
851.625	20887
851.76	20986
851.895	20979
852.03	20941
852.165	21089
852.299	21062
852.434	21150
852.569	21077
852.703	21100
852.838	21085
852.973	21211
853.107	21192
853.242	20982
853.376	20811
853.511	20689
853.645	20868
853.78	20998
853.914	20826
854.048	20819
854.183	20807
854.317	20914
854.451	20963
854.585	20918
854.72	20921
854.854	20899
854.988	20804
855.122	20929
855.256	20785
855.39	20834
855.524	21017
855.658	20876
855.792	20800
855.926	20971
856.06	20906
856.194	21013
856.327	20800
856.461	20876
856.595	20876
856.729	20815
856.862	21043
856.996	20891
857.13	20880
857.263	20891
857.397	20906
857.53	20864
857.664	20963
857.797	20990
857.931	20960
858.064	20895
858.197	20960
858.331	20731
858.464	20861
858.597	20788
858.731	20830
858.864	20765
858.997	20838
859.13	20899
859.263	20902
859.396	20956
859.529	20792
859.662	20845
859.795	20925
859.928	20838
860.061	20956
860.194	20975
860.327	20986
860.46	20941
860.592	20967
860.725	20990
860.858	20967
860.99	20868
861.123	20807
861.256	20678
861.388	20891
861.521	21435
861.653	20769
861.786	20678
861.918	20644
862.05	20678
862.183	20815
862.315	20777
862.447	20872
862.58	20819
862.712	20693
862.844	20518
862.976	20712
863.108	20594
863.24	21089
863.372	20556
863.504	20530
863.636	20560
863.768	20663
863.9	20629
864.032	20541
864.164	20526
864.296	20670
864.428	20674
864.559	20590
864.691	20651
864.823	20651
864.954	20549
865.086	20659
865.217	20511
865.349	20488
865.48	20446
865.612	20640
865.743	20530
865.875	20495
866.006	20503
866.137	20469
866.269	20511
866.4	20396
866.531	20533
866.662	20499
866.793	20499
866.924	20461
867.055	20511
867.186	20606
867.317	20396
867.448	20419
867.579	20495
867.71	20385
867.841	20408
867.972	20575
868.103	20374
868.233	20454
868.364	20461
868.495	20579
868.625	20659
868.756	20807
868.886	20689
869.017	20617
869.147	20663
869.278	20762
869.408	20712
869.539	20781
869.669	20659
869.799	20590
869.929	20857
870.06	20636
870.19	21055
870.32	20918
870.45	21047
870.58	21039
870.71	21154
870.84	21150
870.97	21100
871.1	21055
871.23	21211
871.36	21310
871.489	21154
871.619	21154
871.749	21226
871.879	21252
872.008	21374
872.138	21306
872.267	21370
872.397	21142
872.526	21089
872.656	21100
872.785	21032
872.915	21275
873.044	21306
873.173	21214
873.303	21370
873.432	21351
873.561	21306
873.69	21260
873.819	21298
873.948	21310
874.077	21317
874.206	21287
874.335	21218
874.464	21386
874.593	21466
874.722	21473
874.851	21481
874.979	21443
875.108	21496
875.237	21420
875.365	21359
875.494	21458
875.623	21564
875.751	21473
875.88	21622
876.008	21610
876.136	21580
876.265	21922
876.393	22154
876.521	22128
876.65	22021
876.778	21861
876.906	21770
877.034	21846
877.162	21941
877.29	21903
877.418	21869
877.546	21991
877.674	21812
877.802	21953
877.93	21819
878.058	21903
878.185	21770
878.313	21846
878.441	21819
878.568	21842
878.696	21831
878.824	21888
878.951	21991
879.079	22059
879.206	22158
879.333	22097
879.461	21907
879.588	21880
879.715	21895
879.842	22086
879.97	21907
880.097	21682
880.224	21682
880.351	21633
880.478	21732
880.605	21686
880.732	21709
880.859	21816
880.986	21660
881.112	21793
881.239	21492
881.366	21515
881.493	21325
881.619	21135
881.746	21264
881.872	21203
881.999	21222
882.125	21150
882.252	21245
882.378	21207
882.505	21329
882.631	21127
882.757	20971
882.883	21058
883.01	20872
883.136	20887
883.262	20876
883.388	20830
883.514	21020
883.64	20887
883.766	20914
883.892	20731
884.018	20811
884.143	20819
884.269	21024
884.395	20727
884.52	20617
884.646	20552
884.772	20594
884.897	20518
885.023	20667
885.148	20720
885.274	20686
885.399	20807
885.524	20651
885.65	20636
885.775	20537
885.9	20556
886.025	20629
886.15	20697
886.275	20602
886.4	20457
886.525	20629
886.65	20533
886.775	20533
886.9	20800
887.025	20857
887.149	20716
887.274	20457
887.399	20431
887.523	20381
887.648	20396
887.773	20275
887.897	20423
888.021	20587
888.146	20377
888.27	20499
888.395	20476
888.519	20442
888.643	20484
888.767	20541
888.891	20286
889.015	20290
889.139	20206
889.263	20134
889.387	20370
889.511	20480
889.635	20465
889.759	20107
889.883	20126
890.006	20248
890.13	20324
890.254	20092
890.377	20092
890.501	19993
890.624	19947
890.748	19970
890.871	19791
890.995	19799
891.118	19742
891.241	19803
891.364	19772
891.488	19890
891.611	19753
891.734	19780
891.857	19791
891.98	19772
892.103	19788
892.226	19723
892.349	19681
892.471	19597
892.594	19723
892.717	19719
892.839	19575
892.962	19693
893.085	19677
893.207	19666
893.33	19575
893.452	19639
893.575	19750
893.697	19772
893.819	19887
893.941	19925
894.064	19791
894.186	19681
894.308	19677
894.43	19791
894.552	19898
894.674	19776
894.796	19609
894.918	19803
895.04	19677
895.161	19605
895.283	19723
895.405	19639
895.526	19727
895.648	19635
895.769	19750
895.891	19765
896.012	19860
896.134	19761
896.255	19727
896.376	19670
896.498	19742
896.619	19765
896.74	19613
896.861	19696
896.982	19951
897.103	20157
897.224	19967
897.345	19833
897.466	19909
897.587	19890
897.708	20020
897.828	19982
897.949	19902
898.07	19734
898.19	19727
898.311	20001
898.431	19864
898.552	20012
898.672	20020
898.792	20069
898.913	19890
899.033	19852
899.153	19723
899.273	19674
899.393	19719
899.513	19704
899.633	19681
899.753	19590
899.873	19567
899.993	19693
900.113	19601
900.232	19753
900.352	19700
900.472	19510
900.591	19369
900.711	19476
900.83	19499
900.95	19419
901.069	19487
901.189	19354
901.308	19091
901.427	19008
901.546	19118
901.665	19095
901.784	19061
901.904	18867
902.023	18867
902.141	18661
902.26	18547
902.379	18684
902.498	18456
902.617	18536
902.735	18593
902.854	18585
902.973	18574
903.091	18239
903.21	18270
903.328	18174
903.446	18121
903.565	18121
903.683	18091
903.801	17847
903.919	18011
904.038	17870
904.156	17756
904.274	17897
904.392	17714
904.51	17760
904.627	17718
904.745	17843
904.863	17901
904.981	17627
905.098	17524
905.216	17482
905.334	17417
905.451	17554
905.569	17436
905.686	17459
905.803	17425
905.921	17345
906.038	17372
906.155	17315
906.272	17216
906.389	17261
906.506	16999
906.623	16980
906.74	17014
906.857	16881
906.974	16923
907.091	17045
907.208	17140
907.324	17121
907.441	16938
907.557	16733
907.674	16828
907.79	16717
907.907	16733
908.023	16835
908.139	16790
908.256	16592
908.372	16641
908.488	16611
908.604	16637
908.72	16413
908.836	16577
908.952	16360
909.068	16554
909.184	16630
909.3	16478
909.415	16641
909.531	16428
909.647	16226
909.762	16166
909.878	16177
909.993	16150
910.108	16128
910.224	16139
910.339	16086
910.454	16093
910.57	16040
910.685	15941
910.8	16230
910.915	16204
911.03	16032
911.145	15819
911.259	15876
911.374	15850
911.489	15660
911.604	15644
911.718	15549
911.833	15542
911.947	15473
912.062	15363
912.176	15538
912.291	15644
912.405	15542
912.519	15701
912.633	15717
912.748	15572
912.862	15496
912.976	15439
913.09	15351
913.204	15344
913.318	15424
913.431	15477
913.545	15435
913.659	15420
913.772	15291
913.886	15249
914	15142
914.113	15226
914.226	15313
914.34	15230
914.453	15058
914.566	15161
914.68	15077
914.793	14914
914.906	14845
915.019	14777
915.132	14727
915.245	14804
915.358	14750
915.47	14830
915.583	14716
915.696	14834
915.809	14895
915.921	14941
916.034	14701
916.146	14773
916.259	14651
916.371	14785
916.483	14659
916.595	14686
916.708	14651
916.82	14651
916.932	14579
917.044	14530
917.156	14598
917.268	14457
917.38	14499
917.491	14423
917.603	14434
917.715	14545
917.826	14450
917.938	14362
918.049	14286
918.161	14313
918.272	14556
918.384	14533
918.495	14412
918.606	14157
918.717	14092
918.828	14271
918.939	14267
919.05	14096
919.161	14214
919.272	14027
919.383	14096
919.494	14244
919.604	14423
919.715	14145
919.826	14043
919.936	14176
920.047	14214
920.157	14168
920.267	14328
920.378	14202
920.488	14119
920.598	14339
920.708	14404
920.818	14374
920.928	14320
921.038	14404
921.148	14320
921.258	14168
921.368	14065
921.477	14005
921.587	13894
921.697	13830
921.806	13940
921.916	13795
922.025	13651
922.134	13616
922.244	13609
922.353	13647
922.462	13510
922.571	13472
922.68	13278
922.789	13236
922.898	13293
923.007	13141
923.116	13190
923.224	13236
923.333	13240
923.442	13031
923.55	13019
923.659	13076
923.767	13114
923.876	12943
923.984	12996
924.092	12947
924.201	12954
924.309	12985
924.417	12871
924.525	12768
924.633	12821
924.741	13719
924.849	12707
924.956	12935
925.064	12658
925.172	12532
925.279	12665
925.387	12631
925.494	12635
925.602	12798
925.709	12650
925.816	12479
925.924	12544
926.031	12669
926.138	12627
926.245	12639
926.352	12509
926.459	12654
926.566	12730
926.673	12540
926.779	12399
926.886	12388
926.993	12289
927.099	12277
927.206	12197
927.312	12171
927.419	12239
927.525	12232
927.631	12289
927.737	12079
927.843	12121
927.95	12019
928.056	12060
928.162	12034
928.267	12133
928.373	12593
928.479	12136
928.585	11954
928.69	12034
928.796	12015
928.901	11912
929.007	11798
929.112	11939
929.218	11813
929.323	11775
929.428	11779
929.533	11965
929.638	11771
929.743	11756
929.848	11688
929.953	11760
930.058	11577
930.163	11520
930.267	11501
930.372	11570
930.477	11436
930.581	11627
930.685	11558
930.79	11391
930.894	11440
930.998	11410
931.103	11501
931.207	11071
931.311	11064
931.415	10957
931.519	10831
931.623	10786
