Data from test_V78500241_2837.txt Node
Date: Fri Mar 25 15:29:36 CST 2022
User: usil
Spectrometer: V785-0024
Trigger mode: 0
Integration Time (sec): 4.000000E-1
Scans to average: 1
Nonlinearity correction enabled: false
Boxcar width: 0
Storing dark spectrum: false
XAxis mode: Wavelengths
Number of Pixels in Spectrum: 1024
>>>>>Begin Spectral Data<<<<<
801.071	27260
801.214	27237
801.356	27066
801.499	27051
801.641	26891
801.783	26845
801.926	26861
802.068	26861
802.211	26800
802.353	26663
802.496	26621
802.638	26579
802.78	26495
802.923	26446
803.065	26313
803.208	26271
803.35	26415
803.492	26644
803.635	26708
803.777	26549
803.919	26617
804.061	27009
804.204	26655
804.346	26579
804.488	26674
804.63	26731
804.773	26495
804.915	26609
805.057	26792
805.199	26655
805.341	26758
805.483	26712
805.626	26678
805.768	26670
805.91	26716
806.052	26655
806.194	26575
806.336	26823
806.478	26720
806.62	26769
806.762	26792
806.904	26986
807.046	27317
807.188	27138
807.33	27138
807.472	27055
807.614	27108
807.756	26948
807.898	26956
808.04	26838
808.182	26944
808.324	27131
808.465	27173
808.607	27199
808.749	27195
808.891	27344
809.033	27549
809.174	27298
809.316	27420
809.458	27439
809.6	27272
809.741	27370
809.883	27454
810.025	27564
810.166	27591
810.308	27660
810.45	27507
810.591	27629
810.733	27367
810.875	27298
811.016	27241
811.158	27260
811.299	27420
811.441	27625
811.582	27393
811.724	27382
811.865	27329
812.007	27222
812.148	27310
812.29	27241
812.431	27572
812.573	27633
812.714	27720
812.855	27747
812.997	27945
813.138	27907
813.279	27953
813.421	27751
813.562	27819
813.703	27739
813.845	27416
813.986	27157
814.127	27135
814.268	26967
814.41	26975
814.551	26979
814.692	27104
814.833	26940
814.974	26960
815.115	26975
815.256	26990
815.397	26849
815.539	26826
815.68	26834
815.821	26777
815.962	26758
816.103	26617
816.244	26560
816.385	26583
816.526	26503
816.666	26313
816.807	26282
816.948	26381
817.089	26309
817.23	26164
817.371	26298
817.512	26286
817.653	26229
817.793	26195
817.934	26225
818.075	26301
818.216	26157
818.356	26214
818.497	26119
818.638	25989
818.778	25811
818.919	26005
819.06	26069
819.2	26096
819.341	26172
819.481	26225
819.622	26400
819.762	26533
819.903	26473
820.043	26313
820.184	26423
820.324	26480
820.465	26415
820.605	26389
820.746	26347
820.886	26130
821.026	26157
821.167	26282
821.307	26393
821.447	26275
821.588	26107
821.728	25890
821.868	25883
822.008	25856
822.149	25723
822.289	25719
822.429	25506
822.569	25438
822.709	25407
822.849	25221
822.99	25320
823.13	25141
823.27	25190
823.41	25015
823.55	24932
823.69	25004
823.83	24913
823.97	24947
824.11	24779
824.25	24722
824.389	24787
824.529	24863
824.669	24734
824.809	24973
824.949	24935
825.089	24932
825.228	24886
825.368	24661
825.508	24654
825.648	24646
825.787	24715
825.927	24692
826.067	24692
826.206	24631
826.346	24791
826.485	24772
826.625	24722
826.765	24776
826.904	24768
827.044	24338
827.183	24623
827.323	24448
827.462	24334
827.601	24395
827.741	24460
827.88	24441
828.02	24350
828.159	24410
828.298	24346
828.437	24513
828.577	24365
828.716	24456
828.855	24304
828.994	24049
829.134	24228
829.273	24315
829.412	24034
829.551	24076
829.69	24087
829.829	24091
829.968	24182
830.107	24220
830.246	24102
830.385	24079
830.524	24144
830.663	23969
830.802	23863
830.941	23756
831.08	23657
831.219	23729
831.357	23847
831.496	23923
831.635	23760
831.774	23551
831.913	23562
832.051	23543
832.19	23471
832.329	23478
832.467	23387
832.606	23349
832.744	23341
832.883	23429
833.022	23341
833.16	23322
833.299	23421
833.437	23345
833.576	23608
833.714	23478
833.852	23440
833.991	23520
834.129	23676
834.267	23436
834.406	23535
834.544	23577
834.682	23592
834.821	23440
834.959	23604
835.097	23326
835.235	23497
835.373	23414
835.511	23376
835.65	23265
835.788	23368
835.926	23303
836.064	23128
836.202	23086
836.34	23273
836.478	23398
836.615	23322
836.753	23288
836.891	23387
837.029	23433
837.167	23265
837.305	23136
837.443	23132
837.58	23105
837.718	23212
837.856	23132
837.993	23064
838.131	23079
838.269	22911
838.406	22999
838.544	23018
838.681	22790
838.819	22771
838.956	22637
839.094	22694
839.231	22698
839.369	22778
839.506	22953
839.643	22729
839.781	22656
839.918	22512
840.055	22573
840.193	22504
840.33	22588
840.467	22535
840.604	22603
840.742	22797
840.879	22481
841.016	22459
841.153	22371
841.29	22713
841.427	22512
841.564	22535
841.701	22630
841.838	22405
841.975	22379
842.112	22531
842.249	22474
842.385	22234
842.522	22527
842.659	22337
842.796	22337
842.933	22329
843.069	22135
843.206	22402
843.343	22371
843.479	22318
843.616	22413
843.752	22139
843.889	22070
844.025	22200
844.162	22032
844.298	22131
844.435	22044
844.571	22006
844.708	22029
844.844	22219
844.98	22181
845.117	22215
845.253	21968
845.389	21998
845.525	21949
845.661	21922
845.798	21793
845.934	21842
846.07	21865
846.206	21774
846.342	21895
846.478	21812
846.614	21660
846.75	21549
846.886	21561
847.022	21675
847.158	21572
847.294	21458
847.429	21523
847.565	21496
847.701	21778
847.837	21230
847.972	21370
848.108	21313
848.244	21317
848.379	21173
848.515	21142
848.65	21074
848.786	21127
848.921	21138
849.057	21165
849.192	21233
849.328	21138
849.463	21180
849.598	21161
849.734	21077
849.869	20918
850.004	20906
850.14	20906
850.275	20906
850.41	20857
850.545	20781
850.68	20830
850.815	20910
850.95	20944
851.085	21005
851.22	21036
851.355	20864
851.49	21020
851.625	20857
851.76	20910
851.895	20868
852.03	20651
852.165	20876
852.299	21013
852.434	21013
852.569	20868
852.703	20937
852.838	20986
852.973	20971
853.107	21074
853.242	20876
853.376	20788
853.511	20739
853.645	20670
853.78	20823
853.914	20804
854.048	20609
854.183	20724
854.317	20807
854.451	20880
854.585	20754
854.72	20750
854.854	20667
854.988	20678
855.122	20826
855.256	20598
855.39	20777
855.524	20815
855.658	20674
855.792	20838
855.926	20739
856.06	20868
856.194	20727
856.327	20701
856.461	20750
856.595	20667
856.729	20731
856.862	20899
856.996	20842
857.13	20739
857.263	20785
857.397	20857
857.53	20689
857.664	20785
857.797	20811
857.931	20750
858.064	20746
858.197	20739
858.331	20648
858.464	20716
858.597	20686
858.731	20667
858.864	20606
858.997	20617
859.13	20689
859.263	20705
859.396	20830
859.529	20781
859.662	20693
859.795	20686
859.928	20743
860.061	20880
860.194	20830
860.327	20807
860.46	20712
860.592	20777
860.725	20887
860.858	20880
860.99	20731
861.123	20659
861.256	20617
861.388	20636
861.521	21386
861.653	20579
861.786	20461
861.918	20606
862.05	20522
862.183	20705
862.315	20750
862.447	20701
862.58	20609
862.712	20404
862.844	20492
862.976	20575
863.108	20533
863.24	20902
863.372	20434
863.504	20522
863.636	20454
863.768	20438
863.9	20446
864.032	20324
864.164	20419
864.296	20393
864.428	20495
864.559	20503
864.691	20484
864.823	20492
864.954	20419
865.086	20396
865.217	20252
865.349	20305
865.48	20400
865.612	20366
865.743	20495
865.875	20313
866.006	20324
866.137	20370
866.269	20393
866.4	20195
866.531	20317
866.662	20309
866.793	20126
866.924	20355
867.055	20298
867.186	20286
867.317	20183
867.448	20225
867.579	20256
867.71	20168
867.841	20176
867.972	20271
868.103	20332
868.233	20263
868.364	20324
868.495	20351
868.625	20503
868.756	20590
868.886	20537
869.017	20556
869.147	20545
869.278	20621
869.408	20518
869.539	20503
869.669	20617
869.799	20541
869.929	20522
870.06	20663
870.19	20807
870.32	20777
870.45	20845
870.58	20937
870.71	20979
870.84	21100
870.97	20933
871.1	20952
871.23	21100
871.36	21066
871.489	21032
871.619	21070
871.749	21108
871.879	21188
872.008	21112
872.138	21180
872.267	20937
872.397	21013
872.526	20952
872.656	20861
872.785	20956
872.915	21138
873.044	21233
873.173	21070
873.303	21112
873.432	21173
873.561	21192
873.69	21116
873.819	21131
873.948	21260
874.077	20982
874.206	21165
874.335	21089
874.464	21180
874.593	21321
874.722	21389
874.851	21408
874.979	21363
875.108	21504
875.237	21275
875.365	21279
875.494	21275
875.623	21439
875.751	21370
875.88	21367
876.008	21564
876.136	21629
876.265	21751
876.393	21869
876.521	21812
876.65	21793
876.778	21812
876.906	21831
877.034	21728
877.162	21675
877.29	21633
877.418	21682
877.546	21869
877.674	21660
877.802	21812
877.93	21899
878.058	21530
878.185	21625
878.313	21614
878.441	21728
878.568	21595
878.696	21663
878.824	21736
878.951	21842
879.079	21816
879.206	22063
879.333	22021
879.461	21800
879.588	21842
879.715	21808
879.842	21915
879.97	21835
880.097	21576
880.224	21443
880.351	21606
880.478	21580
880.605	21545
880.732	21534
880.859	21781
880.986	21538
881.112	21561
881.239	21481
881.366	21363
881.493	21161
881.619	21249
881.746	21180
881.872	21104
881.999	21032
882.125	21062
882.252	21203
882.378	21119
882.505	21199
882.631	20998
882.757	20906
882.883	20956
883.01	20804
883.136	20811
883.262	20678
883.388	20712
883.514	20819
883.64	20883
883.766	20857
883.892	20609
884.018	20552
884.143	20743
884.269	20887
884.395	20499
884.52	20503
884.646	20530
884.772	20446
884.897	20347
885.023	20442
885.148	20571
885.274	20590
885.399	20667
885.524	20358
885.65	20518
885.775	20476
885.9	20366
886.025	20545
886.15	20556
886.275	20518
886.4	20389
886.525	20492
886.65	20473
886.775	20438
886.9	20590
887.025	20606
887.149	20442
887.274	20320
887.399	20248
887.523	20317
887.648	20225
887.773	20172
887.897	20339
888.021	20282
888.146	20275
888.27	20275
888.395	20362
888.519	20370
888.643	20237
888.767	20358
888.891	20191
889.015	20077
889.139	20145
889.263	20081
889.387	20187
889.511	20275
889.635	20153
889.759	20046
889.883	20111
890.006	20031
890.13	20142
890.254	19917
890.377	19986
890.501	19913
890.624	19864
890.748	19883
890.871	19837
890.995	19601
891.118	19643
891.241	19613
891.364	19616
891.488	19788
891.611	19780
891.734	19719
891.857	19620
891.98	19582
892.103	19704
892.226	19700
892.349	19514
892.471	19529
892.594	19647
892.717	19533
892.839	19521
892.962	19601
893.085	19658
893.207	19613
893.33	19324
893.452	19514
893.575	19578
893.697	19506
893.819	19628
893.941	19693
894.064	19719
894.186	19514
894.308	19419
894.43	19594
894.552	19723
894.674	19571
894.796	19480
894.918	19537
895.04	19567
895.161	19651
895.283	19647
895.405	19426
895.526	19643
895.648	19449
895.769	19476
895.891	19605
896.012	19677
896.134	19594
896.255	19616
896.376	19544
896.498	19529
896.619	19567
896.74	19556
896.861	19616
896.982	19959
897.103	20050
897.224	19875
897.345	19826
897.466	19662
897.587	19746
897.708	19967
897.828	19822
897.949	19727
898.07	19563
898.19	19628
898.311	19940
898.431	19799
898.552	19746
898.672	19909
898.792	19887
898.913	19795
899.033	19742
899.153	19613
899.273	19441
899.393	19601
899.513	19670
899.633	19586
899.753	19578
899.873	19533
899.993	19613
900.113	19464
900.232	19575
900.352	19449
900.472	19331
900.591	19358
900.711	19403
900.83	19263
900.95	19441
901.069	19434
901.189	19171
901.308	19000
901.427	18913
901.546	18935
901.665	18970
901.784	19046
901.904	18810
902.023	18650
902.141	18471
902.26	18479
902.379	18620
902.498	18528
902.617	18471
902.735	18403
902.854	18422
902.973	18407
903.091	18171
903.21	18174
903.328	18148
903.446	18064
903.565	17946
903.683	17931
903.801	17832
903.919	17935
904.038	17916
904.156	17794
904.274	17745
904.392	17756
904.51	17512
904.627	17623
904.745	17733
904.863	17714
904.981	17638
905.098	17417
905.216	17379
905.334	17395
905.451	17448
905.569	17288
905.686	17402
905.803	17436
905.921	17265
906.038	17250
906.155	17227
906.272	17098
906.389	17067
906.506	16946
906.623	16900
906.74	16873
906.857	16831
906.974	16824
907.091	17037
907.208	17064
907.324	16847
907.441	16850
907.557	16744
907.674	16664
907.79	16554
907.907	16558
908.023	16622
908.139	16603
908.256	16538
908.372	16588
908.488	16497
908.604	16402
908.72	16337
908.836	16405
908.952	16375
909.068	16306
909.184	16481
909.3	16386
909.415	16303
909.531	16356
909.647	16097
909.762	16158
909.878	16078
909.993	16006
910.108	16074
910.224	16032
910.339	16082
910.454	15945
910.57	15899
910.685	15854
910.8	16036
910.915	16036
911.03	15903
911.145	15686
911.259	15652
911.374	15622
911.489	15568
911.604	15515
911.718	15447
911.833	15412
911.947	15336
912.062	15321
912.176	15473
912.291	15481
912.405	15408
912.519	15648
912.633	15568
912.748	15443
912.862	15264
912.976	15222
913.09	15119
913.204	15188
913.318	15252
913.431	15393
913.545	15272
913.659	15412
913.772	15176
913.886	15100
914	15055
914.113	15119
914.226	15119
914.34	15169
914.453	14941
914.566	15077
914.68	14921
914.793	14960
914.906	14735
915.019	14632
915.132	14564
915.245	14716
915.358	14678
915.47	14640
915.583	14689
915.696	14777
915.809	14800
915.921	14765
916.034	14621
916.146	14663
916.259	14541
916.371	14686
916.483	14693
916.595	14530
916.708	14530
916.82	14419
916.932	14446
917.044	14473
917.156	14419
917.268	14374
917.38	14328
917.491	14339
917.603	14332
917.715	14415
917.826	14415
917.938	14221
918.049	14237
918.161	14317
918.272	14446
918.384	14522
918.495	14305
918.606	14244
918.717	14031
918.828	14218
918.939	14149
919.05	14016
919.161	14103
919.272	13871
919.383	13875
919.494	14142
919.604	14336
919.715	14096
919.826	13936
919.936	14046
920.047	14054
920.157	14172
920.267	14237
920.378	14138
920.488	14046
920.598	14153
920.708	14343
920.818	14214
920.928	14252
921.038	14423
921.148	14377
921.258	14100
921.368	13955
921.477	13898
921.587	13769
921.697	13906
921.806	13772
921.916	13670
922.025	13518
922.134	13578
922.244	13403
922.353	13453
922.462	13331
922.571	13324
922.68	13304
922.789	13126
922.898	13072
923.007	13076
923.116	13164
923.224	13152
923.333	13107
923.442	12973
923.55	12935
923.659	13088
923.767	13118
923.876	12973
923.984	12958
924.092	12795
924.201	12977
924.309	12882
924.417	12909
924.525	12814
924.633	12814
924.741	13769
924.849	12635
924.956	12738
925.064	12570
925.172	12414
925.279	12612
925.387	12525
925.494	12521
925.602	12722
925.709	12589
925.816	12399
925.924	12494
926.031	12589
926.138	12536
926.245	12563
926.352	12445
926.459	12540
926.566	12665
926.673	12536
926.779	12361
926.886	12281
926.993	12228
927.099	12178
927.206	12144
927.312	12228
927.419	12186
927.525	12110
927.631	12155
927.737	12034
927.843	11935
927.95	11885
928.056	11950
928.162	11992
928.267	12026
928.373	12563
928.479	12007
928.585	11783
928.69	11908
928.796	11965
928.901	11832
929.007	11733
929.112	11771
929.218	11726
929.323	11752
929.428	11733
929.533	11908
929.638	11672
929.743	11630
929.848	11737
929.953	11653
930.058	11589
930.163	11463
930.267	11455
930.372	11528
930.477	11330
930.581	11570
930.685	11452
930.79	11379
930.894	11364
930.998	11254
931.103	11391
931.207	11067
931.311	11048
931.415	10938
931.519	10759
931.623	10641
