Data from test_V78500241_624.txt Node
Date: Fri Mar 25 15:14:12 CST 2022
User: usil
Spectrometer: V785-0024
Trigger mode: 0
Integration Time (sec): 4.000000E-1
Scans to average: 1
Nonlinearity correction enabled: false
Boxcar width: 0
Storing dark spectrum: false
XAxis mode: Wavelengths
Number of Pixels in Spectrum: 1024
>>>>>Begin Spectral Data<<<<<
801.071	27690
801.214	27698
801.356	27599
801.499	27473
801.641	27310
801.783	27408
801.926	27412
802.068	27211
802.211	27096
802.353	27039
802.496	27009
802.638	26956
802.78	26982
802.923	26887
803.065	26960
803.208	26819
803.35	26982
803.492	26967
803.635	27116
803.777	27032
803.919	27119
804.061	27401
804.204	27100
804.346	27062
804.488	26929
804.63	27070
804.773	26937
804.915	27017
805.057	27146
805.199	27096
805.341	27245
805.483	27329
805.626	27154
805.768	27100
805.91	27237
806.052	27074
806.194	27146
806.336	27386
806.478	27222
806.62	27222
806.762	27355
806.904	27507
807.046	27713
807.188	27599
807.33	27705
807.472	27667
807.614	27599
807.756	27709
807.898	27420
808.04	27462
808.182	27492
808.324	27583
808.465	27561
808.607	27766
808.749	27876
808.891	28021
809.033	28090
809.174	27903
809.316	27930
809.458	27892
809.6	27960
809.741	27922
809.883	28116
810.025	28181
810.166	28265
810.308	28207
810.45	28135
810.591	28036
810.733	27880
810.875	28032
811.016	27648
811.158	27770
811.299	27850
811.441	28006
811.582	28032
811.724	27907
811.865	27823
812.007	27854
812.148	27781
812.29	27953
812.431	27953
812.573	28341
812.714	28333
812.855	28398
812.997	28565
813.138	28645
813.279	28649
813.421	28504
813.562	28489
813.703	28356
813.845	28166
813.986	27842
814.127	27663
814.268	27595
814.41	27587
814.551	27473
814.692	27743
814.833	27580
814.974	27580
815.115	27557
815.256	27351
815.397	27424
815.539	27447
815.68	27386
815.821	27408
815.962	27466
816.103	27469
816.244	27211
816.385	27093
816.526	27096
816.666	26910
816.807	26872
816.948	27047
817.089	26902
817.23	27028
817.371	26971
817.512	26883
817.653	26800
817.793	26731
817.934	26910
818.075	26876
818.216	26853
818.356	26796
818.497	26674
818.638	26549
818.778	26606
818.919	26640
819.06	26640
819.2	26746
819.341	26899
819.481	26868
819.622	26975
819.762	27146
819.903	27275
820.043	27055
820.184	27066
820.324	26914
820.465	27066
820.605	26979
820.746	26998
820.886	26902
821.026	27036
821.167	26975
821.307	27096
821.447	26853
821.588	26739
821.728	26609
821.868	26431
822.008	26434
822.149	26358
822.289	26393
822.429	26107
822.569	25856
822.709	26100
822.849	25871
822.99	25833
823.13	25932
823.27	25868
823.41	25670
823.55	25544
823.69	25632
823.83	25628
823.97	25559
824.11	25510
824.25	25483
824.389	25438
824.529	25521
824.669	25651
824.809	25643
824.949	25643
825.089	25624
825.228	25559
825.368	25381
825.508	25343
825.648	25430
825.787	25426
825.927	25434
826.067	25285
826.206	25362
826.346	25419
826.485	25438
826.625	25464
826.765	25434
826.904	25365
827.044	25251
827.183	25148
827.323	24947
827.462	25228
827.601	25156
827.741	25118
827.88	25110
828.02	24935
828.159	24935
828.298	25156
828.437	25110
828.577	25034
828.716	25232
828.855	25000
828.994	24726
829.134	24719
829.273	24840
829.412	24856
829.551	24635
829.69	24734
829.829	24753
829.968	24779
830.107	24749
830.246	24722
830.385	24631
830.524	24745
830.663	24661
830.802	24525
830.941	24350
831.08	24517
831.219	24445
831.357	24654
831.496	24696
831.635	24384
831.774	24346
831.913	24384
832.051	24171
832.19	24186
832.329	24159
832.467	24232
832.606	24068
832.744	24060
832.883	24064
833.022	23901
833.16	24060
833.299	24148
833.437	24072
833.576	24133
833.714	24152
833.852	24190
833.991	24251
834.129	24361
834.267	24194
834.406	24254
834.544	24110
834.682	24140
834.821	24121
834.959	24346
835.097	24087
835.235	24045
835.373	24079
835.511	23992
835.65	23866
835.788	24022
835.926	23859
836.064	23790
836.202	23783
836.34	24053
836.478	23980
836.615	23980
836.753	24030
836.891	24038
837.029	24125
837.167	23946
837.305	23927
837.443	23863
837.58	23851
837.718	23843
837.856	23726
837.993	23821
838.131	23798
838.269	23794
838.406	23805
838.544	23554
838.681	23528
838.819	23452
838.956	23311
839.094	23341
839.231	23280
839.369	23402
839.506	23741
839.643	23501
839.781	23368
839.918	23174
840.055	23220
840.193	23242
840.33	23227
840.467	23162
840.604	23261
840.742	23657
840.879	23067
841.016	23056
841.153	23132
841.29	23372
841.427	23170
841.564	23193
841.701	23235
841.838	23109
841.975	23136
842.112	23147
842.249	22995
842.385	22965
842.522	23132
842.659	23041
842.796	22892
842.933	23003
843.069	22968
843.206	22812
843.343	22904
843.479	22900
843.616	22873
843.752	22710
843.889	22771
844.025	22763
844.162	22763
844.298	22771
844.435	22736
844.571	22698
844.708	22736
844.844	22961
844.98	22835
845.117	22889
845.253	22679
845.389	22630
845.525	22755
845.661	22618
845.798	22455
845.934	22592
846.07	22478
846.206	22580
846.342	22615
846.478	22508
846.614	22360
846.75	22093
846.886	22120
847.022	22204
847.158	22200
847.294	22192
847.429	22382
847.565	22120
847.701	22405
847.837	21884
847.972	22013
848.108	21979
848.244	22013
848.379	21823
848.515	21884
848.65	21652
848.786	21804
848.921	21774
849.057	21926
849.192	21770
849.328	21835
849.463	21804
849.598	21751
849.734	21625
849.869	21549
850.004	21648
850.14	21580
850.275	21504
850.41	21553
850.545	21561
850.68	21496
850.815	21561
850.95	21507
851.085	21732
851.22	21652
851.355	21641
851.49	21549
851.625	21580
851.76	21408
851.895	21526
852.03	21492
852.165	21511
852.299	21629
852.434	21629
852.569	21534
852.703	21515
852.838	21686
852.973	21675
853.107	21728
853.242	21466
853.376	21393
853.511	21310
853.645	21351
853.78	21488
853.914	21435
854.048	21268
854.183	21351
854.317	21454
854.451	21622
854.585	21412
854.72	21405
854.854	21389
854.988	21291
855.122	21481
855.256	21138
855.39	21443
855.524	21591
855.658	21485
855.792	21317
855.926	21511
856.06	21488
856.194	21466
856.327	21344
856.461	21294
856.595	21264
856.729	21405
856.862	21477
856.996	21306
857.13	21416
857.263	21530
857.397	21492
857.53	21473
857.664	21382
857.797	21443
857.931	21439
858.064	21424
858.197	21428
858.331	21405
858.464	21443
858.597	21203
858.731	21469
858.864	21222
858.997	21412
859.13	21393
859.263	21420
859.396	21477
859.529	21428
859.662	21249
859.795	21332
859.928	21359
860.061	21519
860.194	21610
860.327	21469
860.46	21408
860.592	21408
860.725	21507
860.858	21511
860.99	21389
861.123	21264
861.256	21435
861.388	21340
861.521	22177
861.653	21279
861.786	21081
861.918	21260
862.05	21245
862.183	21264
862.315	21245
862.447	21420
862.58	21291
862.712	21199
862.844	21146
862.976	21077
863.108	21150
863.24	21545
863.372	20994
863.504	21089
863.636	20998
863.768	21218
863.9	21085
864.032	20952
864.164	20986
864.296	21066
864.428	21260
864.559	21142
864.691	21211
864.823	21058
864.954	21070
865.086	21104
865.217	20914
865.349	20960
865.48	21036
865.612	20960
865.743	21176
865.875	21017
866.006	20944
866.137	20990
866.269	20982
866.4	20967
866.531	20872
866.662	20990
866.793	21005
866.924	20807
867.055	20910
867.186	20921
867.317	20849
867.448	20872
867.579	20868
867.71	20796
867.841	20701
867.972	20979
868.103	20754
868.233	20975
868.364	20979
868.495	21074
868.625	21081
868.756	21256
868.886	21043
869.017	21188
869.147	21241
869.278	21135
869.408	21245
869.539	21127
869.669	21249
869.799	21329
869.929	21294
870.06	21256
870.19	21583
870.32	21488
870.45	21485
870.58	21542
870.71	21690
870.84	21648
870.97	21500
871.1	21549
871.23	21797
871.36	21797
871.489	21644
871.619	21778
871.749	21797
871.879	21781
872.008	21762
872.138	21759
872.267	21762
872.397	21652
872.526	21622
872.656	21599
872.785	21622
872.915	21842
873.044	21968
873.173	21781
873.303	21743
873.432	21880
873.561	21899
873.69	21663
873.819	21827
873.948	21903
874.077	21800
874.206	21724
874.335	21816
874.464	21930
874.593	22029
874.722	21884
874.851	22055
874.979	21987
875.108	22036
875.237	21831
875.365	21873
875.494	22010
875.623	22090
875.751	22051
875.88	21983
876.008	22162
876.136	22154
876.265	22360
876.393	22409
876.521	22405
876.65	22394
876.778	22352
876.906	22417
877.034	22367
877.162	22223
877.29	22238
877.418	22299
877.546	22371
877.674	22318
877.802	22226
877.93	22306
878.058	22272
878.185	22196
878.313	22234
878.441	22295
878.568	22169
878.696	22265
878.824	22322
878.951	22451
879.079	22557
879.206	22550
879.333	22478
879.461	22360
879.588	22379
879.715	22634
879.842	22611
879.97	22356
880.097	22135
880.224	22169
880.351	22219
880.478	22253
880.605	22196
880.732	22253
880.859	22360
880.986	22147
881.112	22215
881.239	22010
881.366	21930
881.493	21800
881.619	21781
881.746	21709
881.872	21751
881.999	21591
882.125	21580
882.252	21774
882.378	21797
882.505	21739
882.631	21690
882.757	21386
882.883	21545
883.01	21443
883.136	21355
883.262	21294
883.388	21245
883.514	21435
883.64	21454
883.766	21454
883.892	21165
884.018	21112
884.143	21336
884.269	21469
884.395	21085
884.52	21028
884.646	21199
884.772	21032
884.897	21024
885.023	21055
885.148	21211
885.274	21169
885.399	21272
885.524	20998
885.65	21116
885.775	21161
885.9	20937
886.025	21077
886.15	21104
886.275	21036
886.4	20994
886.525	21070
886.65	21066
886.775	21043
886.9	21169
887.025	21283
887.149	21058
887.274	20807
887.399	20830
887.523	20838
887.648	20906
887.773	20754
887.897	20918
888.021	20842
888.146	20739
888.27	20910
888.395	20891
888.519	20880
888.643	20967
888.767	20925
888.891	20765
889.015	20644
889.139	20640
889.263	20689
889.387	20796
889.511	20708
889.635	20693
889.759	20590
889.883	20560
890.006	20663
890.13	20796
890.254	20571
890.377	20522
890.501	20488
890.624	20358
890.748	20438
890.871	20240
890.995	20157
891.118	20259
891.241	20225
891.364	20286
891.488	20518
891.611	20233
891.734	20195
891.857	20336
891.98	20221
892.103	20389
892.226	20153
892.349	20218
892.471	20020
892.594	20069
892.717	20153
892.839	20126
892.962	20157
893.085	20153
893.207	20107
893.33	19978
893.452	20001
893.575	20199
893.697	20058
893.819	20240
893.941	20313
894.064	20328
894.186	20062
894.308	20054
894.43	20168
894.552	20271
894.674	20081
894.796	20039
894.918	20016
895.04	20138
895.161	20115
895.283	20153
895.405	20077
895.526	20046
895.648	20153
895.769	20073
895.891	20138
896.012	20294
896.134	20043
896.255	20149
896.376	20096
896.498	20176
896.619	20100
896.74	20069
896.861	20282
896.982	20343
897.103	20579
897.224	20358
897.345	20271
897.466	20332
897.587	20294
897.708	20412
897.828	20301
897.949	20309
898.07	20218
898.19	20298
898.311	20419
898.431	20286
898.552	20313
898.672	20514
898.792	20370
898.913	20396
899.033	20214
899.153	20126
899.273	20005
899.393	20088
899.513	20161
899.633	20092
899.753	20065
899.873	19993
899.993	20119
900.113	20062
900.232	20043
900.352	19951
900.472	19917
900.591	19742
900.711	19955
900.83	19852
900.95	19894
901.069	19925
901.189	19742
901.308	19582
901.427	19563
901.546	19403
901.665	19449
901.784	19354
901.904	19289
902.023	19122
902.141	19103
902.26	19027
902.379	18932
902.498	18897
902.617	18920
902.735	18993
902.854	18939
902.973	18909
903.091	18703
903.21	18707
903.328	18665
903.446	18627
903.565	18483
903.683	18471
903.801	18289
903.919	18399
904.038	18308
904.156	18197
904.274	18407
904.392	18220
904.51	18155
904.627	18205
904.745	18243
904.863	18292
904.981	18022
905.098	17901
905.216	17901
905.334	17889
905.451	17813
905.569	17923
905.686	17973
905.803	17851
905.921	17577
906.038	17843
906.155	17615
906.272	17623
906.389	17653
906.506	17379
906.623	17417
906.74	17345
906.857	17296
906.974	17334
907.091	17452
907.208	17535
907.324	17433
907.441	17318
907.557	17102
907.674	17170
907.79	17041
907.907	17056
908.023	17121
908.139	17075
908.256	17109
908.372	16938
908.488	16991
908.604	16900
908.72	16843
908.836	16759
908.952	16748
909.068	16892
909.184	16930
909.3	16767
909.415	16786
909.531	16752
909.647	16561
909.762	16607
909.878	16489
909.993	16596
910.108	16561
910.224	16535
910.339	16558
910.454	16386
910.57	16436
910.685	16348
910.8	16580
910.915	16489
911.03	16398
911.145	16177
911.259	16128
911.374	16188
911.489	16048
911.604	15934
911.718	15876
911.833	15926
911.947	15819
912.062	15793
912.176	15873
912.291	15975
912.405	15857
912.519	16131
912.633	16071
912.748	15827
912.862	15743
912.976	15705
913.09	15564
913.204	15576
913.318	15603
913.431	15720
913.545	15819
913.659	15739
913.772	15572
913.886	15629
914	15500
914.113	15526
914.226	15682
914.34	15504
914.453	15344
914.566	15530
914.68	15393
914.793	15321
914.906	15370
915.019	15051
915.132	15024
915.245	15138
915.358	15074
915.47	15066
915.583	15116
915.696	15089
915.809	15138
915.921	15317
916.034	15104
916.146	15043
916.259	15005
916.371	15100
916.483	15024
916.595	14960
916.708	14777
916.82	14937
916.932	14925
917.044	14921
917.156	14872
917.268	14796
917.38	14785
917.491	14777
917.603	14777
917.715	14921
917.826	14804
917.938	14731
918.049	14552
918.161	14663
918.272	14811
918.384	14834
918.495	14701
918.606	14579
918.717	14465
918.828	14480
918.939	14564
919.05	14377
919.161	14465
919.272	14374
919.383	14450
919.494	14530
919.604	14712
919.715	14507
919.826	14332
919.936	14427
920.047	14526
920.157	14476
920.267	14705
920.378	14610
920.488	14560
920.598	14632
920.708	14731
920.818	14579
920.928	14526
921.038	14746
921.148	14735
921.258	14434
921.368	14381
921.477	14244
921.587	14180
921.697	14138
921.806	14221
921.916	14161
922.025	13871
922.134	13898
922.244	13818
922.353	13928
922.462	13757
922.571	13719
922.68	13578
922.789	13464
922.898	13506
923.007	13434
923.116	13548
923.224	13540
923.333	13441
923.442	13392
923.55	13339
923.659	13369
923.767	13381
923.876	13209
923.984	13381
924.092	13304
924.201	13247
924.309	13228
924.417	13297
924.525	13202
924.633	13171
924.741	13890
924.849	12973
924.956	13122
925.064	12951
925.172	12996
925.279	12863
925.387	12909
925.494	12897
925.602	12913
925.709	12897
925.816	12760
925.924	12783
926.031	12939
926.138	12787
926.245	12935
926.352	12798
926.459	12901
926.566	12985
926.673	12795
926.779	12658
926.886	12669
926.993	12536
927.099	12555
927.206	12467
927.312	12391
927.419	12574
927.525	12502
927.631	12521
927.737	12486
927.843	12437
927.95	12216
928.056	12365
928.162	12334
928.267	12315
928.373	13019
928.479	12372
928.585	12209
928.69	12300
928.796	12353
928.901	12243
929.007	11977
929.112	12133
929.218	12125
929.323	12095
929.428	12053
929.533	12136
929.638	12072
929.743	11969
929.848	12057
929.953	11901
930.058	11916
930.163	11722
930.267	11790
930.372	11897
930.477	11756
930.581	11817
930.685	11794
930.79	11558
930.894	11634
930.998	11661
931.103	11688
931.207	11292
931.311	11299
931.415	11242
931.519	11014
931.623	11006
