Data from test_V78500241_424.txt Node
Date: Fri Mar 25 15:12:48 CST 2022
User: usil
Spectrometer: V785-0024
Trigger mode: 0
Integration Time (sec): 4.000000E-1
Scans to average: 1
Nonlinearity correction enabled: false
Boxcar width: 0
Storing dark spectrum: false
XAxis mode: Wavelengths
Number of Pixels in Spectrum: 1024
>>>>>Begin Spectral Data<<<<<
801.071	27214
801.214	27142
801.356	26925
801.499	26925
801.641	26758
801.783	26853
801.926	26701
802.068	26708
802.211	26621
802.353	26579
802.496	26526
802.638	26522
802.78	26240
802.923	26324
803.065	26385
803.208	26259
803.35	26526
803.492	26434
803.635	26606
803.777	26389
803.919	26564
804.061	26785
804.204	26488
804.346	26400
804.488	26423
804.63	26552
804.773	26442
804.915	26453
805.057	26568
805.199	26640
805.341	26533
805.483	26708
805.626	26636
805.768	26598
805.91	26651
806.052	26609
806.194	26602
806.336	26842
806.478	26617
806.62	26724
806.762	26648
806.904	26925
807.046	27123
807.188	26998
807.33	26933
807.472	27089
807.614	27001
807.756	27009
807.898	26883
808.04	26883
808.182	26727
808.324	26940
808.465	26720
808.607	27013
808.749	27192
808.891	27336
809.033	27420
809.174	27329
809.316	27237
809.458	27374
809.6	27249
809.741	27287
809.883	27275
810.025	27424
810.166	27526
810.308	27652
810.45	27542
810.591	27481
810.733	27279
810.875	27237
811.016	27058
811.158	27001
811.299	27207
811.441	27374
811.582	27355
811.724	27203
811.865	27077
812.007	27393
812.148	27047
812.29	27230
812.431	27382
812.573	27416
812.714	27595
812.855	27637
812.997	27914
813.138	27960
813.279	27857
813.421	27701
813.562	27667
813.703	27663
813.845	27454
813.986	27039
814.127	26960
814.268	26902
814.41	26857
814.551	26804
814.692	27039
814.833	26762
814.974	26830
815.115	26777
815.256	26792
815.397	26727
815.539	26769
815.68	26655
815.821	26606
815.962	26727
816.103	26743
816.244	26545
816.385	26522
816.526	26263
816.666	26130
816.807	26199
816.948	26126
817.089	26294
817.23	26115
817.371	26062
817.512	26214
817.653	26168
817.793	26062
817.934	26275
818.075	26381
818.216	26210
818.356	26221
818.497	26039
818.638	25830
818.778	25944
818.919	25955
819.06	25974
819.2	25997
819.341	26111
819.481	26046
819.622	26305
819.762	26492
819.903	26366
820.043	26442
820.184	26168
820.324	26389
820.465	26355
820.605	26389
820.746	26149
820.886	26126
821.026	26259
821.167	26138
821.307	26294
821.447	26088
821.588	25970
821.728	26001
821.868	25811
822.008	25628
822.149	25734
822.289	25590
822.429	25479
822.569	25384
822.709	25297
822.849	25118
822.99	25183
823.13	25088
823.27	25072
823.41	24886
823.55	24810
823.69	25091
823.83	24996
823.97	24958
824.11	24833
824.25	24738
824.389	24631
824.529	24863
824.669	24806
824.809	24871
824.949	24806
825.089	24738
825.228	24951
825.368	24566
825.508	24688
825.648	24722
825.787	24673
825.927	24703
826.067	24604
826.206	24559
826.346	24722
826.485	24673
826.625	24528
826.765	24696
826.904	24597
827.044	24319
827.183	24399
827.323	24281
827.462	24433
827.601	24330
827.741	24308
827.88	24338
828.02	24266
828.159	24292
828.298	24353
828.437	24418
828.577	24334
828.716	24407
828.855	24330
828.994	24148
829.134	24133
829.273	24155
829.412	24106
829.551	24072
829.69	24057
829.829	24045
829.968	23988
830.107	24083
830.246	23950
830.385	23977
830.524	23988
830.663	23805
830.802	23756
830.941	23646
831.08	23668
831.219	23619
831.357	23760
831.496	23931
831.635	23661
831.774	23497
831.913	23509
832.051	23463
832.19	23376
832.329	23524
832.467	23482
832.606	23334
832.744	23452
832.883	23387
833.022	23383
833.16	23360
833.299	23440
833.437	23444
833.576	23455
833.714	23421
833.852	23524
833.991	23642
834.129	23512
834.267	23531
834.406	23455
834.544	23562
834.682	23531
834.821	23425
834.959	23600
835.097	23379
835.235	23486
835.373	23425
835.511	23471
835.65	23376
835.788	23280
835.926	23178
836.064	23090
836.202	23280
836.34	23239
836.478	23395
836.615	23212
836.753	23299
836.891	23288
837.029	23326
837.167	23318
837.305	23223
837.443	23121
837.58	23098
837.718	23235
837.856	23170
837.993	23128
838.131	23147
838.269	23033
838.406	23124
838.544	22900
838.681	22843
838.819	22763
838.956	22630
839.094	22527
839.231	22508
839.369	22828
839.506	23022
839.643	22854
839.781	22660
839.918	22538
840.055	22683
840.193	22421
840.33	22497
840.467	22500
840.604	22615
840.742	22812
840.879	22246
841.016	22440
841.153	22382
841.29	22618
841.427	22531
841.564	22504
841.701	22481
841.838	22413
841.975	22386
842.112	22596
842.249	22371
842.385	22207
842.522	22424
842.659	22314
842.796	22360
842.933	22348
843.069	22337
843.206	22105
843.343	22424
843.479	22310
843.616	22405
843.752	22162
843.889	22070
844.025	22268
844.162	22048
844.298	22128
844.435	22055
844.571	22044
844.708	22207
844.844	22246
844.98	22223
845.117	22219
845.253	22006
845.389	22067
845.525	21998
845.661	21998
845.798	21812
845.934	21861
846.07	21739
846.206	21857
846.342	22090
846.478	21880
846.614	21595
846.75	21492
846.886	21534
847.022	21667
847.158	21485
847.294	21549
847.429	21618
847.565	21420
847.701	21781
847.837	21329
847.972	21393
848.108	21405
848.244	21424
848.379	21207
848.515	21173
848.65	21127
848.786	21070
848.921	21093
849.057	21249
849.192	21245
849.328	21135
849.463	21077
849.598	21241
849.734	21074
849.869	20975
850.004	20933
850.14	20887
850.275	20944
850.41	20834
850.545	20941
850.68	20872
850.815	20883
850.95	20944
851.085	20998
851.22	21039
851.355	20838
851.49	20804
851.625	20845
851.76	20960
851.895	20842
852.03	20838
852.165	20861
852.299	20937
852.434	20960
852.569	20982
852.703	20887
852.838	20979
852.973	20979
853.107	21093
853.242	20868
853.376	20811
853.511	20712
853.645	20743
853.78	20910
853.914	20746
854.048	20674
854.183	20689
854.317	20785
854.451	20998
854.585	20731
854.72	20697
854.854	20815
854.988	20693
855.122	20743
855.256	20575
855.39	20800
855.524	20834
855.658	20788
855.792	20697
855.926	20750
856.06	20769
856.194	20682
856.327	20720
856.461	20693
856.595	20724
856.729	20739
856.862	20819
856.996	20754
857.13	20746
857.263	20921
857.397	20807
857.53	20842
857.664	20701
857.797	20815
857.931	20823
858.064	20781
858.197	20849
858.331	20819
858.464	20674
858.597	20541
858.731	20712
858.864	20682
858.997	20781
859.13	20819
859.263	20811
859.396	20716
859.529	20693
859.662	20667
859.795	20834
859.928	20758
860.061	20834
860.194	21001
860.327	20853
860.46	20792
860.592	20902
860.725	20887
860.858	20872
860.99	20663
861.123	20682
861.256	20720
861.388	20902
861.521	21443
861.653	20674
861.786	20507
861.918	20568
862.05	20655
862.183	20632
862.315	20678
862.447	20670
862.58	20644
862.712	20522
862.844	20442
862.976	20503
863.108	20609
863.24	20914
863.372	20415
863.504	20492
863.636	20408
863.768	20499
863.9	20412
864.032	20377
864.164	20568
864.296	20541
864.428	20533
864.559	20469
864.691	20545
864.823	20484
864.954	20347
865.086	20457
865.217	20301
865.349	20393
865.48	20454
865.612	20336
865.743	20503
865.875	20438
866.006	20259
866.137	20347
866.269	20423
866.4	20328
866.531	20294
866.662	20278
866.793	20351
866.924	20328
867.055	20336
867.186	20366
867.317	20153
867.448	20180
867.579	20286
867.71	20305
867.841	20187
867.972	20431
868.103	20275
868.233	20317
868.364	20370
868.495	20396
868.625	20488
868.756	20545
868.886	20503
869.017	20499
869.147	20587
869.278	20659
869.408	20613
869.539	20590
869.669	20663
869.799	20537
869.929	20689
870.06	20636
870.19	20883
870.32	20921
870.45	20819
870.58	21005
870.71	21036
870.84	21131
870.97	21001
871.1	20944
871.23	20963
871.36	21013
871.489	21070
871.619	21116
871.749	21195
871.879	21138
872.008	21268
872.138	21161
872.267	21123
872.397	20975
872.526	20941
872.656	20952
872.785	20910
872.915	21195
873.044	21279
873.173	21112
873.303	21192
873.432	21074
873.561	21279
873.69	21184
873.819	21161
873.948	21329
874.077	21325
874.206	21135
874.335	21203
874.464	21332
874.593	21511
874.722	21275
874.851	21447
874.979	21500
875.108	21466
875.237	21336
875.365	21214
875.494	21500
875.623	21500
875.751	21310
875.88	21507
876.008	21443
876.136	21671
876.265	21724
876.393	21861
876.521	21816
876.65	22013
876.778	21736
876.906	21717
877.034	21816
877.162	21701
877.29	21701
877.418	21660
877.546	21812
877.674	21713
877.802	21599
877.93	21660
878.058	21686
878.185	21679
878.313	21770
878.441	21778
878.568	21724
878.696	21770
878.824	21819
878.951	21808
879.079	21903
879.206	22013
879.333	21953
879.461	21755
879.588	21869
879.715	21812
879.842	21941
879.97	21774
880.097	21656
880.224	21648
880.351	21583
880.478	21641
880.605	21637
880.732	21633
880.859	21831
880.986	21534
881.112	21549
881.239	21538
881.366	21298
881.493	21283
881.619	21237
881.746	21233
881.872	21142
881.999	21154
882.125	20933
882.252	21203
882.378	21074
882.505	21214
882.631	21005
882.757	20918
882.883	21005
883.01	20918
883.136	20743
883.262	20769
883.388	20762
883.514	20853
883.64	20918
883.766	20769
883.892	20625
884.018	20644
884.143	20731
884.269	20925
884.395	20629
884.52	20499
884.646	20492
884.772	20446
884.897	20454
885.023	20537
885.148	20632
885.274	20682
885.399	20663
885.524	20518
885.65	20571
885.775	20522
885.9	20412
886.025	20617
886.15	20522
886.275	20415
886.4	20495
886.525	20560
886.65	20377
886.775	20465
886.9	20663
887.025	20765
887.149	20556
887.274	20347
887.399	20206
887.523	20305
887.648	20202
887.773	20240
887.897	20301
888.021	20400
888.146	20301
888.27	20351
888.395	20313
888.519	20309
888.643	20271
888.767	20404
888.891	20233
889.015	20119
889.139	20157
889.263	20077
889.387	20138
889.511	20282
889.635	20191
889.759	20119
889.883	20035
890.006	20054
890.13	20149
890.254	19997
890.377	20005
890.501	19944
890.624	19738
890.748	19791
890.871	19734
890.995	19723
891.118	19651
891.241	19658
891.364	19689
891.488	19791
891.611	19628
891.734	19616
891.857	19784
891.98	19658
892.103	19761
892.226	19662
892.349	19655
892.471	19483
892.594	19457
892.717	19628
892.839	19655
892.962	19460
893.085	19662
893.207	19601
893.33	19430
893.452	19480
893.575	19605
893.697	19556
893.819	19696
893.941	19681
894.064	19712
894.186	19518
894.308	19567
894.43	19674
894.552	19727
894.674	19662
894.796	19499
894.918	19552
895.04	19483
895.161	19689
895.283	19609
895.405	19575
895.526	19514
895.648	19556
895.769	19597
895.891	19575
896.012	19696
896.134	19639
896.255	19662
896.376	19537
896.498	19533
896.619	19594
896.74	19582
896.861	19559
896.982	19909
897.103	20126
897.224	19875
897.345	19860
897.466	19750
897.587	19849
897.708	20035
897.828	19776
897.949	19731
898.07	19677
898.19	19715
898.311	19906
898.431	19811
898.552	19807
898.672	19959
898.792	19860
898.913	19822
899.033	19719
899.153	19544
899.273	19460
899.393	19552
899.513	19616
899.633	19597
899.753	19514
899.873	19476
899.993	19609
900.113	19453
900.232	19483
900.352	19548
900.472	19396
900.591	19327
900.711	19335
900.83	19388
900.95	19506
901.069	19559
901.189	19270
901.308	19015
901.427	18962
901.546	19027
901.665	18973
901.784	18977
901.904	18772
902.023	18787
902.141	18593
902.26	18658
902.379	18563
902.498	18502
902.617	18407
902.735	18456
902.854	18414
902.973	18414
903.091	18201
903.21	18117
903.328	18083
903.446	17988
903.565	17851
903.683	17912
903.801	17870
903.919	17946
904.038	17767
904.156	17764
904.274	17805
904.392	17790
904.51	17733
904.627	17737
904.745	17832
904.863	17722
904.981	17482
905.098	17376
905.216	17368
905.334	17421
905.451	17512
905.569	17391
905.686	17345
905.803	17364
905.921	17132
906.038	17345
906.155	17292
906.272	17056
906.389	17151
906.506	16995
906.623	16889
906.74	17037
906.857	16881
906.974	16873
907.091	17018
907.208	17025
907.324	16991
907.441	16999
907.557	16694
907.674	16717
907.79	16637
907.907	16698
908.023	16675
908.139	16675
908.256	16592
908.372	16596
908.488	16489
908.604	16405
908.72	16405
908.836	16440
908.952	16310
909.068	16447
909.184	16523
909.3	16478
909.415	16398
909.531	16371
909.647	16188
909.762	15991
909.878	16188
909.993	16230
910.108	16029
910.224	16032
910.339	16044
910.454	16105
910.57	15911
910.685	15854
910.8	16112
910.915	16101
911.03	15865
911.145	15728
911.259	15739
911.374	15739
911.489	15523
911.604	15660
911.718	15625
911.833	15542
911.947	15458
912.062	15249
912.176	15454
912.291	15485
912.405	15405
912.519	15591
912.633	15572
912.748	15447
912.862	15431
912.976	15176
913.09	15207
913.204	15218
913.318	15268
913.431	15370
913.545	15435
913.659	15450
913.772	15275
913.886	15043
914	14986
914.113	15173
914.226	15131
914.34	15150
914.453	14952
914.566	15081
914.68	14975
914.793	14979
914.906	14906
915.019	14716
915.132	14629
915.245	14686
915.358	14724
915.47	14716
915.583	14625
915.696	14720
915.809	14807
915.921	14826
916.034	14636
916.146	14583
916.259	14571
916.371	14575
916.483	14667
916.595	14530
916.708	14632
916.82	14469
916.932	14492
917.044	14552
917.156	14454
917.268	14332
917.38	14351
917.491	14366
917.603	14362
917.715	14393
917.826	14488
917.938	14294
918.049	14206
918.161	14412
918.272	14507
918.384	14408
918.495	14343
918.606	14153
918.717	14100
918.828	14233
918.939	14168
919.05	13932
919.161	14043
919.272	13909
919.383	13967
919.494	14225
919.604	14298
919.715	14115
919.826	14024
919.936	14096
920.047	14206
920.157	14115
920.267	14271
920.378	14157
920.488	14103
920.598	14305
920.708	14404
920.818	14214
920.928	14237
921.038	14408
921.148	14301
921.258	14123
921.368	14054
921.477	13894
921.587	13849
921.697	13799
921.806	13814
921.916	13700
922.025	13586
922.134	13556
922.244	13438
922.353	13537
922.462	13354
922.571	13297
922.68	13126
922.789	13168
922.898	13069
923.007	13080
923.116	13206
923.224	13122
923.333	13107
923.442	13065
923.55	12897
923.659	12973
923.767	13000
923.876	13008
923.984	13034
924.092	12943
924.201	12939
924.309	12943
924.417	12951
924.525	12848
924.633	12833
924.741	13674
924.849	12601
924.956	12764
925.064	12635
925.172	12563
925.279	12540
925.387	12506
925.494	12681
925.602	12779
925.709	12692
925.816	12528
925.924	12570
926.031	12631
926.138	12555
926.245	12445
926.352	12410
926.459	12578
926.566	12563
926.673	12380
926.779	12441
926.886	12315
926.993	12209
927.099	12232
927.206	12095
927.312	12133
927.419	12254
927.525	12213
927.631	12159
927.737	12194
927.843	11969
927.95	11863
928.056	11954
928.162	12087
928.267	12148
928.373	12726
928.479	12041
928.585	11737
928.69	11965
928.796	11969
928.901	11828
929.007	11695
929.112	11859
929.218	11901
929.323	11665
929.428	11703
929.533	11897
929.638	11726
929.743	11676
929.848	11688
929.953	11657
930.058	11512
930.163	11516
930.267	11463
930.372	11566
930.477	11372
930.581	11608
930.685	11490
930.79	11322
930.894	11364
930.998	11372
931.103	11429
931.207	11075
931.311	10991
931.415	10987
931.519	10763
931.623	10733
