Data from test_V78500241_3117.txt Node
Date: Fri Mar 25 15:31:33 CST 2022
User: usil
Spectrometer: V785-0024
Trigger mode: 0
Integration Time (sec): 4.000000E-1
Scans to average: 1
Nonlinearity correction enabled: false
Boxcar width: 0
Storing dark spectrum: false
XAxis mode: Wavelengths
Number of Pixels in Spectrum: 1024
>>>>>Begin Spectral Data<<<<<
801.071	26868
801.214	26910
801.356	26533
801.499	26552
801.641	26423
801.783	26423
801.926	26530
802.068	26492
802.211	26434
802.353	26370
802.496	26168
802.638	26088
802.78	25993
802.923	26031
803.065	26016
803.208	26008
803.35	26103
803.492	26153
803.635	26153
803.777	26016
803.919	26225
804.061	26617
804.204	26183
804.346	26157
804.488	26168
804.63	26187
804.773	26119
804.915	26218
805.057	26229
805.199	26134
805.341	26225
805.483	26282
805.626	26218
805.768	26275
805.91	26358
806.052	26317
806.194	26183
806.336	26404
806.478	26267
806.62	26210
806.762	26347
806.904	26598
807.046	26819
807.188	26712
807.33	26720
807.472	26807
807.614	26655
807.756	26746
807.898	26659
808.04	26495
808.182	26530
808.324	26503
808.465	26568
808.607	26716
808.749	26868
808.891	26990
809.033	26933
809.174	26975
809.316	26830
809.458	26975
809.6	26883
809.741	26899
809.883	27009
810.025	27089
810.166	27150
810.308	27066
810.45	27119
810.591	27043
810.733	26853
810.875	26895
811.016	26640
811.158	26925
811.299	26872
811.441	27017
811.582	27009
811.724	26815
811.865	26830
812.007	26632
812.148	26944
812.29	26929
812.431	27043
812.573	27249
812.714	27214
812.855	27321
812.997	27454
813.138	27568
813.279	27519
813.421	27359
813.562	27218
813.703	27237
813.845	27055
813.986	26895
814.127	26594
814.268	26453
814.41	26530
814.551	26465
814.692	26469
814.833	26503
814.974	26476
815.115	26583
815.256	26206
815.397	26351
815.539	26400
815.68	26332
815.821	26248
815.962	26256
816.103	26385
816.244	26176
816.385	26073
816.526	25974
816.666	25833
816.807	25674
816.948	25811
817.089	25879
817.23	25761
817.371	25704
817.512	25571
817.653	25689
817.793	25712
817.934	25734
818.075	25738
818.216	25712
818.356	25738
818.497	25613
818.638	25521
818.778	25396
818.919	25559
819.06	25502
819.2	25670
819.341	25772
819.481	25776
819.622	25871
819.762	26062
819.903	25875
820.043	25780
820.184	25791
820.324	25837
820.465	25898
820.605	25849
820.746	25841
820.886	25696
821.026	25811
821.167	25708
821.307	25807
821.447	25696
821.588	25681
821.728	25495
821.868	25434
822.008	25179
822.149	25278
822.289	25213
822.429	24897
822.569	24779
822.709	24840
822.849	24779
822.99	24684
823.13	24563
823.27	24570
823.41	24490
823.55	24452
823.69	24536
823.83	24429
823.97	24521
824.11	24372
824.25	24388
824.389	24353
824.529	24509
824.669	24369
824.809	24460
824.949	24319
825.089	24342
825.228	24327
825.368	24213
825.508	24041
825.648	24178
825.787	24338
825.927	24243
826.067	24262
826.206	24266
826.346	24254
826.485	24228
826.625	24186
826.765	24376
826.904	24243
827.044	23882
827.183	23961
827.323	23961
827.462	24011
827.601	23836
827.741	23904
827.88	23916
828.02	23779
828.159	23790
828.298	23893
828.437	23916
828.577	23714
828.716	24018
828.855	23843
828.994	23657
829.134	23577
829.273	23642
829.412	23516
829.551	23497
829.69	23577
829.829	23657
829.968	23741
830.107	23737
830.246	23577
830.385	23615
830.524	23562
830.663	23509
830.802	23379
830.941	23140
831.08	23140
831.219	23364
831.357	23364
831.496	23433
831.635	23246
831.774	23044
831.913	23010
832.051	22984
832.19	22927
832.329	23071
832.467	22885
832.606	22782
832.744	22900
832.883	22938
833.022	22946
833.16	22904
833.299	22908
833.437	22995
833.576	23006
833.714	22980
833.852	23067
833.991	22930
834.129	23079
834.267	23094
834.406	22881
834.544	23086
834.682	22972
834.821	22953
834.959	23006
835.097	22812
835.235	22976
835.373	22965
835.511	22854
835.65	22790
835.788	22850
835.926	22679
836.064	22557
836.202	22634
836.34	22835
836.478	22862
836.615	22672
836.753	22843
836.891	22812
837.029	22733
837.167	22660
837.305	22771
837.443	22656
837.58	22713
837.718	22725
837.856	22725
837.993	22687
838.131	22596
838.269	22592
838.406	22508
838.544	22478
838.681	22253
838.819	22238
838.956	22177
839.094	22070
839.231	22230
839.369	22249
839.506	22424
839.643	22367
839.781	21987
839.918	22002
840.055	22177
840.193	22090
840.33	22067
840.467	22036
840.604	22185
840.742	22466
840.879	22063
841.016	21850
841.153	22051
841.29	22162
841.427	21915
841.564	22135
841.701	22101
841.838	21937
841.975	21968
842.112	21968
842.249	21964
842.385	21831
842.522	22036
842.659	22013
842.796	21812
842.933	21743
843.069	21876
843.206	21698
843.343	21930
843.479	21926
843.616	21827
843.752	21625
843.889	21583
844.025	21698
844.162	21523
844.298	21705
844.435	21599
844.571	21553
844.708	21701
844.844	21724
844.98	21641
845.117	21599
845.253	21568
845.389	21393
845.525	21500
845.661	21439
845.798	21313
845.934	21397
846.07	21192
846.206	21279
846.342	21428
846.478	21386
846.614	21112
846.75	21074
846.886	21043
847.022	21222
847.158	21028
847.294	21108
847.429	21062
847.565	21070
847.701	21382
847.837	20838
847.972	20758
848.108	20948
848.244	20910
848.379	20701
848.515	20708
848.65	20697
848.786	20678
848.921	20644
849.057	20785
849.192	20697
849.328	20609
849.463	20674
849.598	20533
849.734	20465
849.869	20469
850.004	20431
850.14	20423
850.275	20400
850.41	20446
850.545	20366
850.68	20412
850.815	20507
850.95	20473
851.085	20644
851.22	20560
851.355	20419
851.49	20415
851.625	20404
851.76	20587
851.895	20199
852.03	20438
852.165	20328
852.299	20446
852.434	20526
852.569	20389
852.703	20549
852.838	20473
852.973	20590
853.107	20518
853.242	20457
853.376	20278
853.511	20256
853.645	20103
853.78	20446
853.914	20214
854.048	20191
854.183	20202
854.317	20278
854.451	20495
854.585	20301
854.72	20332
854.854	20351
854.988	20252
855.122	20385
855.256	20126
855.39	20225
855.524	20438
855.658	20237
855.792	20347
855.926	20271
856.06	20271
856.194	20339
856.327	20282
856.461	20122
856.595	20183
856.729	20256
856.862	20438
856.996	20248
857.13	20355
857.263	20282
857.397	20450
857.53	20309
857.664	20259
857.797	20263
857.931	20256
858.064	20221
858.197	20431
858.331	20225
858.464	20221
858.597	20244
858.731	20298
858.864	20278
858.997	20252
859.13	20221
859.263	20298
859.396	20408
859.529	20286
859.662	20145
859.795	20202
859.928	20339
860.061	20396
860.194	20473
860.327	20221
860.46	20362
860.592	20336
860.725	20415
860.858	20446
860.99	20267
861.123	20161
861.256	20206
861.388	20259
861.521	20868
861.653	20229
861.786	20012
861.918	19951
862.05	20100
862.183	20145
862.315	20343
862.447	20153
862.58	20161
862.712	20046
862.844	19902
862.976	20103
863.108	20073
863.24	20362
863.372	19928
863.504	20111
863.636	20012
863.768	19909
863.9	20039
864.032	19928
864.164	19906
864.296	19807
864.428	20138
864.559	19947
864.691	20073
864.823	20005
864.954	20073
865.086	19951
865.217	19917
865.349	19917
865.48	19837
865.612	19761
865.743	20062
865.875	19883
866.006	19822
866.137	19849
866.269	19887
866.4	19944
866.531	19845
866.662	19795
866.793	19830
866.924	19906
867.055	19807
867.186	19864
867.317	19799
867.448	19723
867.579	19890
867.71	19856
867.841	19803
867.972	19837
868.103	19830
868.233	19921
868.364	19871
868.495	19997
868.625	20149
868.756	20210
868.886	20027
869.017	20058
869.147	20214
869.278	20317
869.408	20149
869.539	20046
869.669	20240
869.799	20062
869.929	20233
870.06	20191
870.19	20408
870.32	20328
870.45	20423
870.58	20606
870.71	20579
870.84	20625
870.97	20454
871.1	20518
871.23	20648
871.36	20708
871.489	20575
871.619	20663
871.749	20686
871.879	20830
872.008	20830
872.138	20686
872.267	20663
872.397	20716
872.526	20571
872.656	20556
872.785	20526
872.915	20682
873.044	20857
873.173	20769
873.303	20842
873.432	20834
873.561	20762
873.69	20792
873.819	20697
873.948	20773
874.077	20754
874.206	20640
874.335	20792
874.464	20960
874.593	20906
874.722	20883
874.851	21032
874.979	21020
875.108	20918
875.237	20906
875.365	20857
875.494	20941
875.623	21142
875.751	21066
875.88	21024
876.008	21017
876.136	21233
876.265	21401
876.393	21515
876.521	21435
876.65	21515
876.778	21401
876.906	21336
877.034	21237
877.162	21355
877.29	21336
877.418	21294
877.546	21367
877.674	21389
877.802	21260
877.93	21355
878.058	21279
878.185	21260
878.313	21291
878.441	21207
878.568	21157
878.696	21382
878.824	21321
878.951	21530
879.079	21542
879.206	21606
879.333	21553
879.461	21287
879.588	21439
879.715	21511
879.842	21652
879.97	21488
880.097	21241
880.224	21104
880.351	21119
880.478	21093
880.605	21222
880.732	21169
880.859	21443
880.986	21249
881.112	21169
881.239	21047
881.366	20941
881.493	20781
881.619	20731
881.746	20872
881.872	20785
881.999	20883
882.125	20758
882.252	20796
882.378	20625
882.505	20937
882.631	20609
882.757	20419
882.883	20549
883.01	20442
883.136	20434
883.262	20366
883.388	20377
883.514	20499
883.64	20518
883.766	20332
883.892	20240
884.018	20240
884.143	20488
884.269	20564
884.395	20142
884.52	20035
884.646	20130
884.772	20046
884.897	20134
885.023	20062
885.148	20202
885.274	20256
885.399	20164
885.524	20142
885.65	20077
885.775	20248
885.9	20126
886.025	20195
886.15	20164
886.275	20001
886.4	20084
886.525	20100
886.65	20062
886.775	20062
886.9	20290
887.025	20370
887.149	20073
887.274	19894
887.399	19879
887.523	19849
887.648	19902
887.773	19761
887.897	19978
888.021	19928
888.146	19890
888.27	19902
888.395	19917
888.519	19887
888.643	19925
888.767	19936
888.891	19837
889.015	19765
889.139	19788
889.263	19712
889.387	19830
889.511	19811
889.635	19841
889.759	19643
889.883	19693
890.006	19693
890.13	19746
890.254	19552
890.377	19685
890.501	19476
890.624	19453
890.748	19483
890.871	19403
890.995	19221
891.118	19274
891.241	19339
891.364	19312
891.488	19388
891.611	19274
891.734	19320
891.857	19419
891.98	19392
892.103	19453
892.226	19316
892.349	19179
892.471	19137
892.594	19198
892.717	19225
892.839	19206
892.962	19266
893.085	19240
893.207	19263
893.33	19217
893.452	19129
893.575	19324
893.697	19179
893.819	19415
893.941	19430
894.064	19415
894.186	19148
894.308	19038
894.43	19365
894.552	19422
894.674	19244
894.796	19084
894.918	19236
895.04	19247
895.161	19293
895.283	19213
895.405	19179
895.526	19213
895.648	19168
895.769	19221
895.891	19209
896.012	19251
896.134	19350
896.255	19285
896.376	19152
896.498	19274
896.619	19194
896.74	19335
896.861	19331
896.982	19632
897.103	19723
897.224	19392
897.345	19506
897.466	19362
897.587	19434
897.708	19647
897.828	19571
897.949	19407
898.07	19270
898.19	19453
898.311	19567
898.431	19457
898.552	19464
898.672	19594
898.792	19639
898.913	19552
899.033	19457
899.153	19327
899.273	19225
899.393	19255
899.513	19244
899.633	19373
899.753	19324
899.873	19126
899.993	19171
900.113	19133
900.232	19152
900.352	19164
900.472	19080
900.591	18989
900.711	19061
900.83	18977
900.95	19171
901.069	19103
901.189	18848
901.308	18738
901.427	18559
901.546	18722
901.665	18578
901.784	18665
901.904	18414
902.023	18285
902.141	18129
902.26	18209
902.379	18270
902.498	18220
902.617	18114
902.735	18091
902.854	18140
902.973	18121
903.091	17828
903.21	17733
903.328	17942
903.446	17680
903.565	17627
903.683	17714
903.801	17463
903.919	17619
904.038	17608
904.156	17341
904.274	17493
904.392	17383
904.51	17349
904.627	17277
904.745	17543
904.863	17440
904.981	17147
905.098	17162
905.216	17060
905.334	17094
905.451	17052
905.569	17143
905.686	17117
905.803	17064
905.921	16919
906.038	17018
906.155	16938
906.272	16759
906.389	16805
906.506	16641
906.623	16672
906.74	16660
906.857	16512
906.974	16607
907.091	16725
907.208	16668
907.324	16656
907.441	16516
907.557	16375
907.674	16386
907.79	16337
907.907	16356
908.023	16432
908.139	16394
908.256	16287
908.372	16238
908.488	16150
908.604	16131
908.72	16086
908.836	16063
908.952	16090
909.068	16063
909.184	16147
909.3	16177
909.415	16063
909.531	16044
909.647	15781
909.762	15759
909.878	15785
909.993	15842
910.108	15857
910.224	15686
910.339	15808
910.454	15709
910.57	15572
910.685	15553
910.8	15774
910.915	15747
911.03	15534
911.145	15481
911.259	15348
911.374	15393
911.489	15348
911.604	15283
911.718	15165
911.833	15146
911.947	15062
912.062	14975
912.176	15108
912.291	15214
912.405	15157
912.519	15329
912.633	15268
912.748	15218
912.862	15138
912.976	14906
913.09	14872
913.204	14941
913.318	14952
913.431	15104
913.545	15055
913.659	15127
913.772	14777
913.886	14754
914	14781
914.113	14918
914.226	14906
914.34	14823
914.453	14602
914.566	14849
914.68	14750
914.793	14568
914.906	14438
915.019	14492
915.132	14370
915.245	14374
915.358	14362
915.47	14514
915.583	14381
915.696	14434
915.809	14541
915.921	14560
916.034	14339
916.146	14301
916.259	14339
916.371	14358
916.483	14389
916.595	14202
916.708	14214
916.82	14252
916.932	14214
917.044	14259
917.156	14088
917.268	14084
917.38	14092
917.491	14001
917.603	14199
917.715	14161
917.826	14191
917.938	14096
918.049	13955
918.161	14084
918.272	14221
918.384	14134
918.495	14062
918.606	13970
918.717	13875
918.828	13887
918.939	13871
919.05	13871
919.161	13826
919.272	13658
919.383	13655
919.494	13860
919.604	14035
919.715	13807
919.826	13742
919.936	13772
920.047	13913
920.157	13803
920.267	14062
920.378	13864
920.488	13750
920.598	13925
920.708	14119
920.818	13982
920.928	13947
921.038	14161
921.148	14084
921.258	13841
921.368	13651
921.477	13609
921.587	13639
921.697	13499
921.806	13582
921.916	13480
922.025	13297
922.134	13263
922.244	13282
922.353	13327
922.462	13110
922.571	13080
922.68	12996
922.789	12875
922.898	12954
923.007	12833
923.116	12901
923.224	12867
923.333	12928
923.442	12783
923.55	12627
923.659	12787
923.767	12867
923.876	12681
923.984	12798
924.092	12597
924.201	12734
924.309	12658
924.417	12696
924.525	12593
924.633	12555
924.741	13464
924.849	12467
924.956	12452
925.064	12414
925.172	12330
925.279	12327
925.387	12445
925.494	12350
925.602	12509
925.709	12448
925.816	12262
925.924	12254
926.031	12361
926.138	12285
926.245	12235
926.352	12201
926.459	12251
926.566	12365
926.673	12251
926.779	12159
926.886	12136
926.993	11969
927.099	12007
927.206	11969
927.312	11897
927.419	11939
927.525	11836
927.631	11980
927.737	11832
927.843	11802
927.95	11737
928.056	11771
928.162	11767
928.267	11847
928.373	12350
928.479	11878
928.585	11562
928.69	11760
928.796	11767
928.901	11577
929.007	11543
929.112	11638
929.218	11623
929.323	11509
929.428	11486
929.533	11615
929.638	11490
929.743	11448
929.848	11459
929.953	11505
930.058	11372
930.163	11277
930.267	11265
930.372	11258
930.477	11193
930.581	11376
930.685	11227
930.79	11178
930.894	11155
930.998	11124
931.103	11258
931.207	10850
931.311	10771
931.415	10729
931.519	10519
931.623	10470
