Data from test_V78500241_2099.txt Node
Date: Fri Mar 25 15:24:28 CST 2022
User: usil
Spectrometer: V785-0024
Trigger mode: 0
Integration Time (sec): 4.000000E-1
Scans to average: 1
Nonlinearity correction enabled: false
Boxcar width: 0
Storing dark spectrum: false
XAxis mode: Wavelengths
Number of Pixels in Spectrum: 1024
>>>>>Begin Spectral Data<<<<<
801.071	27808
801.214	27911
801.356	27656
801.499	27564
801.641	27332
801.783	27370
801.926	27454
802.068	27507
802.211	27462
802.353	27298
802.496	27135
802.638	27051
802.78	27028
802.923	27009
803.065	27058
803.208	27116
803.35	27150
803.492	27180
803.635	27176
803.777	27226
803.919	27256
804.061	27618
804.204	27378
804.346	27245
804.488	27279
804.63	27287
804.773	27192
804.915	27184
805.057	27435
805.199	27249
805.341	27367
805.483	27492
805.626	27302
805.768	27249
805.91	27397
806.052	27252
806.194	27222
806.336	27583
806.478	27351
806.62	27382
806.762	27447
806.904	27789
807.046	27960
807.188	27854
807.33	27797
807.472	27846
807.614	27800
807.756	27804
807.898	27675
808.04	27679
808.182	27660
808.324	27774
808.465	27679
808.607	27884
808.749	28063
808.891	28063
809.033	28150
809.174	28128
809.316	28010
809.458	27956
809.6	27907
809.741	28128
809.883	28185
810.025	28379
810.166	28219
810.308	28310
810.45	28200
810.591	28048
810.733	28029
810.875	27975
811.016	27850
811.158	27964
811.299	28101
811.441	28284
811.582	28192
811.724	27911
811.865	27816
812.007	27964
812.148	27899
812.29	27945
812.431	28230
812.573	28443
812.714	28481
812.855	28569
812.997	28531
813.138	28835
813.279	28523
813.421	28626
813.562	28421
813.703	28230
813.845	28261
813.986	28051
814.127	27827
814.268	27751
814.41	27663
814.551	27622
814.692	27812
814.833	27698
814.974	27618
815.115	27785
815.256	27538
815.397	27576
815.539	27549
815.68	27572
815.821	27363
815.962	27454
816.103	27408
816.244	27325
816.385	27325
816.526	27302
816.666	27127
816.807	27055
816.948	27047
817.089	27085
817.23	27066
817.371	27062
817.512	27142
817.653	26967
817.793	26910
817.934	26925
818.075	27070
818.216	27131
818.356	26880
818.497	26921
818.638	26659
818.778	26765
818.919	26838
819.06	26811
819.2	26906
819.341	26948
819.481	27081
819.622	27058
819.762	27359
819.903	27180
820.043	27169
820.184	27066
820.324	27104
820.465	27081
820.605	27062
820.746	26990
820.886	26948
821.026	26998
821.167	27032
821.307	27081
821.447	26998
821.588	26887
821.728	26785
821.868	26617
822.008	26495
822.149	26564
822.289	26400
822.429	26221
822.569	26176
822.709	26016
822.849	25944
822.99	26092
823.13	26031
823.27	25917
823.41	25746
823.55	25681
823.69	25708
823.83	25700
823.97	25822
824.11	25552
824.25	25514
824.389	25556
824.529	25613
824.669	25651
824.809	25670
824.949	25624
825.089	25635
825.228	25605
825.368	25438
825.508	25403
825.648	25449
825.787	25556
825.927	25499
826.067	25449
826.206	25400
826.346	25616
826.485	25407
826.625	25377
826.765	25552
826.904	25502
827.044	25304
827.183	25263
827.323	25301
827.462	25369
827.601	25198
827.741	25274
827.88	25171
828.02	25129
828.159	25164
828.298	25289
828.437	25228
828.577	25187
828.716	25259
828.855	25148
828.994	24772
829.134	25012
829.273	24913
829.412	24764
829.551	24840
829.69	24966
829.829	24837
829.968	24871
830.107	25019
830.246	24825
830.385	24837
830.524	24890
830.663	24658
830.802	24684
830.941	24589
831.08	24498
831.219	24589
831.357	24593
831.496	24578
831.635	24441
831.774	24433
831.913	24350
832.051	24209
832.19	24216
832.329	24319
832.467	24133
832.606	24026
832.744	24251
832.883	24102
833.022	24018
833.16	24171
833.299	24117
833.437	24296
833.576	24266
833.714	24270
833.852	24266
833.991	24186
834.129	24209
834.267	24285
834.406	24254
834.544	24098
834.682	24224
834.821	24106
834.959	24422
835.097	24133
835.235	24300
835.373	24224
835.511	24182
835.65	23977
835.788	24011
835.926	23939
836.064	23745
836.202	23931
836.34	24038
836.478	24140
836.615	23950
836.753	23961
836.891	24079
837.029	24087
837.167	24076
837.305	23847
837.443	23821
837.58	23878
837.718	24018
837.856	23847
837.993	23809
838.131	23878
838.269	23802
838.406	23798
838.544	23623
838.681	23570
838.819	23543
838.956	23349
839.094	23341
839.231	23326
839.369	23429
839.506	23627
839.643	23535
839.781	23448
839.918	23296
840.055	23433
840.193	23315
840.33	23322
840.467	23277
840.604	23296
840.742	23478
840.879	23242
841.016	23193
841.153	23162
841.29	23341
841.427	23140
841.564	23239
841.701	23265
841.838	23181
841.975	23090
842.112	23151
842.249	23033
842.385	22968
842.522	23254
842.659	23193
842.796	22919
842.933	23140
843.069	23041
843.206	23029
843.343	23128
843.479	23083
843.616	23010
843.752	22831
843.889	22828
844.025	22835
844.162	22755
844.298	22961
844.435	22820
844.571	22683
844.708	22816
844.844	22923
844.98	22999
845.117	22854
845.253	22656
845.389	22721
845.525	22531
845.661	22710
845.798	22489
845.934	22611
846.07	22535
846.206	22554
846.342	22615
846.478	22478
846.614	22352
846.75	22356
846.886	22348
847.022	22333
847.158	22219
847.294	22352
847.429	22386
847.565	22188
847.701	22512
847.837	22063
847.972	22128
848.108	22025
848.244	22097
848.379	21945
848.515	21846
848.65	21846
848.786	21831
848.921	21865
849.057	21956
849.192	21884
849.328	21945
849.463	21888
849.598	21785
849.734	21629
849.869	21701
850.004	21633
850.14	21694
850.275	21633
850.41	21587
850.545	21637
850.68	21633
850.815	21587
850.95	21595
851.085	21895
851.22	21641
851.355	21671
851.49	21580
851.625	21572
851.76	21755
851.895	21603
852.03	21496
852.165	21682
852.299	21622
852.434	21682
852.569	21656
852.703	21515
852.838	21587
852.973	21637
853.107	21701
853.242	21477
853.376	21454
853.511	21279
853.645	21439
853.78	21481
853.914	21454
854.048	21359
854.183	21408
854.317	21595
854.451	21553
854.585	21367
854.72	21340
854.854	21599
854.988	21367
855.122	21329
855.256	21203
855.39	21382
855.524	21473
855.658	21530
855.792	21454
855.926	21545
856.06	21458
856.194	21492
856.327	21321
856.461	21363
856.595	21370
856.729	21397
856.862	21530
856.996	21473
857.13	21515
857.263	21606
857.397	21671
857.53	21302
857.664	21492
857.797	21488
857.931	21523
858.064	21397
858.197	21561
858.331	21439
858.464	21412
858.597	21272
858.731	21370
858.864	21538
858.997	21428
859.13	21424
859.263	21393
859.396	21424
859.529	21443
859.662	21492
859.795	21389
859.928	21454
860.061	21583
860.194	21625
860.327	21424
860.46	21378
860.592	21488
860.725	21587
860.858	21580
860.99	21424
861.123	21279
861.256	21321
861.388	21481
861.521	22082
861.653	21207
861.786	21245
861.918	21192
862.05	21291
862.183	21393
862.315	21321
862.447	21321
862.58	21264
862.712	21169
862.844	21138
862.976	21256
863.108	21176
863.24	21534
863.372	21062
863.504	21150
863.636	21173
863.768	21104
863.9	21157
864.032	20963
864.164	21112
864.296	21169
864.428	21184
864.559	21249
864.691	21123
864.823	21150
864.954	21051
865.086	21081
865.217	20921
865.349	20971
865.48	21036
865.612	20960
865.743	21108
865.875	21020
866.006	20960
866.137	21173
866.269	20956
866.4	20971
866.531	21028
866.662	20914
866.793	21039
866.924	20941
867.055	20994
867.186	20902
867.317	20941
867.448	20807
867.579	20960
867.71	20864
867.841	20899
867.972	21020
868.103	20937
868.233	20986
868.364	21047
868.495	20994
868.625	21245
868.756	21249
868.886	21100
869.017	21184
869.147	21329
869.278	21329
869.408	21154
869.539	21100
869.669	21378
869.799	21245
869.929	21374
870.06	21351
870.19	21564
870.32	21549
870.45	21545
870.58	21618
870.71	21690
870.84	21663
870.97	21648
871.1	21595
871.23	21774
871.36	21835
871.489	21732
871.619	21762
871.749	21842
871.879	21762
872.008	21941
872.138	21781
872.267	21873
872.397	21690
872.526	21618
872.656	21732
872.785	21610
872.915	21873
873.044	21892
873.173	21903
873.303	21907
873.432	21926
873.561	21972
873.69	21797
873.819	21785
873.948	21808
874.077	21918
874.206	21766
874.335	21819
874.464	21876
874.593	22090
874.722	22116
874.851	22021
874.979	22055
875.108	22139
875.237	22070
875.365	21892
875.494	22029
875.623	21964
875.751	21934
875.88	22093
876.008	22158
876.136	22253
876.265	22519
876.393	22519
876.521	22626
876.65	22542
876.778	22538
876.906	22409
877.034	22516
877.162	22394
877.29	22318
877.418	22329
877.546	22344
877.674	22356
877.802	22382
877.93	22360
878.058	22470
878.185	22234
878.313	22348
878.441	22348
878.568	22215
878.696	22162
878.824	22352
878.951	22436
879.079	22584
879.206	22580
879.333	22493
879.461	22478
879.588	22512
879.715	22538
879.842	22782
879.97	22470
880.097	22253
880.224	22207
880.351	22325
880.478	22318
880.605	22173
880.732	22280
880.859	22424
880.986	22234
881.112	22246
881.239	22128
881.366	22055
881.493	21949
881.619	21793
881.746	21831
881.872	21884
881.999	21747
882.125	21717
882.252	21884
882.378	21762
882.505	21789
882.631	21545
882.757	21538
882.883	21576
883.01	21587
883.136	21473
883.262	21336
883.388	21252
883.514	21545
883.64	21408
883.766	21428
883.892	21195
884.018	21218
884.143	21401
884.269	21447
884.395	21195
884.52	21104
884.646	21169
884.772	21036
884.897	21096
885.023	21150
885.148	21306
885.274	21317
885.399	21214
885.524	21214
885.65	21123
885.775	21173
885.9	21081
886.025	21294
886.15	21222
886.275	21112
886.4	21039
886.525	21135
886.65	20952
886.775	21123
886.9	21233
887.025	21279
887.149	21081
887.274	20864
887.399	20838
887.523	20872
887.648	20925
887.773	20830
887.897	20956
888.021	20925
888.146	20796
888.27	21024
888.395	21001
888.519	20941
888.643	20838
888.767	20933
888.891	20815
889.015	20712
889.139	20678
889.263	20617
889.387	20777
889.511	20921
889.635	20804
889.759	20629
889.883	20636
890.006	20842
890.13	20845
890.254	20602
890.377	20648
890.501	20552
890.624	20393
890.748	20503
890.871	20442
890.995	20199
891.118	20317
891.241	20305
891.364	20259
891.488	20400
891.611	20263
891.734	20286
891.857	20229
891.98	20332
892.103	20187
892.226	20263
892.349	20199
892.471	20092
892.594	20244
892.717	20138
892.839	20145
892.962	20153
893.085	20202
893.207	20145
893.33	20005
893.452	20103
893.575	20195
893.697	20229
893.819	20412
893.941	20377
894.064	20336
894.186	20202
894.308	20168
894.43	20278
894.552	20358
894.674	20267
894.796	20111
894.918	20103
895.04	20092
895.161	20168
895.283	20119
895.405	20035
895.526	20046
895.648	20176
895.769	20233
895.891	20187
896.012	20244
896.134	20164
896.255	20195
896.376	20031
896.498	20092
896.619	20210
896.74	20161
896.861	20229
896.982	20423
897.103	20609
897.224	20564
897.345	20362
897.466	20332
897.587	20396
897.708	20484
897.828	20503
897.949	20248
898.07	20134
898.19	20290
898.311	20389
898.431	20282
898.552	20404
898.672	20541
898.792	20450
898.913	20446
899.033	20244
899.153	20126
899.273	20039
899.393	20149
899.513	20161
899.633	20073
899.753	20077
899.873	20050
899.993	20244
900.113	20088
900.232	20062
900.352	19997
900.472	20043
900.591	19849
900.711	19936
900.83	19849
900.95	19940
901.069	19898
901.189	19845
901.308	19487
901.427	19525
901.546	19419
901.665	19548
901.784	19624
901.904	19377
902.023	19221
902.141	19076
902.26	19012
902.379	19164
902.498	18989
902.617	19015
902.735	19095
902.854	18939
902.973	18863
903.091	18791
903.21	18601
903.328	18661
903.446	18540
903.565	18536
903.683	18517
903.801	18350
903.919	18486
904.038	18513
904.156	18277
904.274	18342
904.392	18251
904.51	18068
904.627	18194
904.745	18369
904.863	18254
904.981	18045
905.098	17927
905.216	17855
905.334	17965
905.451	17954
905.569	17882
905.686	17912
905.803	17939
905.921	17771
906.038	17851
906.155	17653
906.272	17570
906.389	17630
906.506	17501
906.623	17387
906.74	17391
906.857	17433
906.974	17406
907.091	17581
907.208	17520
907.324	17478
907.441	17372
907.557	17223
907.674	17113
907.79	17128
907.907	17212
908.023	17181
908.139	17064
908.256	17147
908.372	17094
908.488	17003
908.604	16972
908.72	16809
908.836	16896
908.952	16828
909.068	16911
909.184	16980
909.3	16900
909.415	16949
909.531	16892
909.647	16660
909.762	16558
909.878	16618
909.993	16527
910.108	16527
910.224	16478
910.339	16569
910.454	16398
910.57	16333
910.685	16257
910.8	16561
910.915	16580
911.03	16356
911.145	16207
911.259	16173
911.374	16143
911.489	16154
911.604	16029
911.718	15873
911.833	15892
911.947	15907
912.062	15762
912.176	15941
912.291	15926
912.405	15907
912.519	16051
912.633	16093
912.748	15964
912.862	15907
912.976	15698
913.09	15690
913.204	15622
913.318	15831
913.431	15770
913.545	15743
913.659	15895
913.772	15656
913.886	15675
914	15496
914.113	15720
914.226	15580
914.34	15549
914.453	15477
914.566	15485
914.68	15405
914.793	15389
914.906	15233
915.019	15116
915.132	15112
915.245	15089
915.358	15127
915.47	15142
915.583	15047
915.696	15199
915.809	15245
915.921	15112
916.034	15070
916.146	15036
916.259	15036
916.371	15074
916.483	15077
916.595	14982
916.708	14952
916.82	15055
916.932	14880
917.044	14933
917.156	14941
917.268	14781
917.38	14773
917.491	14781
917.603	14727
917.715	14815
917.826	14845
917.938	14769
918.049	14739
918.161	14758
918.272	14941
918.384	14880
918.495	14796
918.606	14522
918.717	14530
918.828	14606
918.939	14606
919.05	14488
919.161	14492
919.272	14393
919.383	14385
919.494	14526
919.604	14891
919.715	14431
919.826	14488
919.936	14423
920.047	14568
920.157	14480
920.267	14777
920.378	14602
920.488	14503
920.598	14735
920.708	14727
920.818	14644
920.928	14590
921.038	14849
921.148	14769
921.258	14476
921.368	14294
921.477	14225
921.587	14218
921.697	14126
921.806	14404
921.916	14115
922.025	14001
922.134	13898
922.244	13932
922.353	13925
922.462	13738
922.571	13723
922.68	13529
922.789	13559
922.898	13609
923.007	13495
923.116	13521
923.224	13499
923.333	13460
923.442	13384
923.55	13373
923.659	13419
923.767	13483
923.876	13255
923.984	13476
924.092	13209
924.201	13274
924.309	13270
924.417	13285
924.525	13171
924.633	13251
924.741	13993
924.849	13038
924.956	13145
925.064	13050
925.172	12924
925.279	12943
925.387	12943
925.494	13004
925.602	13046
925.709	12989
925.816	12954
925.924	12909
926.031	12913
926.138	12966
926.245	12954
926.352	12791
926.459	12890
926.566	12920
926.673	12833
926.779	12700
926.886	12650
926.993	12593
927.099	12555
927.206	12502
927.312	12544
927.419	12521
927.525	12570
927.631	12578
927.737	12403
927.843	12296
927.95	12247
928.056	12319
928.162	12281
928.267	12353
928.373	12939
928.479	12330
928.585	12175
928.69	12289
928.796	12346
928.901	12281
929.007	12030
929.112	12239
929.218	12205
929.323	12110
929.428	12034
929.533	12186
929.638	12019
929.743	12045
929.848	12022
929.953	12045
930.058	11843
930.163	11691
930.267	11790
930.372	11874
930.477	11714
930.581	11923
930.685	11775
930.79	11551
930.894	11668
930.998	11627
931.103	11843
931.207	11406
931.311	11280
931.415	11223
931.519	11003
931.623	10938
