Data from test_V78500241_2664.txt Node
Date: Fri Mar 25 15:28:24 CST 2022
User: usil
Spectrometer: V785-0024
Trigger mode: 0
Integration Time (sec): 4.000000E-1
Scans to average: 1
Nonlinearity correction enabled: false
Boxcar width: 0
Storing dark spectrum: false
XAxis mode: Wavelengths
Number of Pixels in Spectrum: 1024
>>>>>Begin Spectral Data<<<<<
801.071	26979
801.214	26975
801.356	26773
801.499	26735
801.641	26587
801.783	26541
801.926	26629
802.068	26697
802.211	26473
802.353	26518
802.496	26294
802.638	26290
802.78	26256
802.923	26130
803.065	26092
803.208	26111
803.35	26199
803.492	26351
803.635	26366
803.777	26221
803.919	26473
804.061	26811
804.204	26343
804.346	26317
804.488	26351
804.63	26362
804.773	26252
804.915	26332
805.057	26484
805.199	26339
805.341	26358
805.483	26396
805.626	26427
805.768	26419
805.91	26229
806.052	26560
806.194	26499
806.336	26659
806.478	26541
806.62	26465
806.762	26594
806.904	26716
807.046	26960
807.188	26834
807.33	26773
807.472	26937
807.614	26724
807.756	26739
807.898	26811
808.04	26777
808.182	26655
808.324	26689
808.465	26773
808.607	26967
808.749	27001
808.891	27150
809.033	27093
809.174	27119
809.316	26891
809.458	26979
809.6	26853
809.741	27089
809.883	27252
810.025	27313
810.166	27272
810.308	27351
810.45	27306
810.591	27348
810.733	27051
810.875	27066
811.016	26948
811.158	26967
811.299	27135
811.441	27306
811.582	27154
811.724	26937
811.865	27131
812.007	27032
812.148	27074
812.29	27222
812.431	27230
812.573	27203
812.714	27408
812.855	27511
812.997	27557
813.138	27648
813.279	27679
813.421	27542
813.562	27557
813.703	27306
813.845	27230
813.986	26861
814.127	26944
814.268	26655
814.41	26689
814.551	26629
814.692	26750
814.833	26682
814.974	26712
815.115	26705
815.256	26571
815.397	26575
815.539	26632
815.68	26492
815.821	26396
815.962	26507
816.103	26571
816.244	26328
816.385	26324
816.526	26210
816.666	26065
816.807	25936
816.948	26107
817.089	26058
817.23	25898
817.371	25947
817.512	26008
817.653	25818
817.793	25909
817.934	26008
818.075	26005
818.216	25944
818.356	25830
818.497	25788
818.638	25693
818.778	25666
818.919	25708
819.06	25761
819.2	25898
819.341	25982
819.481	25902
819.622	25955
819.762	26290
819.903	26062
820.043	26103
820.184	26024
820.324	26016
820.465	26100
820.605	26058
820.746	26065
820.886	25871
821.026	26046
821.167	25845
821.307	26024
821.447	25833
821.588	25852
821.728	25651
821.868	25540
822.008	25438
822.149	25362
822.289	25419
822.429	25187
822.569	25095
822.709	25091
822.849	24973
822.99	25031
823.13	24954
823.27	24878
823.41	24719
823.55	24677
823.69	24726
823.83	24616
823.97	24711
824.11	24486
824.25	24608
824.389	24540
824.529	24650
824.669	24467
824.809	24711
824.949	24616
825.089	24585
825.228	24563
825.368	24353
825.508	24490
825.648	24505
825.787	24479
825.927	24414
826.067	24433
826.206	24388
826.346	24570
826.485	24517
826.625	24410
826.765	24525
826.904	24418
827.044	24213
827.183	24178
827.323	24144
827.462	24220
827.601	24121
827.741	24098
827.88	24106
828.02	23942
828.159	24030
828.298	24083
828.437	24243
828.577	23904
828.716	24194
828.855	24057
828.994	23798
829.134	23939
829.273	23836
829.412	23901
829.551	23687
829.69	23798
829.829	23866
829.968	23828
830.107	23836
830.246	23779
830.385	23615
830.524	23684
830.663	23627
830.802	23463
830.941	23425
831.08	23421
831.219	23528
831.357	23406
831.496	23627
831.635	23490
831.774	23410
831.913	23299
832.051	23117
832.19	23090
832.329	23250
832.467	23098
832.606	23098
832.744	23071
832.883	23170
833.022	23132
833.16	23067
833.299	23208
833.437	23197
833.576	23181
833.714	23140
833.852	23212
833.991	23273
834.129	23178
834.267	23368
834.406	23151
834.544	23277
834.682	23121
834.821	23258
834.959	23372
835.097	23086
835.235	23307
835.373	23231
835.511	23181
835.65	23064
835.788	23029
835.926	22976
836.064	22835
836.202	22923
836.34	23067
836.478	22961
836.615	22991
836.753	22980
836.891	23075
837.029	23117
837.167	22968
837.305	22946
837.443	22889
837.58	22873
837.718	22934
837.856	23014
837.993	22850
838.131	22824
838.269	22733
838.406	22881
838.544	22672
838.681	22485
838.819	22451
838.956	22341
839.094	22371
839.231	22409
839.369	22493
839.506	22687
839.643	22550
839.781	22265
839.918	22310
840.055	22246
840.193	22341
840.33	22200
840.467	22394
840.604	22246
840.742	22550
840.879	22238
841.016	22268
841.153	22177
841.29	22341
841.427	22219
841.564	22265
841.701	22352
841.838	22246
841.975	22139
842.112	22337
842.249	22067
842.385	22234
842.522	22348
842.659	22196
842.796	22013
842.933	22048
843.069	21964
843.206	22086
843.343	22150
843.479	21991
843.616	21975
843.752	21880
843.889	21888
844.025	21915
844.162	21755
844.298	21922
844.435	21804
844.571	21793
844.708	21705
844.844	21903
844.98	21918
845.117	21945
845.253	21816
845.389	21663
845.525	21679
845.661	21720
845.798	21618
845.934	21485
846.07	21515
846.206	21648
846.342	21652
846.478	21534
846.614	21424
846.75	21294
846.886	21332
847.022	21355
847.158	21317
847.294	21306
847.429	21306
847.565	21260
847.701	21526
847.837	21062
847.972	20994
848.108	21104
848.244	21112
848.379	20918
848.515	20975
848.65	20861
848.786	20956
848.921	20895
849.057	21009
849.192	20902
849.328	20830
849.463	20990
849.598	20754
849.734	20777
849.869	20773
850.004	20804
850.14	20617
850.275	20651
850.41	20663
850.545	20590
850.68	20549
850.815	20754
850.95	20621
851.085	20769
851.22	20815
851.355	20644
851.49	20587
851.625	20644
851.76	20648
851.895	20587
852.03	20697
852.165	20648
852.299	20743
852.434	20674
852.569	20674
852.703	20556
852.838	20556
852.973	20937
853.107	20765
853.242	20579
853.376	20347
853.511	20339
853.645	20434
853.78	20613
853.914	20492
854.048	20454
854.183	20507
854.317	20503
854.451	20590
854.585	20526
854.72	20587
854.854	20575
854.988	20442
855.122	20606
855.256	20454
855.39	20518
855.524	20537
855.658	20651
855.792	20511
855.926	20442
856.06	20499
856.194	20648
856.327	20526
856.461	20492
856.595	20530
856.729	20461
856.862	20606
856.996	20476
857.13	20575
857.263	20640
857.397	20598
857.53	20499
857.664	20552
857.797	20484
857.931	20549
858.064	20526
858.197	20587
858.331	20545
858.464	20427
858.597	20298
858.731	20537
858.864	20473
858.997	20446
859.13	20541
859.263	20484
859.396	20598
859.529	20499
859.662	20389
859.795	20309
859.928	20469
860.061	20693
860.194	20598
860.327	20492
860.46	20568
860.592	20598
860.725	20640
860.858	20651
860.99	20412
861.123	20476
861.256	20450
861.388	20438
861.521	21218
861.653	20393
861.786	20396
861.918	20343
862.05	20419
862.183	20374
862.315	20522
862.447	20541
862.58	20461
862.712	20168
862.844	20221
862.976	20301
863.108	20309
863.24	20686
863.372	20149
863.504	20119
863.636	20225
863.768	20305
863.9	20161
864.032	20096
864.164	20183
864.296	20256
864.428	20332
864.559	20320
864.691	20275
864.823	20187
864.954	20161
865.086	20256
865.217	20164
865.349	20073
865.48	20084
865.612	20275
865.743	20218
865.875	20176
866.006	20111
866.137	20180
866.269	20073
866.4	20069
866.531	20012
866.662	20081
866.793	20081
866.924	20195
867.055	20115
867.186	20081
867.317	20092
867.448	19906
867.579	20183
867.71	20008
867.841	20005
867.972	20005
868.103	20043
868.233	20046
868.364	20058
868.495	20229
868.625	20343
868.756	20454
868.886	20256
869.017	20214
869.147	20374
869.278	20415
869.408	20339
869.539	20294
869.669	20518
869.799	20355
869.929	20393
870.06	20370
870.19	20552
870.32	20564
870.45	20640
870.58	20689
870.71	20834
870.84	20838
870.97	20842
871.1	20689
871.23	20845
871.36	20868
871.489	20807
871.619	20929
871.749	20811
871.879	20918
872.008	21051
872.138	20960
872.267	20956
872.397	20781
872.526	20758
872.656	20750
872.785	20796
872.915	20804
873.044	21032
873.173	20891
873.303	20963
873.432	20864
873.561	20982
873.69	21013
873.819	20906
873.948	21112
874.077	20967
874.206	20929
874.335	20891
874.464	21051
874.593	21169
874.722	21100
874.851	21195
874.979	21233
875.108	21161
875.237	21165
875.365	21085
875.494	21211
875.623	21272
875.751	21222
875.88	21214
876.008	21348
876.136	21397
876.265	21580
876.393	21823
876.521	21667
876.65	21587
876.778	21641
876.906	21671
877.034	21454
877.162	21488
877.29	21454
877.418	21545
877.546	21587
877.674	21549
877.802	21583
877.93	21545
878.058	21515
878.185	21439
878.313	21534
878.441	21401
878.568	21359
878.696	21504
878.824	21587
878.951	21648
879.079	21724
879.206	21873
879.333	21694
879.461	21637
879.588	21755
879.715	21732
879.842	21808
879.97	21572
880.097	21416
880.224	21291
880.351	21302
880.478	21416
880.605	21211
880.732	21382
880.859	21610
880.986	21313
881.112	21291
881.239	21264
881.366	21173
881.493	21089
881.619	20990
881.746	21028
881.872	21005
881.999	20910
882.125	21001
882.252	20990
882.378	21005
882.505	21066
882.631	20857
882.757	20644
882.883	20724
883.01	20663
883.136	20560
883.262	20613
883.388	20404
883.514	20735
883.64	20651
883.766	20568
883.892	20419
884.018	20492
884.143	20644
884.269	20735
884.395	20339
884.52	20317
884.646	20358
884.772	20301
884.897	20286
885.023	20358
885.148	20377
885.274	20476
885.399	20446
885.524	20256
885.65	20370
885.775	20473
885.9	20351
886.025	20473
886.15	20358
886.275	20259
886.4	20229
886.525	20191
886.65	20199
886.775	20180
886.9	20358
887.025	20552
887.149	20271
887.274	20111
887.399	20062
887.523	20107
887.648	19959
887.773	19856
887.897	20229
888.021	20084
888.146	20073
888.27	20180
888.395	20069
888.519	20035
888.643	20111
888.767	20107
888.891	20027
889.015	19830
889.139	19875
889.263	19917
889.387	19967
889.511	20081
889.635	20020
889.759	19898
889.883	19879
890.006	19860
890.13	19925
890.254	19837
890.377	19818
890.501	19753
890.624	19571
890.748	19582
890.871	19624
890.995	19419
891.118	19320
891.241	19506
891.364	19510
891.488	19635
891.611	19373
891.734	19464
891.857	19544
891.98	19506
892.103	19620
892.226	19415
892.349	19476
892.471	19301
892.594	19419
892.717	19358
892.839	19335
892.962	19388
893.085	19483
893.207	19369
893.33	19240
893.452	19278
893.575	19362
893.697	19396
893.819	19552
893.941	19453
894.064	19518
894.186	19255
894.308	19343
894.43	19460
894.552	19434
894.674	19445
894.796	19407
894.918	19449
895.04	19381
895.161	19453
895.283	19377
895.405	19449
895.526	19403
895.648	19559
895.769	19354
895.891	19400
896.012	19510
896.134	19476
896.255	19419
896.376	19343
896.498	19514
896.619	19453
896.74	19308
896.861	19476
896.982	19738
897.103	19936
897.224	19681
897.345	19605
897.466	19605
897.587	19700
897.708	19696
897.828	19635
897.949	19537
898.07	19533
898.19	19499
898.311	19628
898.431	19586
898.552	19632
898.672	19624
898.792	19689
898.913	19483
899.033	19635
899.153	19422
899.273	19388
899.393	19445
899.513	19381
899.633	19365
899.753	19411
899.873	19400
899.993	19480
900.113	19388
900.232	19327
900.352	19324
900.472	19327
900.591	19088
900.711	19289
900.83	19110
900.95	19282
901.069	19255
901.189	18966
901.308	18932
901.427	18833
901.546	18749
901.665	18772
901.784	18681
901.904	18741
902.023	18532
902.141	18441
902.26	18311
902.379	18353
902.498	18277
902.617	18247
902.735	18346
902.854	18273
902.973	18270
903.091	18011
903.21	17950
903.328	18003
903.446	17916
903.565	17783
903.683	17802
903.801	17653
903.919	17687
904.038	17676
904.156	17638
904.274	17707
904.392	17551
904.51	17455
904.627	17551
904.745	17661
904.863	17608
904.981	17497
905.098	17227
905.216	17216
905.334	17318
905.451	17204
905.569	17227
905.686	17208
905.803	17200
905.921	17090
906.038	17140
906.155	17064
906.272	16904
906.389	16904
906.506	16736
906.623	16733
906.74	16691
906.857	16698
906.974	16683
907.091	16733
907.208	16904
907.324	16805
907.441	16672
907.557	16489
907.674	16531
907.79	16538
907.907	16508
908.023	16584
908.139	16432
908.256	16382
908.372	16375
908.488	16363
908.604	16253
908.72	16196
908.836	16238
908.952	16074
909.068	16211
909.184	16325
909.3	16150
909.415	16219
909.531	16101
909.647	15956
909.762	15956
909.878	15960
909.993	15922
910.108	15857
910.224	15835
910.339	15838
910.454	15747
910.57	15698
910.685	15561
910.8	15953
910.915	15895
911.03	15755
911.145	15576
911.259	15553
911.374	15587
911.489	15481
911.604	15420
911.718	15256
911.833	15336
911.947	15199
912.062	15184
912.176	15351
912.291	15412
912.405	15275
912.519	15511
912.633	15416
912.748	15291
912.862	15252
912.976	15203
913.09	14982
913.204	15001
913.318	15089
913.431	15260
913.545	15233
913.659	15218
913.772	15089
913.886	14887
914	14914
914.113	15070
914.226	15032
914.34	14906
914.453	14788
914.566	14998
914.68	14769
914.793	14754
914.906	14594
915.019	14579
915.132	14446
915.245	14480
915.358	14571
915.47	14545
915.583	14522
915.696	14514
915.809	14644
915.921	14602
916.034	14556
916.146	14514
916.259	14419
916.371	14507
916.483	14602
916.595	14408
916.708	14404
916.82	14419
916.932	14370
917.044	14374
917.156	14267
917.268	14248
917.38	14202
917.491	14210
917.603	14286
917.715	14309
917.826	14248
917.938	14153
918.049	14069
918.161	14138
918.272	14320
918.384	14259
918.495	14115
918.606	14016
918.717	13913
918.828	13967
918.939	13997
919.05	13917
919.161	13986
919.272	13776
919.383	13925
919.494	14012
919.604	14164
919.715	13871
919.826	13951
919.936	13963
920.047	14065
920.157	13940
920.267	14244
920.378	14035
920.488	13887
920.598	14157
920.708	14259
920.818	14145
920.928	13978
921.038	14290
921.148	14202
921.258	13974
921.368	13845
921.477	13803
921.587	13742
921.697	13567
921.806	13708
921.916	13586
922.025	13381
922.134	13297
922.244	13384
922.353	13381
922.462	13232
922.571	13228
922.68	13080
922.789	13023
922.898	13069
923.007	12996
923.116	12981
923.224	13042
923.333	13004
923.442	12886
923.55	12878
923.659	12867
923.767	12890
923.876	12776
923.984	12817
924.092	12787
924.201	12734
924.309	12734
924.417	12829
924.525	12700
924.633	12730
924.741	13556
924.849	12464
924.956	12612
925.064	12475
925.172	12471
925.279	12490
925.387	12540
925.494	12429
925.602	12608
925.709	12475
925.816	12353
925.924	12346
926.031	12490
926.138	12403
926.245	12464
926.352	12311
926.459	12445
926.566	12536
926.673	12338
926.779	12266
926.886	12235
926.993	12072
927.099	12049
927.206	12011
927.312	11969
927.419	12091
927.525	12076
927.631	12079
927.737	12003
927.843	11931
927.95	11821
928.056	11893
928.162	11859
928.267	11977
928.373	12414
928.479	11950
928.585	11794
928.69	11714
928.796	11794
928.901	11745
929.007	11581
929.112	11790
929.218	11703
929.323	11680
929.428	11543
929.533	11821
929.638	11630
929.743	11562
929.848	11608
929.953	11646
930.058	11417
930.163	11258
930.267	11303
930.372	11429
930.477	11296
930.581	11429
930.685	11318
930.79	11151
930.894	11185
930.998	11185
931.103	11379
931.207	10919
931.311	10892
931.415	10816
931.519	10527
931.623	10603
