Data from test_V78500241_3557.txt Node
Date: Fri Mar 25 15:34:37 CST 2022
User: usil
Spectrometer: V785-0024
Trigger mode: 0
Integration Time (sec): 4.000000E-1
Scans to average: 1
Nonlinearity correction enabled: false
Boxcar width: 0
Storing dark spectrum: false
XAxis mode: Wavelengths
Number of Pixels in Spectrum: 1024
>>>>>Begin Spectral Data<<<<<
801.071	27325
801.214	27043
801.356	26785
801.499	26960
801.641	26781
801.783	26807
801.926	26887
802.068	26762
802.211	26731
802.353	26648
802.496	26431
802.638	26457
802.78	26313
802.923	26355
803.065	26278
803.208	26377
803.35	26427
803.492	26495
803.635	26484
803.777	26461
803.919	26602
804.061	26990
804.204	26644
804.346	26389
804.488	26362
804.63	26495
804.773	26427
804.915	26446
805.057	26670
805.199	26488
805.341	26625
805.483	26670
805.626	26724
805.768	26480
805.91	26678
806.052	26621
806.194	26674
806.336	26735
806.478	26697
806.62	26568
806.762	26682
806.904	26952
807.046	27066
807.188	27138
807.33	27043
807.472	27096
807.614	27077
807.756	27135
807.898	26845
808.04	26902
808.182	26857
808.324	26792
808.465	26948
808.607	27077
808.749	27161
808.891	27245
809.033	27378
809.174	27214
809.316	27195
809.458	27351
809.6	27298
809.741	27416
809.883	27408
810.025	27633
810.166	27443
810.308	27454
810.45	27572
810.591	27473
810.733	27237
810.875	27184
811.016	26967
811.158	27203
811.299	27203
811.441	27359
811.582	27287
811.724	27154
811.865	27138
812.007	27313
812.148	27180
812.29	27287
812.431	27386
812.573	27534
812.714	27618
812.855	27625
812.997	27732
813.138	27934
813.279	27945
813.421	27732
813.562	27728
813.703	27679
813.845	27603
813.986	27138
814.127	27009
814.268	26975
814.41	26842
814.551	26967
814.692	26876
814.833	26861
814.974	26861
815.115	26883
815.256	26754
815.397	26739
815.539	26800
815.68	26663
815.821	26640
815.962	26602
816.103	26674
816.244	26484
816.385	26381
816.526	26385
816.666	26206
816.807	26142
816.948	26259
817.089	26324
817.23	26096
817.371	26077
817.512	26126
817.653	26183
817.793	26119
817.934	26233
818.075	26149
818.216	26115
818.356	26031
818.497	26081
818.638	25822
818.778	25963
818.919	25845
819.06	25925
819.2	26024
819.341	26054
819.481	26191
819.622	26282
819.762	26537
819.903	26495
820.043	26419
820.184	26298
820.324	26267
820.465	26358
820.605	26366
820.746	26248
820.886	26199
821.026	26218
821.167	26229
821.307	26256
821.447	26214
821.588	26035
821.728	25894
821.868	25750
822.008	25788
822.149	25643
822.289	25556
822.429	25476
822.569	25301
822.709	25225
822.849	25187
822.99	25171
823.13	24966
823.27	25114
823.41	25027
823.55	24856
823.69	24992
823.83	24905
823.97	24875
824.11	24661
824.25	24848
824.389	24802
824.529	24897
824.669	24753
824.809	24890
824.949	24833
825.089	24863
825.228	24760
825.368	24757
825.508	24544
825.648	24711
825.787	24681
825.927	24692
826.067	24604
826.206	24642
826.346	24741
826.485	24623
826.625	24536
826.765	24753
826.904	24722
827.044	24494
827.183	24456
827.323	24361
827.462	24540
827.601	24296
827.741	24300
827.88	24452
828.02	24232
828.159	24388
828.298	24281
828.437	24471
828.577	24300
828.716	24384
828.855	24262
828.994	24072
829.134	24106
829.273	24110
829.412	23988
829.551	23965
829.69	24041
829.829	24098
829.968	24213
830.107	24144
830.246	24079
830.385	24011
830.524	24015
830.663	23954
830.802	23863
830.941	23623
831.08	23638
831.219	23927
831.357	23790
831.496	23809
831.635	23691
831.774	23589
831.913	23581
832.051	23493
832.19	23455
832.329	23448
832.467	23311
832.606	23334
832.744	23364
832.883	23341
833.022	23258
833.16	23303
833.299	23524
833.437	23436
833.576	23372
833.714	23486
833.852	23566
833.991	23429
834.129	23516
834.267	23459
834.406	23535
834.544	23459
834.682	23509
834.821	23417
834.959	23737
835.097	23391
835.235	23429
835.373	23524
835.511	23417
835.65	23261
835.788	23280
835.926	23124
836.064	23060
836.202	23147
836.34	23341
836.478	23334
836.615	23334
836.753	23166
836.891	23315
837.029	23421
837.167	23303
837.305	23250
837.443	23121
837.58	23075
837.718	23136
837.856	23121
837.993	23117
838.131	23109
838.269	23113
838.406	23033
838.544	22923
838.681	22786
838.819	22649
838.956	22668
839.094	22698
839.231	22611
839.369	22729
839.506	22911
839.643	22839
839.781	22649
839.918	22481
840.055	22626
840.193	22649
840.33	22493
840.467	22611
840.604	22516
840.742	22854
840.879	22386
841.016	22603
841.153	22447
841.29	22740
841.427	22557
841.564	22645
841.701	22569
841.838	22535
841.975	22459
842.112	22474
842.249	22348
842.385	22226
842.522	22451
842.659	22504
842.796	22386
842.933	22375
843.069	22295
843.206	22219
843.343	22390
843.479	22303
843.616	22356
843.752	22295
843.889	22109
844.025	22253
844.162	22051
844.298	22147
844.435	22082
844.571	22070
844.708	22158
844.844	22249
844.98	22200
845.117	22249
845.253	22021
845.389	21987
845.525	22090
845.661	21983
845.798	21846
845.934	21949
846.07	21800
846.206	21781
846.342	21926
846.478	21720
846.614	21690
846.75	21530
846.886	21519
847.022	21622
847.158	21637
847.294	21519
847.429	21652
847.565	21519
847.701	21884
847.837	21310
847.972	21313
848.108	21485
848.244	21447
848.379	21222
848.515	21100
848.65	21138
848.786	21146
848.921	21207
849.057	21317
849.192	21241
849.328	21355
849.463	21184
849.598	21188
849.734	21127
849.869	20990
850.004	20864
850.14	21005
850.275	20887
850.41	20895
850.545	20887
850.68	20834
850.815	20982
850.95	20929
851.085	20979
851.22	21176
851.355	20937
851.49	20887
851.625	20990
851.76	20796
851.895	20819
852.03	20944
852.165	20986
852.299	20982
852.434	20861
852.569	21024
852.703	20883
852.838	20956
852.973	21017
853.107	21066
853.242	20937
853.376	20746
853.511	20697
853.645	20663
853.78	20796
853.914	20724
854.048	20689
854.183	20750
854.317	20834
854.451	20929
854.585	20777
854.72	20731
854.854	20853
854.988	20762
855.122	20765
855.256	20636
855.39	20712
855.524	20918
855.658	20861
855.792	20769
855.926	20830
856.06	20781
856.194	20834
856.327	20724
856.461	20735
856.595	20754
856.729	20697
856.862	20872
856.996	20724
857.13	20773
857.263	20952
857.397	20880
857.53	20716
857.664	20758
857.797	20845
857.931	20899
858.064	20785
858.197	20868
858.331	20731
858.464	20708
858.597	20727
858.731	20838
858.864	20731
858.997	20670
859.13	20701
859.263	20743
859.396	20785
859.529	20746
859.662	20636
859.795	20629
859.928	20834
860.061	20883
860.194	20906
860.327	20750
860.46	20769
860.592	20883
860.725	20948
860.858	20891
860.99	20788
861.123	20777
861.256	20712
861.388	20648
861.521	21572
861.653	20670
861.786	20549
861.918	20602
862.05	20651
862.183	20762
862.315	20769
862.447	20720
862.58	20636
862.712	20518
862.844	20438
862.976	20613
863.108	20438
863.24	20788
863.372	20473
863.504	20560
863.636	20461
863.768	20621
863.9	20499
864.032	20476
864.164	20450
864.296	20492
864.428	20606
864.559	20571
864.691	20552
864.823	20541
864.954	20469
865.086	20571
865.217	20457
865.349	20427
865.48	20446
865.612	20450
865.743	20389
865.875	20560
866.006	20419
866.137	20473
866.269	20355
866.4	20332
866.531	20294
866.662	20263
866.793	20256
866.924	20381
867.055	20385
867.186	20339
867.317	20355
867.448	20210
867.579	20275
867.71	20332
867.841	20309
867.972	20317
868.103	20328
868.233	20263
868.364	20339
868.495	20339
868.625	20469
868.756	20533
868.886	20556
869.017	20629
869.147	20659
869.278	20537
869.408	20659
869.539	20442
869.669	20583
869.799	20636
869.929	20826
870.06	20655
870.19	20845
870.32	20887
870.45	20963
870.58	20895
870.71	21009
870.84	21135
870.97	20986
871.1	20872
871.23	21188
871.36	21165
871.489	20994
871.619	21135
871.749	21157
871.879	21154
872.008	21287
872.138	21085
872.267	21096
872.397	21055
872.526	20971
872.656	21062
872.785	20937
872.915	21093
873.044	21245
873.173	21077
873.303	21165
873.432	21291
873.561	21359
873.69	21131
873.819	21169
873.948	21298
874.077	21264
874.206	21085
874.335	21055
874.464	21306
874.593	21477
874.722	21424
874.851	21458
874.979	21504
875.108	21515
875.237	21317
875.365	21367
875.494	21443
875.623	21458
875.751	21492
875.88	21469
876.008	21618
876.136	21679
876.265	21854
876.393	21991
876.521	21854
876.65	21812
876.778	21865
876.906	21816
877.034	21713
877.162	21812
877.29	21755
877.418	21956
877.546	21789
877.674	21789
877.802	21884
877.93	21759
878.058	21747
878.185	21652
878.313	21679
878.441	21800
878.568	21637
878.696	21675
878.824	21785
878.951	21907
879.079	21880
879.206	21987
879.333	21972
879.461	21816
879.588	21937
879.715	21888
879.842	22067
879.97	21884
880.097	21538
880.224	21526
880.351	21682
880.478	21648
880.605	21572
880.732	21610
880.859	21770
880.986	21599
881.112	21610
881.239	21450
881.366	21340
881.493	21340
881.619	21199
881.746	21260
881.872	21195
881.999	21146
882.125	21142
882.252	21260
882.378	21093
882.505	21283
882.631	21024
882.757	21013
882.883	20864
883.01	20834
883.136	20811
883.262	20731
883.388	20731
883.514	20979
883.64	20880
883.766	20902
883.892	20792
884.018	20769
884.143	20853
884.269	20994
884.395	20670
884.52	20499
884.646	20598
884.772	20446
884.897	20507
885.023	20476
885.148	20667
885.274	20712
885.399	20629
885.524	20659
885.65	20632
885.775	20530
885.9	20537
886.025	20720
886.15	20617
886.275	20454
886.4	20495
886.525	20385
886.65	20423
886.775	20377
886.9	20526
887.025	20804
887.149	20473
887.274	20343
887.399	20263
887.523	20374
887.648	20176
887.773	20290
887.897	20434
888.021	20256
888.146	20195
888.27	20366
888.395	20412
888.519	20298
888.643	20427
888.767	20393
888.891	20309
889.015	20062
889.139	20149
889.263	20168
889.387	20130
889.511	20374
889.635	20370
889.759	20176
889.883	20187
890.006	20027
890.13	20305
890.254	20043
890.377	20103
890.501	20005
890.624	19868
890.748	19978
890.871	19731
890.995	19712
891.118	19635
891.241	19727
891.364	19731
891.488	19864
891.611	19624
891.734	19818
891.857	19841
891.98	19734
892.103	19803
892.226	19761
892.349	19635
892.471	19396
892.594	19712
892.717	19685
892.839	19677
892.962	19651
893.085	19666
893.207	19548
893.33	19487
893.452	19514
893.575	19719
893.697	19506
893.819	19833
893.941	19890
894.064	19681
894.186	19548
894.308	19597
894.43	19715
894.552	19822
894.674	19712
894.796	19434
894.918	19540
895.04	19487
895.161	19719
895.283	19556
895.405	19624
895.526	19712
895.648	19544
895.769	19597
895.891	19575
896.012	19791
896.134	19666
896.255	19734
896.376	19563
896.498	19643
896.619	19620
896.74	19651
896.861	19791
896.982	19898
897.103	20081
897.224	19978
897.345	19822
897.466	19791
897.587	19852
897.708	19913
897.828	19875
897.949	19700
898.07	19563
898.19	19833
898.311	19864
898.431	19803
898.552	19875
898.672	20016
898.792	19864
898.913	19932
899.033	19734
899.153	19776
899.273	19552
899.393	19597
899.513	19624
899.633	19575
899.753	19655
899.873	19552
899.993	19597
900.113	19552
900.232	19571
900.352	19514
900.472	19415
900.591	19240
900.711	19381
900.83	19415
900.95	19419
901.069	19392
901.189	19362
901.308	19099
901.427	18958
901.546	19031
901.665	19061
901.784	18954
901.904	18837
902.023	18787
902.141	18479
902.26	18574
902.379	18559
902.498	18441
902.617	18441
902.735	18540
902.854	18544
902.973	18391
903.091	18182
903.21	18152
903.328	18136
903.446	18095
903.565	18045
903.683	18030
903.801	17840
903.919	17939
904.038	18015
904.156	17809
904.274	17771
904.392	17726
904.51	17779
904.627	17767
904.745	17790
904.863	17695
904.981	17615
905.098	17402
905.216	17410
905.334	17467
905.451	17429
905.569	17459
905.686	17471
905.803	17368
905.921	17223
906.038	17341
906.155	17216
906.272	17102
906.389	17064
906.506	16976
906.623	16946
906.74	16968
906.857	16843
906.974	16927
907.091	16987
907.208	17086
907.324	17041
907.441	16809
907.557	16698
907.674	16748
907.79	16523
907.907	16660
908.023	16698
908.139	16763
908.256	16660
908.372	16580
908.488	16531
908.604	16523
908.72	16440
908.836	16432
908.952	16386
909.068	16421
909.184	16561
909.3	16459
909.415	16512
909.531	16360
909.647	16188
909.762	16173
909.878	16143
909.993	16249
910.108	16051
910.224	16032
910.339	16112
910.454	15930
910.57	15964
910.685	15907
910.8	16177
910.915	16013
911.03	15915
911.145	15812
911.259	15694
911.374	15713
911.489	15778
911.604	15633
911.718	15450
911.833	15534
911.947	15340
912.062	15374
912.176	15511
912.291	15488
912.405	15466
912.519	15656
912.633	15637
912.748	15492
912.862	15420
912.976	15310
913.09	15237
913.204	15252
913.318	15264
913.431	15401
913.545	15397
913.659	15397
913.772	15340
913.886	15043
914	15036
914.113	15055
914.226	15161
914.34	15157
914.453	15036
914.566	15127
914.68	15036
914.793	14861
914.906	14777
915.019	14716
915.132	14743
915.245	14632
915.358	14735
915.47	14689
915.583	14777
915.696	14830
915.809	14868
915.921	14887
916.034	14693
916.146	14644
916.259	14552
916.371	14754
916.483	14663
916.595	14571
916.708	14613
916.82	14564
916.932	14545
917.044	14545
917.156	14503
917.268	14351
917.38	14419
917.491	14412
917.603	14438
917.715	14400
917.826	14461
917.938	14336
918.049	14252
918.161	14400
918.272	14404
918.384	14347
918.495	14248
918.606	14233
918.717	14142
918.828	14202
918.939	14214
919.05	14123
919.161	14164
919.272	14050
919.383	13978
919.494	14092
919.604	14278
919.715	14168
919.826	13947
919.936	14046
920.047	14199
920.157	14073
920.267	14343
920.378	14130
920.488	14073
920.598	14336
920.708	14370
920.818	14282
920.928	14286
921.038	14400
921.148	14377
921.258	14115
921.368	13940
921.477	13879
921.587	13849
921.697	13685
921.806	13951
921.916	13772
922.025	13544
922.134	13487
922.244	13491
922.353	13578
922.462	13521
922.571	13320
922.68	13187
922.789	13206
922.898	13251
923.007	13080
923.116	13251
923.224	13168
923.333	13050
923.442	13053
923.55	13038
923.659	13015
923.767	13076
923.876	13031
923.984	13034
924.092	12996
924.201	12989
924.309	12905
924.417	12947
924.525	12817
924.633	12829
924.741	13677
924.849	12608
924.956	12764
925.064	12593
925.172	12601
925.279	12578
925.387	12642
925.494	12582
925.602	12631
925.709	12719
925.816	12479
925.924	12612
926.031	12658
926.138	12623
926.245	12593
926.352	12445
926.459	12585
926.566	12673
926.673	12433
926.779	12395
926.886	12361
926.993	12216
927.099	12136
927.206	12140
927.312	12102
927.419	12228
927.525	12186
927.631	12186
927.737	12045
927.843	12019
927.95	11882
928.056	12019
928.162	11923
928.267	12053
928.373	12544
928.479	12026
928.585	11874
928.69	11988
928.796	11969
928.901	11923
929.007	11779
929.112	11863
929.218	11805
929.323	11786
929.428	11707
929.533	11843
929.638	11623
929.743	11707
929.848	11691
929.953	11699
930.058	11543
930.163	11459
930.267	11391
930.372	11611
930.477	11383
930.581	11630
930.685	11551
930.79	11288
930.894	11391
930.998	11254
931.103	11376
931.207	11098
931.311	11052
931.415	10968
931.519	10774
931.623	10698
