Data from test_V78500241_69.txt Node
Date: Fri Mar 25 15:10:20 CST 2022
User: usil
Spectrometer: V785-0024
Trigger mode: 0
Integration Time (sec): 4.000000E-1
Scans to average: 1
Nonlinearity correction enabled: false
Boxcar width: 0
Storing dark spectrum: false
XAxis mode: Wavelengths
Number of Pixels in Spectrum: 1024
>>>>>Begin Spectral Data<<<<<
801.071	28927
801.214	28649
801.356	28367
801.499	28424
801.641	28329
801.783	28181
801.926	28337
802.068	28314
802.211	28109
802.353	28105
802.496	27884
802.638	28032
802.78	27895
802.923	27937
803.065	27827
803.208	27888
803.35	27922
803.492	28070
803.635	28036
803.777	27797
803.919	28021
804.061	28265
804.204	28082
804.346	27895
804.488	27880
804.63	27876
804.773	27876
804.915	27987
805.057	27998
805.199	27983
805.341	28082
805.483	28158
805.626	27953
805.768	27949
805.91	28017
806.052	27914
806.194	27968
806.336	28200
806.478	28044
806.62	27991
806.762	28086
806.904	28162
807.046	28432
807.188	28329
807.33	28474
807.472	28413
807.614	28139
807.756	28242
807.898	28154
808.04	28265
808.182	28234
808.324	28230
808.465	28192
808.607	28246
808.749	28379
808.891	28649
809.033	28599
809.174	28656
809.316	28504
809.458	28508
809.6	28516
809.741	28649
809.883	28550
810.025	28824
810.166	28740
810.308	28847
810.45	28637
810.591	28653
810.733	28493
810.875	28554
811.016	28493
811.158	28291
811.299	28421
811.441	28611
811.582	28687
811.724	28371
811.865	28344
812.007	28413
812.148	28386
812.29	28322
812.431	28645
812.573	28733
812.714	28763
812.855	28904
812.997	29014
813.138	29086
813.279	29025
813.421	29029
813.562	28835
813.703	28702
813.845	28596
813.986	28348
814.127	28162
814.268	28196
814.41	28139
814.551	27956
814.692	28074
814.833	28093
814.974	28086
815.115	28025
815.256	27819
815.397	27960
815.539	27930
815.68	27800
815.821	27842
815.962	27743
816.103	27679
816.244	27656
816.385	27447
816.526	27469
816.666	27454
816.807	27169
816.948	27313
817.089	27382
817.23	27294
817.371	27310
817.512	27230
817.653	27138
817.793	27112
817.934	27218
818.075	27058
818.216	27188
818.356	27096
818.497	27123
818.638	26842
818.778	26834
818.919	26853
819.06	27036
819.2	27249
819.341	27047
819.481	27077
819.622	27192
819.762	27313
819.903	27306
820.043	27321
820.184	27256
820.324	27135
820.465	27264
820.605	27138
820.746	27207
820.886	26990
821.026	27184
821.167	27131
821.307	27294
821.447	27058
821.588	26960
821.728	26861
821.868	26594
822.008	26522
822.149	26758
822.289	26602
822.429	26347
822.569	26195
822.709	26031
822.849	25944
822.99	26111
823.13	25868
823.27	25940
823.41	25875
823.55	25746
823.69	25738
823.83	25807
823.97	25780
824.11	25597
824.25	25662
824.389	25514
824.529	25712
824.669	25457
824.809	25655
824.949	25727
825.089	25681
825.228	25689
825.368	25377
825.508	25426
825.648	25510
825.787	25346
825.927	25449
826.067	25358
826.206	25358
826.346	25384
826.485	25506
826.625	25377
826.765	25590
826.904	25396
827.044	25088
827.183	25110
827.323	24985
827.462	25137
827.601	25057
827.741	24992
827.88	24905
828.02	24935
828.159	25004
828.298	24905
828.437	25103
828.577	24909
828.716	25046
828.855	24924
828.994	24817
829.134	24692
829.273	24852
829.412	24597
829.551	24703
829.69	24582
829.829	24658
829.968	24639
830.107	24798
830.246	24726
830.385	24768
830.524	24601
830.663	24505
830.802	24437
830.941	24350
831.08	24117
831.219	24300
831.357	24247
831.496	24403
831.635	24152
831.774	24133
831.913	24091
832.051	23980
832.19	23961
832.329	24053
832.467	24060
832.606	23874
832.744	23843
832.883	23813
833.022	23824
833.16	23783
833.299	24049
833.437	23950
833.576	23958
833.714	23912
833.852	23969
833.991	23897
834.129	23920
834.267	24034
834.406	23920
834.544	23946
834.682	23904
834.821	23828
834.959	23980
835.097	23802
835.235	23859
835.373	23843
835.511	23847
835.65	23680
835.788	23661
835.926	23531
836.064	23307
836.202	23535
836.34	23668
836.478	23699
836.615	23714
836.753	23649
836.891	23783
837.029	23859
837.167	23551
837.305	23608
837.443	23570
837.58	23421
837.718	23592
837.856	23661
837.993	23493
838.131	23512
838.269	23459
838.406	23391
838.544	23261
838.681	23143
838.819	23044
838.956	22995
839.094	22961
839.231	23033
839.369	23060
839.506	23383
839.643	23181
839.781	22797
839.918	22869
840.055	22957
840.193	22847
840.33	22801
840.467	22957
840.604	22877
840.742	23124
840.879	22748
841.016	22725
841.153	22721
841.29	22900
841.427	22797
841.564	22725
841.701	22774
841.838	22763
841.975	22660
842.112	22596
842.249	22516
842.385	22508
842.522	22710
842.659	22588
842.796	22538
842.933	22573
843.069	22481
843.206	22546
843.343	22508
843.479	22489
843.616	22535
843.752	22325
843.889	22360
844.025	22363
844.162	22158
844.298	22337
844.435	22135
844.571	22204
844.708	22253
844.844	22314
844.98	22459
845.117	22440
845.253	22128
845.389	22051
845.525	22029
845.661	22128
845.798	22074
845.934	21930
846.07	21816
846.206	21922
846.342	21953
846.478	21934
846.614	21762
846.75	21618
846.886	21519
847.022	21915
847.158	21838
847.294	21717
847.429	21675
847.565	21633
847.701	21812
847.837	21332
847.972	21439
848.108	21473
848.244	21389
848.379	21367
848.515	21340
848.65	21222
848.786	21218
848.921	21302
849.057	21378
849.192	21291
849.328	21233
849.463	21165
849.598	21249
849.734	21036
849.869	21085
850.004	20925
850.14	21066
850.275	21013
850.41	20918
850.545	20990
850.68	21047
850.815	21017
850.95	21001
851.085	21047
851.22	21005
851.355	20998
851.49	20899
851.625	20868
851.76	20883
851.895	20769
852.03	20769
852.165	21001
852.299	20952
852.434	20979
852.569	20998
852.703	20967
852.838	21096
852.973	21169
853.107	21047
853.242	20861
853.376	20849
853.511	20693
853.645	20807
853.78	20880
853.914	20857
854.048	20804
854.183	20754
854.317	20773
854.451	20967
854.585	20632
854.72	20781
854.854	20750
854.988	20655
855.122	20689
855.256	20651
855.39	20678
855.524	20746
855.658	20819
855.792	20682
855.926	20678
856.06	20758
856.194	20804
856.327	20773
856.461	20697
856.595	20678
856.729	20541
856.862	20849
856.996	20765
857.13	20819
857.263	20800
857.397	20838
857.53	20625
857.664	20678
857.797	20651
857.931	20944
858.064	20625
858.197	20727
858.331	20758
858.464	20571
858.597	20602
858.731	20716
858.864	20731
858.997	20667
859.13	20606
859.263	20838
859.396	20739
859.529	20705
859.662	20617
859.795	20712
859.928	20762
860.061	20876
860.194	20708
860.327	20663
860.46	20781
860.592	20781
860.725	20785
860.858	20826
860.99	20727
861.123	20636
861.256	20583
861.388	20549
861.521	21222
861.653	20495
861.786	20393
861.918	20621
862.05	20632
862.183	20823
862.315	20670
862.447	20754
862.58	20689
862.712	20526
862.844	20317
862.976	20480
863.108	20347
863.24	20921
863.372	20313
863.504	20252
863.636	20267
863.768	20423
863.9	20336
864.032	20290
864.164	20271
864.296	20408
864.428	20362
864.559	20252
864.691	20461
864.823	20389
864.954	20320
865.086	20336
865.217	20199
865.349	20206
865.48	20309
865.612	20218
865.743	20476
865.875	20176
866.006	20183
866.137	20415
866.269	20252
866.4	20176
866.531	20221
866.662	20096
866.793	20221
866.924	20168
867.055	20126
867.186	20157
867.317	20145
867.448	20092
867.579	20100
867.71	20096
867.841	20233
867.972	20180
868.103	20077
868.233	20176
868.364	20195
868.495	20191
868.625	20419
868.756	20526
868.886	20263
869.017	20454
869.147	20476
869.278	20518
869.408	20454
869.539	20404
869.669	20465
869.799	20431
869.929	20514
870.06	20431
870.19	20670
870.32	20697
870.45	20735
870.58	20769
870.71	20864
870.84	20994
870.97	20746
871.1	20781
871.23	20819
871.36	21043
871.489	20777
871.619	20998
871.749	20956
871.879	20979
872.008	21116
872.138	21028
872.267	21017
872.397	20929
872.526	20849
872.656	20842
872.785	20895
872.915	20941
873.044	21074
873.173	21055
873.303	21028
873.432	20979
873.561	21096
873.69	21093
873.819	21043
873.948	21028
874.077	21005
874.206	20963
874.335	21039
874.464	21104
874.593	21237
874.722	21157
874.851	21252
874.979	21332
875.108	21332
875.237	21230
875.365	21165
875.494	21237
875.623	21268
875.751	21302
875.88	21249
876.008	21310
876.136	21488
876.265	21679
876.393	21781
876.521	21823
876.65	21686
876.778	21644
876.906	21523
877.034	21545
877.162	21439
877.29	21591
877.418	21690
877.546	21629
877.674	21568
877.802	21732
877.93	21553
878.058	21648
878.185	21401
878.313	21568
878.441	21682
878.568	21435
878.696	21435
878.824	21656
878.951	21732
879.079	21797
879.206	21789
879.333	21778
879.461	21671
879.588	21743
879.715	21709
879.842	21873
879.97	21625
880.097	21492
880.224	21412
880.351	21401
880.478	21469
880.605	21389
880.732	21317
880.859	21675
880.986	21431
881.112	21519
881.239	21340
881.366	21245
881.493	21275
881.619	21066
881.746	21005
881.872	21001
881.999	21024
882.125	21017
882.252	21176
882.378	21154
882.505	21108
882.631	20975
882.757	20769
882.883	20944
883.01	20712
883.136	20777
883.262	20609
883.388	20606
883.514	20720
883.64	20842
883.766	20629
883.892	20514
884.018	20659
884.143	20640
884.269	20849
884.395	20400
884.52	20484
884.646	20461
884.772	20301
884.897	20313
885.023	20488
885.148	20473
885.274	20454
885.399	20438
885.524	20419
885.65	20431
885.775	20476
885.9	20480
886.025	20454
886.15	20400
886.275	20492
886.4	20267
886.525	20415
886.65	20263
886.775	20324
886.9	20450
887.025	20644
887.149	20404
887.274	20202
887.399	20149
887.523	20092
887.648	20153
887.773	20012
887.897	20199
888.021	20221
888.146	20012
888.27	20202
888.395	20229
888.519	20126
888.643	20119
888.767	20202
888.891	20126
889.015	20050
889.139	20001
889.263	19860
889.387	19906
889.511	20161
889.635	20043
889.759	19879
889.883	19856
890.006	19856
890.13	19989
890.254	19955
890.377	19864
890.501	19765
890.624	19586
890.748	19757
890.871	19594
890.995	19472
891.118	19430
891.241	19540
891.364	19460
891.488	19677
891.611	19518
891.734	19590
891.857	19628
891.98	19384
892.103	19590
892.226	19540
892.349	19460
892.471	19384
892.594	19483
892.717	19441
892.839	19304
892.962	19468
893.085	19556
893.207	19384
893.33	19346
893.452	19358
893.575	19540
893.697	19384
893.819	19651
893.941	19613
894.064	19609
894.186	19388
894.308	19263
894.43	19487
894.552	19548
894.674	19480
894.796	19327
894.918	19407
895.04	19510
895.161	19384
895.283	19540
895.405	19419
895.526	19499
895.648	19472
895.769	19430
895.891	19556
896.012	19556
896.134	19559
896.255	19438
896.376	19324
896.498	19434
896.619	19582
896.74	19533
896.861	19468
896.982	19780
897.103	19959
897.224	19712
897.345	19647
897.466	19655
897.587	19685
897.708	19818
897.828	19704
897.949	19632
898.07	19426
898.19	19609
898.311	19746
898.431	19563
898.552	19704
898.672	19795
898.792	19708
898.913	19590
899.033	19396
899.153	19464
899.273	19339
899.393	19335
899.513	19422
899.633	19384
899.753	19422
899.873	19236
899.993	19407
900.113	19339
900.232	19320
900.352	19354
900.472	19236
900.591	19122
900.711	19335
900.83	19259
900.95	19289
901.069	19225
901.189	19034
901.308	18920
901.427	18840
901.546	18711
901.665	18741
901.784	18749
901.904	18654
902.023	18540
902.141	18380
902.26	18315
902.379	18350
902.498	18117
902.617	18220
902.735	18315
902.854	18262
902.973	18201
903.091	18049
903.21	17992
903.328	18011
903.446	17824
903.565	17840
903.683	17741
903.801	17634
903.919	17771
904.038	17726
904.156	17516
904.274	17646
904.392	17562
904.51	17493
904.627	17547
904.745	17604
904.863	17592
904.981	17311
905.098	17185
905.216	17208
905.334	17197
905.451	17261
905.569	17170
905.686	17223
905.803	17155
905.921	17018
906.038	17143
906.155	17086
906.272	16869
906.389	16900
906.506	16645
906.623	16752
906.74	16828
906.857	16683
906.974	16607
907.091	16786
907.208	16847
907.324	16858
907.441	16634
907.557	16436
907.674	16428
907.79	16371
907.907	16421
908.023	16318
908.139	16390
908.256	16356
908.372	16379
908.488	16272
908.604	16204
908.72	16188
908.836	16071
908.952	16040
909.068	16116
909.184	16223
909.3	16040
909.415	16169
909.531	16112
909.647	15861
909.762	15857
909.878	15709
909.993	15857
910.108	15876
910.224	15766
910.339	15823
910.454	15686
910.57	15637
910.685	15538
910.8	15903
910.915	15808
911.03	15584
911.145	15466
911.259	15466
911.374	15462
911.489	15389
911.604	15329
911.718	15135
911.833	15287
911.947	15093
912.062	14944
912.176	15077
912.291	15131
912.405	15093
912.519	15336
912.633	15283
912.748	15176
912.862	15093
912.976	14971
913.09	14838
913.204	14796
913.318	14933
913.431	15142
913.545	15074
913.659	15058
913.772	14937
913.886	14785
914	14765
914.113	14876
914.226	14899
914.34	14796
914.453	14667
914.566	14845
914.68	14731
914.793	14674
914.906	14450
915.019	14377
915.132	14351
915.245	14396
915.358	14457
915.47	14476
915.583	14423
915.696	14370
915.809	14518
915.921	14507
916.034	14396
916.146	14324
916.259	14320
916.371	14374
916.483	14267
916.595	14259
916.708	14195
916.82	14290
916.932	14256
917.044	14320
917.156	14107
917.268	14054
917.38	14111
917.491	14031
917.603	14180
917.715	14115
917.826	14187
917.938	14043
918.049	13917
918.161	14043
918.272	14168
918.384	14115
918.495	13986
918.606	13890
918.717	13780
918.828	13928
918.939	13883
919.05	13734
919.161	13833
919.272	13632
919.383	13734
919.494	13856
919.604	14008
919.715	13731
919.826	13670
919.936	13742
920.047	13841
920.157	13791
920.267	14012
920.378	13856
920.488	13765
920.598	13951
920.708	14088
920.818	13928
920.928	13845
921.038	14172
921.148	14088
921.258	13715
921.368	13594
921.477	13495
921.587	13502
921.697	13426
921.806	13491
921.916	13377
922.025	13213
922.134	13168
922.244	13179
922.353	13175
922.462	13031
922.571	12951
922.68	12779
922.789	12867
922.898	12916
923.007	12734
923.116	12779
923.224	12829
923.333	12795
923.442	12677
923.55	12692
923.659	12669
923.767	12707
923.876	12525
923.984	12673
924.092	12665
924.201	12631
924.309	12536
924.417	12563
924.525	12509
924.633	12464
924.741	13343
924.849	12270
924.956	12399
925.064	12239
925.172	12186
925.279	12224
925.387	12266
925.494	12232
925.602	12403
925.709	12289
925.816	12224
925.924	12258
926.031	12384
926.138	12243
926.245	12235
926.352	12133
926.459	12254
926.566	12372
926.673	12129
926.779	12030
926.886	11961
926.993	11859
927.099	11832
927.206	11802
927.312	11847
927.419	11870
927.525	11863
927.631	11882
927.737	11729
927.843	11737
927.95	11627
928.056	11642
928.162	11729
928.267	11642
928.373	12437
928.479	11794
928.585	11539
928.69	11608
928.796	11726
928.901	11543
929.007	11414
929.112	11611
929.218	11562
929.323	11429
929.428	11356
929.533	11604
929.638	11318
929.743	11387
929.848	11452
929.953	11414
930.058	11322
930.163	11083
930.267	11098
930.372	11235
930.477	11124
930.581	11353
930.685	11216
930.79	10984
930.894	11086
930.998	11014
931.103	11113
931.207	10729
931.311	10698
931.415	10592
931.519	10447
931.623	10451
