Data from test_V78500241_2245.txt Node
Date: Fri Mar 25 15:25:29 CST 2022
User: usil
Spectrometer: V785-0024
Trigger mode: 0
Integration Time (sec): 4.000000E-1
Scans to average: 1
Nonlinearity correction enabled: false
Boxcar width: 0
Storing dark spectrum: false
XAxis mode: Wavelengths
Number of Pixels in Spectrum: 1024
>>>>>Begin Spectral Data<<<<<
801.071	27827
801.214	27686
801.356	27542
801.499	27462
801.641	27283
801.783	27241
801.926	27408
802.068	27306
802.211	27264
802.353	27180
802.496	27028
802.638	26956
802.78	26948
802.923	26921
803.065	26823
803.208	26967
803.35	26975
803.492	27131
803.635	27127
803.777	27135
803.919	27291
804.061	27424
804.204	27169
804.346	27150
804.488	27108
804.63	27108
804.773	27131
804.915	27245
805.057	27222
805.199	27199
805.341	27287
805.483	27298
805.626	27321
805.768	27169
805.91	27268
806.052	27321
806.194	27313
806.336	27488
806.478	27306
806.62	27192
806.762	27367
806.904	27481
807.046	27690
807.188	27759
807.33	27854
807.472	27770
807.614	27701
807.756	27660
807.898	27568
808.04	27504
808.182	27496
808.324	27663
808.465	27599
808.607	27774
808.749	27895
808.891	28029
809.033	28006
809.174	27911
809.316	27888
809.458	27979
809.6	27892
809.741	28226
809.883	27998
810.025	28272
810.166	28154
810.308	28166
810.45	28055
810.591	28169
810.733	27964
810.875	27869
811.016	27736
811.158	27804
811.299	27926
811.441	27899
811.582	28040
811.724	28025
811.865	27994
812.007	27914
812.148	27975
812.29	28135
812.431	28036
812.573	28173
812.714	28200
812.855	28390
812.997	28478
813.138	28561
813.279	28542
813.421	28348
813.562	28249
813.703	28257
813.845	28192
813.986	27804
814.127	27660
814.268	27576
814.41	27629
814.551	27694
814.692	27656
814.833	27576
814.974	27568
815.115	27682
815.256	27545
815.397	27469
815.539	27397
815.68	27412
815.821	27363
815.962	27393
816.103	27447
816.244	27119
816.385	27028
816.526	27112
816.666	27081
816.807	26876
816.948	26982
817.089	26998
817.23	26929
817.371	26815
817.512	26853
817.653	26788
817.793	26864
817.934	26842
818.075	26781
818.216	26944
818.356	26796
818.497	26720
818.638	26518
818.778	26689
818.919	26579
819.06	26617
819.2	26777
819.341	26845
819.481	26769
819.622	27028
819.762	27169
819.903	27104
820.043	27032
820.184	27024
820.324	26979
820.465	27108
820.605	26910
820.746	27013
820.886	26826
821.026	26876
821.167	26743
821.307	26998
821.447	26880
821.588	26670
821.728	26689
821.868	26549
822.008	26412
822.149	26469
822.289	26328
822.429	25982
822.569	26103
822.709	26107
822.849	25849
822.99	25746
823.13	25818
823.27	25822
823.41	25651
823.55	25571
823.69	25594
823.83	25540
823.97	25613
824.11	25499
824.25	25499
824.389	25521
824.529	25407
824.669	25479
824.809	25510
824.949	25407
825.089	25567
825.228	25639
825.368	25308
825.508	25320
825.648	25247
825.787	25346
825.927	25362
826.067	25312
826.206	25304
826.346	25373
826.485	25419
826.625	25175
826.765	25396
826.904	25282
827.044	25057
827.183	25072
827.323	25076
827.462	25084
827.601	25061
827.741	25072
827.88	25133
828.02	24916
828.159	24928
828.298	25019
828.437	25065
828.577	24928
828.716	25042
828.855	24920
828.994	24833
829.134	24928
829.273	24814
829.412	24749
829.551	24669
829.69	24764
829.829	24779
829.968	24791
830.107	24745
830.246	24741
830.385	24521
830.524	24635
830.663	24563
830.802	24372
830.941	24304
831.08	24357
831.219	24437
831.357	24410
831.496	24601
831.635	24418
831.774	24315
831.913	24239
832.051	24182
832.19	24015
832.329	24239
832.467	24095
832.606	23912
832.744	23931
832.883	23950
833.022	24022
833.16	24053
833.299	24011
833.437	24095
833.576	24038
833.714	24125
833.852	24136
833.991	24292
834.129	24209
834.267	24129
834.406	24007
834.544	24121
834.682	24121
834.821	24072
834.959	24258
835.097	24003
835.235	24258
835.373	23992
835.511	24125
835.65	23916
835.788	23988
835.926	23764
836.064	23634
836.202	23836
836.34	23893
836.478	23954
836.615	23870
836.753	23851
836.891	23923
837.029	23885
837.167	23653
837.305	23748
837.443	23832
837.58	23817
837.718	23726
837.856	23901
837.993	23710
838.131	23680
838.269	23604
838.406	23638
838.544	23558
838.681	23349
838.819	23417
838.956	23235
839.094	23204
839.231	23235
839.369	23433
839.506	23364
839.643	23463
839.781	23056
839.918	23181
840.055	23166
840.193	23136
840.33	23155
840.467	23258
840.604	23056
840.742	23448
840.879	22991
841.016	23014
841.153	23075
841.29	23174
841.427	23189
841.564	23181
841.701	22987
841.838	23083
841.975	22968
842.112	22957
842.249	22828
842.385	22889
842.522	23098
842.659	22896
842.796	22889
842.933	22736
843.069	22908
843.206	22710
843.343	22866
843.479	22866
843.616	22987
843.752	22702
843.889	22634
844.025	22721
844.162	22584
844.298	22721
844.435	22694
844.571	22535
844.708	22801
844.844	22778
844.98	22710
845.117	22850
845.253	22592
845.389	22451
845.525	22542
845.661	22481
845.798	22329
845.934	22424
846.07	22497
846.206	22516
846.342	22497
846.478	22223
846.614	22181
846.75	21975
846.886	21994
847.022	22177
847.158	22120
847.294	22044
847.429	22143
847.565	22109
847.701	22375
847.837	21941
847.972	21850
848.108	21903
848.244	21991
848.379	21682
848.515	21667
848.65	21766
848.786	21663
848.921	21816
849.057	21660
849.192	21876
849.328	21743
849.463	21644
849.598	21705
849.734	21538
849.869	21553
850.004	21538
850.14	21473
850.275	21439
850.41	21310
850.545	21420
850.68	21424
850.815	21450
850.95	21416
851.085	21698
851.22	21576
851.355	21603
851.49	21549
851.625	21443
851.76	21477
851.895	21450
852.03	21393
852.165	21515
852.299	21469
852.434	21485
852.569	21435
852.703	21500
852.838	21473
852.973	21500
853.107	21511
853.242	21420
853.376	21344
853.511	21074
853.645	21112
853.78	21393
853.914	21287
854.048	21218
854.183	21336
854.317	21325
854.451	21488
854.585	21256
854.72	21275
854.854	21203
854.988	21272
855.122	21169
855.256	21230
855.39	21329
855.524	21237
855.658	21401
855.792	21401
855.926	21340
856.06	21386
856.194	21416
856.327	21199
856.461	21207
856.595	21222
856.729	21214
856.862	21287
856.996	21291
857.13	21230
857.263	21443
857.397	21275
857.53	21291
857.664	21348
857.797	21424
857.931	21496
858.064	21283
858.197	21458
858.331	21256
858.464	21237
858.597	21329
858.731	21195
858.864	21184
858.997	21230
859.13	21287
859.263	21252
859.396	21397
859.529	21272
859.662	21188
859.795	21222
859.928	21302
860.061	21420
860.194	21393
860.327	21268
860.46	21336
860.592	21447
860.725	21431
860.858	21298
860.99	21336
861.123	21188
861.256	21199
861.388	21222
861.521	22074
861.653	21161
861.786	21260
861.918	21112
862.05	21199
862.183	20982
862.315	21233
862.447	21241
862.58	21199
862.712	20994
862.844	21024
862.976	21085
863.108	20948
863.24	21477
863.372	21020
863.504	20971
863.636	20963
863.768	20963
863.9	21001
864.032	20796
864.164	20971
864.296	21070
864.428	21089
864.559	21066
864.691	20948
864.823	21024
864.954	20971
865.086	20948
865.217	20762
865.349	20849
865.48	20998
865.612	20689
865.743	21108
865.875	20944
866.006	20826
866.137	20876
866.269	20979
866.4	20857
866.531	20819
866.662	20819
866.793	20800
866.924	20819
867.055	20796
867.186	20792
867.317	20853
867.448	20678
867.579	20731
867.71	20762
867.841	20788
867.972	20883
868.103	20754
868.233	20796
868.364	20758
868.495	20998
868.625	21055
868.756	21074
868.886	20982
869.017	21062
869.147	21116
869.278	21249
869.408	21058
869.539	21001
869.669	21085
869.799	21173
869.929	21214
870.06	21135
870.19	21332
870.32	21279
870.45	21454
870.58	21443
870.71	21576
870.84	21534
870.97	21488
871.1	21412
871.23	21587
871.36	21747
871.489	21599
871.619	21698
871.749	21625
871.879	21762
872.008	21812
872.138	21720
872.267	21606
872.397	21606
872.526	21447
872.656	21523
872.785	21591
872.915	21622
873.044	21679
873.173	21705
873.303	21751
873.432	21701
873.561	21812
873.69	21671
873.819	21663
873.948	21751
874.077	21701
874.206	21724
874.335	21789
874.464	21804
874.593	21842
874.722	21797
874.851	21968
874.979	22074
875.108	21953
875.237	21850
875.365	21797
875.494	21781
875.623	22025
875.751	21899
875.88	21865
876.008	21975
876.136	22147
876.265	22188
876.393	22386
876.521	22352
876.65	22402
876.778	22169
876.906	22291
877.034	22219
877.162	22272
877.29	22139
877.418	22242
877.546	22322
877.674	22356
877.802	22291
877.93	22139
878.058	22173
878.185	22177
878.313	22257
878.441	22272
878.568	22055
878.696	22143
878.824	22188
878.951	22367
879.079	22413
879.206	22500
879.333	22356
879.461	22116
879.588	22325
879.715	22390
879.842	22557
879.97	22379
880.097	22147
880.224	22021
880.351	22070
880.478	22112
880.605	21964
880.732	22040
880.859	22268
880.986	22051
881.112	22120
881.239	22036
881.366	21789
881.493	21747
881.619	21599
881.746	21637
881.872	21614
881.999	21564
882.125	21534
882.252	21557
882.378	21698
882.505	21724
882.631	21462
882.757	21386
882.883	21389
883.01	21374
883.136	21321
883.262	21173
883.388	21302
883.514	21260
883.64	21199
883.766	21325
883.892	21066
884.018	21161
884.143	21203
884.269	21412
884.395	21066
884.52	21051
884.646	20921
884.772	20925
884.897	20876
885.023	20979
885.148	21135
885.274	21135
885.399	21093
885.524	20933
885.65	21001
885.775	21017
885.9	20880
886.025	21176
886.15	21055
886.275	20971
886.4	20925
886.525	20994
886.65	20864
886.775	20819
886.9	21028
887.025	21135
887.149	21085
887.274	20720
887.399	20712
887.523	20769
887.648	20758
887.773	20708
887.897	20807
888.021	20937
888.146	20701
888.27	20765
888.395	20941
888.519	20765
888.643	20872
888.767	20967
888.891	20549
889.015	20621
889.139	20613
889.263	20541
889.387	20804
889.511	20716
889.635	20670
889.759	20629
889.883	20492
890.006	20514
890.13	20648
890.254	20537
890.377	20564
890.501	20202
890.624	20404
890.748	20431
890.871	20267
890.995	20130
891.118	20092
891.241	20115
891.364	20073
891.488	20218
891.611	20043
891.734	20301
891.857	20180
891.98	20027
892.103	20320
892.226	20115
892.349	20145
892.471	19970
892.594	20065
892.717	20012
892.839	20054
892.962	20077
893.085	20054
893.207	20001
893.33	19955
893.452	19978
893.575	20043
893.697	20058
893.819	20229
893.941	20161
894.064	20183
894.186	19856
894.308	20043
894.43	20119
894.552	20210
894.674	20142
894.796	19959
894.918	20058
895.04	19959
895.161	20073
895.283	20096
895.405	19890
895.526	20088
895.648	20043
895.769	20088
895.891	20100
896.012	20161
896.134	20119
896.255	20119
896.376	19993
896.498	20081
896.619	20134
896.74	20005
896.861	20046
896.982	20412
897.103	20423
897.224	20244
897.345	20237
897.466	20149
897.587	20229
897.708	20301
897.828	20328
897.949	20149
898.07	20107
898.19	20248
898.311	20381
898.431	20130
898.552	20301
898.672	20301
898.792	20263
898.913	20282
899.033	20119
899.153	20107
899.273	19940
899.393	19925
899.513	20103
899.633	20024
899.753	20149
899.873	19883
899.993	19974
900.113	19932
900.232	19928
900.352	19909
900.472	19765
900.591	19830
900.711	19761
900.83	19712
900.95	19830
901.069	19925
901.189	19578
901.308	19441
901.427	19426
901.546	19384
901.665	19472
901.784	19358
901.904	19175
902.023	19110
902.141	18962
902.26	18882
902.379	18947
902.498	18897
902.617	18863
902.735	18947
902.854	18882
902.973	18916
903.091	18669
903.21	18517
903.328	18544
903.446	18502
903.565	18410
903.683	18426
903.801	18201
903.919	18353
904.038	18300
904.156	18167
904.274	18190
904.392	18106
904.51	18144
904.627	18045
904.745	18110
904.863	18117
904.981	17874
905.098	17851
905.216	17813
905.334	17760
905.451	17737
905.569	17783
905.686	17843
905.803	17824
905.921	17710
906.038	17771
906.155	17558
906.272	17448
906.389	17551
906.506	17383
906.623	17391
906.74	17337
906.857	17280
906.974	17337
907.091	17406
907.208	17417
907.324	17269
907.441	17292
907.557	17121
907.674	17052
907.79	16927
907.907	17022
908.023	17052
908.139	17094
908.256	16953
908.372	17041
908.488	16869
908.604	16790
908.72	16736
908.836	16877
908.952	16713
909.068	16763
909.184	16839
909.3	16721
909.415	16740
909.531	16782
909.647	16561
909.762	16535
909.878	16443
909.993	16421
910.108	16504
910.224	16398
910.339	16470
910.454	16295
910.57	16344
910.685	16086
910.8	16478
910.915	16398
911.03	16238
911.145	16093
911.259	16040
911.374	16124
911.489	16063
911.604	15907
911.718	15800
911.833	15793
911.947	15625
912.062	15648
912.176	15770
912.291	15812
912.405	15759
912.519	16017
912.633	15934
912.748	15949
912.862	15861
912.976	15610
913.09	15564
913.204	15580
913.318	15644
913.431	15743
913.545	15675
913.659	15732
913.772	15591
913.886	15500
914	15458
914.113	15519
914.226	15603
914.34	15443
914.453	15287
914.566	15389
914.68	15351
914.793	15321
914.906	15051
915.019	15070
915.132	14952
915.245	15013
915.358	15066
915.47	15047
915.583	15100
915.696	15070
915.809	15112
915.921	15192
916.034	14823
916.146	14880
916.259	15024
916.371	15028
916.483	14906
916.595	14838
916.708	14937
916.82	14899
916.932	14910
917.044	14785
917.156	14804
917.268	14743
917.38	14674
917.491	14610
917.603	14701
917.715	14804
917.826	14811
917.938	14651
918.049	14488
918.161	14667
918.272	14781
918.384	14773
918.495	14594
918.606	14473
918.717	14431
918.828	14476
918.939	14568
919.05	14393
919.161	14431
919.272	14259
919.383	14290
919.494	14446
919.604	14617
919.715	14480
919.826	14347
919.936	14438
920.047	14488
920.157	14431
920.267	14598
920.378	14450
920.488	14412
920.598	14568
920.708	14632
920.818	14579
920.928	14465
921.038	14708
921.148	14663
921.258	14351
921.368	14256
921.477	14214
921.587	14180
921.697	14069
921.806	14142
921.916	13947
922.025	13925
922.134	13883
922.244	13795
922.353	13841
922.462	13742
922.571	13628
922.68	13518
922.789	13464
922.898	13480
923.007	13438
923.116	13464
923.224	13510
923.333	13392
923.442	13255
923.55	13293
923.659	13247
923.767	13369
923.876	13152
923.984	13236
924.092	13183
924.201	13118
924.309	13171
924.417	13240
924.525	13103
924.633	13069
924.741	13894
924.849	12882
924.956	13023
925.064	12852
925.172	12833
925.279	12875
925.387	12875
925.494	12901
925.602	13050
925.709	12920
925.816	12646
925.924	12783
926.031	12909
926.138	12821
926.245	12878
926.352	12749
926.459	12856
926.566	12798
926.673	12768
926.779	12673
926.886	12635
926.993	12414
927.099	12464
927.206	12399
927.312	12426
927.419	12547
927.525	12391
927.631	12418
927.737	12266
927.843	12232
927.95	12148
928.056	12235
928.162	12311
928.267	12353
928.373	12913
928.479	12418
928.585	12079
928.69	12216
928.796	12167
928.901	12068
929.007	11927
929.112	12129
929.218	12057
929.323	12007
929.428	11920
929.533	12049
929.638	11878
929.743	11878
929.848	12030
929.953	11946
930.058	11882
930.163	11684
930.267	11764
930.372	11889
930.477	11646
930.581	11870
930.685	11722
930.79	11585
930.894	11672
930.998	11509
931.103	11604
931.207	11383
931.311	11292
931.415	11128
931.519	11022
931.623	10946
