Data from test_V78500241_438.txt Node
Date: Fri Mar 25 15:12:54 CST 2022
User: usil
Spectrometer: V785-0024
Trigger mode: 0
Integration Time (sec): 4.000000E-1
Scans to average: 1
Nonlinearity correction enabled: false
Boxcar width: 0
Storing dark spectrum: false
XAxis mode: Wavelengths
Number of Pixels in Spectrum: 1024
>>>>>Begin Spectral Data<<<<<
801.071	26979
801.214	26994
801.356	26705
801.499	26826
801.641	26670
801.783	26609
801.926	26792
802.068	26682
802.211	26514
802.353	26511
802.496	26370
802.638	26278
802.78	26351
802.923	26237
803.065	26195
803.208	26073
803.35	26366
803.492	26374
803.635	26446
803.777	26320
803.919	26503
804.061	26670
804.204	26434
804.346	26218
804.488	26381
804.63	26404
804.773	26271
804.915	26370
805.057	26533
805.199	26469
805.341	26419
805.483	26526
805.626	26476
805.768	26412
805.91	26362
806.052	26590
806.194	26476
806.336	26743
806.478	26552
806.62	26488
806.762	26674
806.904	26731
807.046	27058
807.188	26815
807.33	26967
807.472	26944
807.614	26834
807.756	26792
807.898	26731
808.04	26727
808.182	26598
808.324	26697
808.465	26716
808.607	26933
808.749	27032
808.891	27142
809.033	27252
809.174	27180
809.316	27161
809.458	27268
809.6	27173
809.741	27256
809.883	27138
810.025	27378
810.166	27340
810.308	27553
810.45	27336
810.591	27336
810.733	27169
810.875	27013
811.016	27116
811.158	27047
811.299	27367
811.441	27195
811.582	27119
811.724	27119
811.865	26994
812.007	27047
812.148	27081
812.29	27142
812.431	27272
812.573	27340
812.714	27416
812.855	27709
812.997	27732
813.138	27637
813.279	27682
813.421	27686
813.562	27576
813.703	27336
813.845	27298
813.986	27131
814.127	26929
814.268	26849
814.41	26815
814.551	26727
814.692	26861
814.833	26701
814.974	26773
815.115	26686
815.256	26594
815.397	26552
815.539	26617
815.68	26708
815.821	26442
815.962	26461
816.103	26587
816.244	26415
816.385	26244
816.526	26271
816.666	26100
816.807	25986
816.948	25989
817.089	26065
817.23	26103
817.371	26035
817.512	25951
817.653	26039
817.793	26065
817.934	26024
818.075	26027
818.216	26008
818.356	25955
818.497	25940
818.638	25746
818.778	25776
818.919	25784
819.06	25757
819.2	25925
819.341	26024
819.481	25970
819.622	26187
819.762	26362
819.903	26180
820.043	26199
820.184	26115
820.324	26088
820.465	26244
820.605	26088
820.746	26130
820.886	26103
821.026	26020
821.167	25890
821.307	26096
821.447	26005
821.588	25887
821.728	25887
821.868	25674
822.008	25502
822.149	25499
822.289	25628
822.429	25270
822.569	25202
822.709	25183
822.849	25008
822.99	25061
823.13	25027
823.27	24970
823.41	24833
823.55	24852
823.69	24783
823.83	24814
823.97	24821
824.11	24513
824.25	24825
824.389	24681
824.529	24673
824.669	24768
824.809	24749
824.949	24719
825.089	24688
825.228	24631
825.368	24525
825.508	24441
825.648	24486
825.787	24585
825.927	24513
826.067	24456
826.206	24551
826.346	24658
826.485	24604
826.625	24589
826.765	24608
826.904	24517
827.044	24334
827.183	24243
827.323	24194
827.462	24220
827.601	24429
827.741	24205
827.88	24163
828.02	24159
828.159	24178
828.298	24315
828.437	24388
828.577	24144
828.716	24334
828.855	24152
828.994	23893
829.134	23977
829.273	24098
829.412	23984
829.551	23851
829.69	23954
829.829	23965
829.968	24110
830.107	24133
830.246	23916
830.385	23866
830.524	23756
830.663	23767
830.802	23638
830.941	23566
831.08	23638
831.219	23718
831.357	23668
831.496	23805
831.635	23486
831.774	23505
831.913	23421
832.051	23520
832.19	23368
832.329	23459
832.467	23356
832.606	23227
832.744	23197
832.883	23246
833.022	23200
833.16	23334
833.299	23284
833.437	23345
833.576	23368
833.714	23307
833.852	23337
833.991	23452
834.129	23448
834.267	23372
834.406	23402
834.544	23269
834.682	23410
834.821	23376
834.959	23615
835.097	23280
835.235	23410
835.373	23337
835.511	23277
835.65	23239
835.788	23220
835.926	22919
836.064	23014
836.202	23022
836.34	23231
836.478	23212
836.615	23079
836.753	23223
836.891	23379
837.029	23189
837.167	23113
837.305	23071
837.443	23193
837.58	23003
837.718	23162
837.856	23102
837.993	22946
838.131	23022
838.269	22839
838.406	22995
838.544	22881
838.681	22713
838.819	22660
838.956	22504
839.094	22527
839.231	22683
839.369	22691
839.506	23014
839.643	22656
839.781	22481
839.918	22402
840.055	22402
840.193	22523
840.33	22428
840.467	22443
840.604	22538
840.742	22805
840.879	22265
841.016	22348
841.153	22428
841.29	22535
841.427	22318
841.564	22443
841.701	22470
841.838	22409
841.975	22424
842.112	22287
842.249	22192
842.385	22249
842.522	22535
842.659	22318
842.796	22253
842.933	22215
843.069	22109
843.206	22116
843.343	22177
843.479	22185
843.616	22169
843.752	21911
843.889	22021
844.025	22086
844.162	22067
844.298	22128
844.435	21926
844.571	21915
844.708	22010
844.844	21972
844.98	22215
845.117	22070
845.253	21930
845.389	21888
845.525	21960
845.661	21865
845.798	21709
845.934	21644
846.07	21637
846.206	21739
846.342	21934
846.478	21705
846.614	21496
846.75	21435
846.886	21424
847.022	21538
847.158	21424
847.294	21549
847.429	21488
847.565	21351
847.701	21686
847.837	21138
847.972	21108
848.108	21336
848.244	21260
848.379	21161
848.515	21138
848.65	21074
848.786	21070
848.921	21058
849.057	21127
849.192	21116
849.328	21089
849.463	20963
849.598	21036
849.734	20960
849.869	20990
850.004	20849
850.14	20914
850.275	20781
850.41	20792
850.545	20712
850.68	20785
850.815	20872
850.95	20838
851.085	20971
851.22	20918
851.355	20902
851.49	20830
851.625	20762
851.76	20765
851.895	20735
852.03	20834
852.165	20807
852.299	20842
852.434	20861
852.569	20925
852.703	20781
852.838	20842
852.973	20914
853.107	20834
853.242	20773
853.376	20705
853.511	20469
853.645	20590
853.78	20678
853.914	20674
854.048	20594
854.183	20678
854.317	20769
854.451	20834
854.585	20678
854.72	20594
854.854	20796
854.988	20522
855.122	20579
855.256	20465
855.39	20560
855.524	20651
855.658	20629
855.792	20731
855.926	20583
856.06	20659
856.194	20648
856.327	20606
856.461	20583
856.595	20575
856.729	20724
856.862	20644
856.996	20754
857.13	20830
857.263	20727
857.397	20682
857.53	20670
857.664	20636
857.797	20712
857.931	20659
858.064	20720
858.197	20746
858.331	20575
858.464	20632
858.597	20590
858.731	20629
858.864	20518
858.997	20533
859.13	20625
859.263	20594
859.396	20609
859.529	20583
859.662	20560
859.795	20568
859.928	20636
860.061	20781
860.194	20716
860.327	20701
860.46	20682
860.592	20686
860.725	20823
860.858	20804
860.99	20648
861.123	20518
861.256	20533
861.388	20659
861.521	21222
861.653	20385
861.786	20434
861.918	20526
862.05	20488
862.183	20571
862.315	20545
862.447	20564
862.58	20556
862.712	20320
862.844	20393
862.976	20434
863.108	20423
863.24	20823
863.372	20358
863.504	20355
863.636	20412
863.768	20358
863.9	20480
864.032	20286
864.164	20248
864.296	20389
864.428	20389
864.559	20507
864.691	20393
864.823	20286
864.954	20389
865.086	20446
865.217	20305
865.349	20256
865.48	20278
865.612	20267
865.743	20385
865.875	20240
866.006	20221
866.137	20237
866.269	20305
866.4	20263
866.531	20134
866.662	20142
866.793	20210
866.924	20229
867.055	20278
867.186	20282
867.317	20176
867.448	20115
867.579	20229
867.71	20100
867.841	20084
867.972	20218
868.103	20164
868.233	20317
868.364	20202
868.495	20256
868.625	20370
868.756	20518
868.886	20450
869.017	20419
869.147	20461
869.278	20617
869.408	20450
869.539	20480
869.669	20549
869.799	20415
869.929	20564
870.06	20571
870.19	20670
870.32	20743
870.45	20754
870.58	20746
870.71	21005
870.84	20956
870.97	20842
871.1	20811
871.23	20921
871.36	21020
871.489	20971
871.619	21009
871.749	20929
871.879	21005
872.008	21070
872.138	20941
872.267	21032
872.397	20902
872.526	20800
872.656	20887
872.785	20853
872.915	21116
873.044	21081
873.173	20971
873.303	21043
873.432	21085
873.561	21188
873.69	21058
873.819	21062
873.948	21005
874.077	21146
874.206	21070
874.335	21077
874.464	21150
874.593	21359
874.722	21283
874.851	21420
874.979	21275
875.108	21336
875.237	21260
875.365	21169
875.494	21348
875.623	21397
875.751	21321
875.88	21169
876.008	21428
876.136	21462
876.265	21679
876.393	21823
876.521	21759
876.65	21709
876.778	21717
876.906	21663
877.034	21542
877.162	21766
877.29	21561
877.418	21549
877.546	21739
877.674	21800
877.802	21568
877.93	21732
878.058	21599
878.185	21576
878.313	21583
878.441	21515
878.568	21454
878.696	21629
878.824	21644
878.951	21778
879.079	21827
879.206	21907
879.333	21895
879.461	21652
879.588	21739
879.715	21842
879.842	21941
879.97	21793
880.097	21416
880.224	21481
880.351	21648
880.478	21644
880.605	21348
880.732	21469
880.859	21682
880.986	21511
881.112	21492
881.239	21313
881.366	21203
881.493	21104
881.619	20902
881.746	21070
881.872	21116
881.999	21066
882.125	21070
882.252	20986
882.378	21081
882.505	21146
882.631	21039
882.757	20724
882.883	20891
883.01	20804
883.136	20746
883.262	20617
883.388	20625
883.514	20804
883.64	20872
883.766	20720
883.892	20560
884.018	20632
884.143	20731
884.269	20823
884.395	20412
884.52	20484
884.646	20396
884.772	20412
884.897	20355
885.023	20366
885.148	20613
885.274	20476
885.399	20495
885.524	20381
885.65	20343
885.775	20362
885.9	20366
886.025	20427
886.15	20575
886.275	20347
886.4	20313
886.525	20488
886.65	20313
886.775	20317
886.9	20465
887.025	20511
887.149	20473
887.274	20153
887.399	20176
887.523	20206
887.648	20240
887.773	20142
887.897	20301
888.021	20202
888.146	20092
888.27	20336
888.395	20252
888.519	20199
888.643	20210
888.767	20218
888.891	20111
889.015	20024
889.139	20016
889.263	19978
889.387	20145
889.511	20187
889.635	20081
889.759	19769
889.883	19947
890.006	19925
890.13	20043
890.254	19887
890.377	19909
890.501	19791
890.624	19693
890.748	19746
890.871	19670
890.995	19460
891.118	19499
891.241	19563
891.364	19563
891.488	19753
891.611	19514
891.734	19594
891.857	19548
891.98	19552
892.103	19510
892.226	19696
892.349	19578
892.471	19430
892.594	19415
892.717	19594
892.839	19495
892.962	19594
893.085	19643
893.207	19400
893.33	19438
893.452	19384
893.575	19635
893.697	19468
893.819	19655
893.941	19719
894.064	19616
894.186	19514
894.308	19358
894.43	19525
894.552	19670
894.674	19552
894.796	19419
894.918	19464
895.04	19350
895.161	19460
895.283	19502
895.405	19312
895.526	19396
895.648	19453
895.769	19510
895.891	19499
896.012	19578
896.134	19487
896.255	19415
896.376	19426
896.498	19422
896.619	19563
896.74	19491
896.861	19571
896.982	19704
897.103	19997
897.224	19780
897.345	19727
897.466	19655
897.587	19693
897.708	19837
897.828	19818
897.949	19738
898.07	19525
898.19	19639
898.311	19868
898.431	19704
898.552	19696
898.672	19788
898.792	19731
898.913	19788
899.033	19540
899.153	19480
899.273	19464
899.393	19537
899.513	19495
899.633	19537
899.753	19518
899.873	19403
899.993	19449
900.113	19445
900.232	19411
900.352	19335
900.472	19381
900.591	19244
900.711	19221
900.83	19266
900.95	19350
901.069	19396
901.189	19209
901.308	18947
901.427	18886
901.546	18867
901.665	18875
901.784	18909
901.904	18753
902.023	18631
902.141	18445
902.26	18429
902.379	18441
902.498	18334
902.617	18376
902.735	18456
902.854	18327
902.973	18342
903.091	18026
903.21	18064
903.328	18053
903.446	17984
903.565	17946
903.683	17901
903.801	17798
903.919	17718
904.038	17885
904.156	17657
904.274	17764
904.392	17718
904.51	17589
904.627	17535
904.745	17786
904.863	17577
904.981	17493
905.098	17345
905.216	17273
905.334	17387
905.451	17258
905.569	17231
905.686	17387
905.803	17318
905.921	17212
906.038	17269
906.155	17025
906.272	17022
906.389	17041
906.506	16805
906.623	16911
906.74	16778
906.857	16881
906.974	16725
907.091	17003
907.208	17045
907.324	16824
907.441	16835
907.557	16599
907.674	16611
907.79	16485
907.907	16478
908.023	16535
908.139	16527
908.256	16538
908.372	16470
908.488	16462
908.604	16337
908.72	16371
908.836	16291
908.952	16344
909.068	16280
909.184	16360
909.3	16322
909.415	16337
909.531	16272
909.647	16029
909.762	16112
909.878	15945
909.993	16002
910.108	15934
910.224	15934
910.339	16006
910.454	15968
910.57	15770
910.685	15789
910.8	16078
910.915	15899
911.03	15827
911.145	15637
911.259	15618
911.374	15610
911.489	15572
911.604	15462
911.718	15355
911.833	15439
911.947	15237
912.062	15230
912.176	15370
912.291	15336
912.405	15351
912.519	15492
912.633	15545
912.748	15439
912.862	15294
912.976	15135
913.09	15074
913.204	15112
913.318	15176
913.431	15249
913.545	15268
913.659	15249
913.772	15184
913.886	15043
914	14918
914.113	15051
914.226	15310
914.34	15161
914.453	14868
914.566	14994
914.68	14823
914.793	14864
914.906	14568
915.019	14579
915.132	14499
915.245	14533
915.358	14556
915.47	14739
915.583	14667
915.696	14590
915.809	14621
915.921	14754
916.034	14598
916.146	14514
916.259	14545
916.371	14552
916.483	14514
916.595	14469
916.708	14511
916.82	14507
916.932	14476
917.044	14438
917.156	14393
917.268	14225
917.38	14320
917.491	14336
917.603	14282
917.715	14389
917.826	14336
917.938	14320
918.049	14149
918.161	14214
918.272	14385
918.384	14408
918.495	14240
918.606	14153
918.717	13997
918.828	14119
918.939	14084
919.05	13997
919.161	14020
919.272	13833
919.383	13906
919.494	14180
919.604	14301
919.715	14123
919.826	13887
919.936	13940
920.047	14107
920.157	14058
920.267	14046
920.378	13951
920.488	13967
920.598	14153
920.708	14320
920.818	14142
920.928	14130
921.038	14320
921.148	14351
921.258	13978
921.368	13947
921.477	13906
921.587	13841
921.697	13639
921.806	13818
921.916	13651
922.025	13533
922.134	13415
922.244	13396
922.353	13331
922.462	13358
922.571	13251
922.68	13046
922.789	13065
922.898	13050
923.007	13008
923.116	13012
923.224	13160
923.333	13012
923.442	12905
923.55	12909
923.659	13019
923.767	12966
923.876	12882
923.984	12954
924.092	12768
924.201	12871
924.309	12840
924.417	12848
924.525	12829
924.633	12791
924.741	13731
924.849	12612
924.956	12673
925.064	12551
925.172	12509
925.279	12540
925.387	12532
925.494	12506
925.602	12616
925.709	12566
925.816	12414
925.924	12506
926.031	12464
926.138	12460
926.245	12563
926.352	12330
926.459	12547
926.566	12578
926.673	12456
926.779	12266
926.886	12232
926.993	12110
927.099	12102
927.206	12045
927.312	12125
927.419	12186
927.525	12133
927.631	12171
927.737	11992
927.843	11912
927.95	11786
928.056	11904
928.162	11935
928.267	11954
928.373	12593
928.479	12076
928.585	11821
928.69	11847
928.796	11821
928.901	11870
929.007	11688
929.112	11790
929.218	11790
929.323	11756
929.428	11619
929.533	11684
929.638	11630
929.743	11596
929.848	11748
929.953	11604
930.058	11577
930.163	11433
930.267	11376
930.372	11558
930.477	11284
930.581	11547
930.685	11452
930.79	11235
930.894	11292
930.998	11318
931.103	11379
931.207	11060
931.311	10946
931.415	10911
931.519	10778
931.623	10736
