Data from test_V78500241_3549.txt Node
Date: Fri Mar 25 15:34:34 CST 2022
User: usil
Spectrometer: V785-0024
Trigger mode: 0
Integration Time (sec): 4.000000E-1
Scans to average: 1
Nonlinearity correction enabled: false
Boxcar width: 0
Storing dark spectrum: false
XAxis mode: Wavelengths
Number of Pixels in Spectrum: 1024
>>>>>Begin Spectral Data<<<<<
801.071	27431
801.214	27161
801.356	26940
801.499	27036
801.641	26842
801.783	26868
801.926	26918
802.068	26868
802.211	26705
802.353	26739
802.496	26674
802.638	26522
802.78	26377
802.923	26560
803.065	26366
803.208	26453
803.35	26484
803.492	26568
803.635	26697
803.777	26648
803.919	26667
804.061	26918
804.204	26792
804.346	26533
804.488	26644
804.63	26777
804.773	26560
804.915	26644
805.057	26663
805.199	26594
805.341	26708
805.483	26705
805.626	26705
805.768	26727
805.91	26678
806.052	26800
806.194	26659
806.336	27001
806.478	26682
806.62	26686
806.762	26739
806.904	27013
807.046	27176
807.188	27245
807.33	27096
807.472	27184
807.614	27192
807.756	27032
807.898	26956
808.04	26967
808.182	26800
808.324	27074
808.465	27195
808.607	27085
808.749	27469
808.891	27564
809.033	27507
809.174	27458
809.316	27359
809.458	27374
809.6	27310
809.741	27340
809.883	27515
810.025	27534
810.166	27618
810.308	27648
810.45	27561
810.591	27500
810.733	27431
810.875	27340
811.016	27279
811.158	27173
811.299	27496
811.441	27485
811.582	27523
811.724	27256
811.865	27275
812.007	27192
812.148	27359
812.29	27427
812.431	27515
812.573	27606
812.714	27728
812.855	27873
812.997	28044
813.138	28013
813.279	27994
813.421	27739
813.562	27800
813.703	27633
813.845	27549
813.986	27180
814.127	27116
814.268	27070
814.41	26925
814.551	26979
814.692	27051
814.833	26899
814.974	26952
815.115	27047
815.256	26800
815.397	26853
815.539	26811
815.68	26804
815.821	26735
815.962	26861
816.103	26632
816.244	26617
816.385	26518
816.526	26476
816.666	26385
816.807	26278
816.948	26370
817.089	26374
817.23	26324
817.371	26301
817.512	26172
817.653	26153
817.793	26282
817.934	26278
818.075	26309
818.216	26298
818.356	26233
818.497	26214
818.638	26069
818.778	26111
818.919	26157
819.06	26027
819.2	26100
819.341	26199
819.481	26229
819.622	26328
819.762	26545
819.903	26450
820.043	26549
820.184	26328
820.324	26358
820.465	26488
820.605	26313
820.746	26393
820.886	26263
821.026	26301
821.167	26343
821.307	26343
821.447	26240
821.588	26164
821.728	26035
821.868	25791
822.008	25727
822.149	25723
822.289	25651
822.429	25434
822.569	25445
822.709	25457
822.849	25343
822.99	25365
823.13	25251
823.27	25152
823.41	25110
823.55	24973
823.69	25194
823.83	25122
823.97	25050
824.11	24859
824.25	24833
824.389	24787
824.529	24890
824.669	24951
824.809	24935
824.949	24829
825.089	24928
825.228	24916
825.368	24665
825.508	24715
825.648	24890
825.787	24806
825.927	24837
826.067	24650
826.206	24665
826.346	24875
826.485	24810
826.625	24593
826.765	24878
826.904	24768
827.044	24479
827.183	24559
827.323	24407
827.462	24597
827.601	24597
827.741	24407
827.88	24486
828.02	24308
828.159	24517
828.298	24475
828.437	24407
828.577	24414
828.716	24566
828.855	24456
828.994	24186
829.134	24205
829.273	24205
829.412	24144
829.551	24144
829.69	24087
829.829	24235
829.968	24247
830.107	24285
830.246	24072
830.385	24144
830.524	24102
830.663	23904
830.802	23859
830.941	23710
831.08	23882
831.219	23954
831.357	23866
831.496	24003
831.635	23661
831.774	23687
831.913	23786
832.051	23562
832.19	23672
832.329	23467
832.467	23486
832.606	23429
832.744	23436
832.883	23497
833.022	23330
833.16	23554
833.299	23551
833.437	23573
833.576	23592
833.714	23611
833.852	23535
833.991	23642
834.129	23611
834.267	23630
834.406	23608
834.544	23661
834.682	23570
834.821	23459
834.959	23699
835.097	23493
835.235	23558
835.373	23417
835.511	23585
835.65	23505
835.788	23410
835.926	23277
836.064	23117
836.202	23284
836.34	23322
836.478	23406
836.615	23315
836.753	23368
836.891	23528
837.029	23410
837.167	23315
837.305	23307
837.443	23113
837.58	23307
837.718	23345
837.856	23258
837.993	23204
838.131	23296
838.269	23166
838.406	23124
838.544	23044
838.681	22911
838.819	22911
838.956	22702
839.094	22668
839.231	22843
839.369	22892
839.506	22938
839.643	23025
839.781	22790
839.918	22599
840.055	22698
840.193	22687
840.33	22611
840.467	22706
840.604	22557
840.742	22923
840.879	22596
841.016	22554
841.153	22516
841.29	22710
841.427	22626
841.564	22771
841.701	22683
841.838	22535
841.975	22592
842.112	22535
842.249	22508
842.385	22394
842.522	22649
842.659	22577
842.796	22363
842.933	22375
843.069	22459
843.206	22363
843.343	22363
843.479	22417
843.616	22356
843.752	22284
843.889	22162
844.025	22322
844.162	22268
844.298	22249
844.435	22234
844.571	22169
844.708	22169
844.844	22287
844.98	22360
845.117	22200
845.253	22169
845.389	22116
845.525	22048
845.661	22040
845.798	21949
845.934	21937
846.07	21850
846.206	21972
846.342	21987
846.478	21846
846.614	21671
846.75	21599
846.886	21686
847.022	21762
847.158	21660
847.294	21519
847.429	21679
847.565	21622
847.701	21865
847.837	21367
847.972	21378
848.108	21469
848.244	21481
848.379	21298
848.515	21173
848.65	21123
848.786	21222
848.921	21214
849.057	21291
849.192	21340
849.328	21302
849.463	21336
849.598	21146
849.734	21142
849.869	21089
850.004	20914
850.14	21135
850.275	20994
850.41	20918
850.545	21047
850.68	20944
850.815	21066
850.95	21142
851.085	21108
851.22	21104
851.355	21104
851.49	21047
851.625	21043
851.76	20998
851.895	20967
852.03	20906
852.165	21032
852.299	21013
852.434	21043
852.569	20929
852.703	21055
852.838	21096
852.973	21131
853.107	21096
853.242	21051
853.376	20823
853.511	20750
853.645	20792
853.78	20899
853.914	20864
854.048	20861
854.183	20750
854.317	20952
854.451	21070
854.585	20899
854.72	20834
854.854	20963
854.988	20845
855.122	20937
855.256	20708
855.39	20868
855.524	21013
855.658	20925
855.792	20998
855.926	20842
856.06	20902
856.194	20982
856.327	20826
856.461	20834
856.595	20804
856.729	20796
856.862	20971
856.996	20960
857.13	20982
857.263	21047
857.397	20921
857.53	20830
857.664	20876
857.797	20876
857.931	21013
858.064	20823
858.197	20944
858.331	20834
858.464	20819
858.597	20762
858.731	20800
858.864	20842
858.997	20792
859.13	20811
859.263	20906
859.396	21032
859.529	20746
859.662	20883
859.795	20842
859.928	20849
860.061	20963
860.194	21005
860.327	20925
860.46	20800
860.592	20910
860.725	21043
860.858	20990
860.99	20963
861.123	20845
861.256	20853
861.388	20823
861.521	21671
861.653	20712
861.786	20571
861.918	20727
862.05	20807
862.183	20765
862.315	20819
862.447	20880
862.58	20895
862.712	20606
862.844	20530
862.976	20697
863.108	20686
863.24	21051
863.372	20427
863.504	20625
863.636	20575
863.768	20389
863.9	20670
864.032	20583
864.164	20625
864.296	20549
864.428	20727
864.559	20526
864.691	20648
864.823	20659
864.954	20541
865.086	20537
865.217	20484
865.349	20339
865.48	20564
865.612	20575
865.743	20644
865.875	20545
866.006	20533
866.137	20492
866.269	20556
866.4	20469
866.531	20461
866.662	20396
866.793	20423
866.924	20450
867.055	20412
867.186	20495
867.317	20457
867.448	20381
867.579	20347
867.71	20358
867.841	20271
867.972	20522
868.103	20549
868.233	20427
868.364	20328
868.495	20568
868.625	20640
868.756	20807
868.886	20640
869.017	20724
869.147	20648
869.278	20773
869.408	20712
869.539	20594
869.669	20788
869.799	20655
869.929	20765
870.06	20754
870.19	20967
870.32	20956
870.45	21051
870.58	21024
870.71	21032
870.84	21135
870.97	21116
871.1	21005
871.23	21283
871.36	21336
871.489	21260
871.619	21302
871.749	21237
871.879	21272
872.008	21291
872.138	21161
872.267	21306
872.397	21146
872.526	21066
872.656	21074
872.785	21150
872.915	21275
873.044	21382
873.173	21321
873.303	21351
873.432	21435
873.561	21450
873.69	21359
873.819	21329
873.948	21283
874.077	21321
874.206	21367
874.335	21363
874.464	21428
874.593	21511
874.722	21469
874.851	21629
874.979	21599
875.108	21671
875.237	21443
875.365	21462
875.494	21447
875.623	21705
875.751	21603
875.88	21690
876.008	21713
876.136	21682
876.265	21975
876.393	22040
876.521	21987
876.65	22063
876.778	21926
876.906	21945
877.034	22036
877.162	21983
877.29	21903
877.418	21994
877.546	21960
877.674	21915
877.802	21838
877.93	21892
878.058	21800
878.185	21804
878.313	21774
878.441	21880
878.568	21793
878.696	21690
878.824	22006
878.951	21934
879.079	22055
879.206	22147
879.333	22029
879.461	21960
879.588	21975
879.715	22128
879.842	22192
879.97	21991
880.097	21762
880.224	21797
880.351	21713
880.478	21808
880.605	21663
880.732	21759
880.859	21975
880.986	21846
881.112	21751
881.239	21538
881.366	21389
881.493	21363
881.619	21298
881.746	21298
881.872	21302
881.999	21218
882.125	21211
882.252	21291
882.378	21279
882.505	21405
882.631	21157
882.757	21123
882.883	21112
883.01	21058
883.136	20982
883.262	20853
883.388	20826
883.514	20944
883.64	21123
883.766	20880
883.892	20876
884.018	20838
884.143	21017
884.269	21077
884.395	20777
884.52	20712
884.646	20575
884.772	20648
884.897	20522
885.023	20564
885.148	20758
885.274	20800
885.399	20686
885.524	20625
885.65	20716
885.775	20663
885.9	20678
886.025	20682
886.15	20746
886.275	20617
886.4	20450
886.525	20659
886.65	20613
886.775	20629
886.9	20735
887.025	20861
887.149	20670
887.274	20362
887.399	20396
887.523	20503
887.648	20358
887.773	20317
887.897	20454
888.021	20400
888.146	20301
888.27	20507
888.395	20522
888.519	20530
888.643	20499
888.767	20484
888.891	20404
889.015	20214
889.139	20271
889.263	20252
889.387	20320
889.511	20530
889.635	20389
889.759	20267
889.883	20271
890.006	20183
890.13	20355
890.254	20187
890.377	20168
890.501	20001
890.624	19879
890.748	20035
890.871	19875
890.995	19727
891.118	19761
891.241	19693
891.364	19921
891.488	19970
891.611	19757
891.734	19704
891.857	19902
891.98	19845
892.103	19780
892.226	19811
892.349	19746
892.471	19620
892.594	19685
892.717	19742
892.839	19685
892.962	19689
893.085	19826
893.207	19799
893.33	19559
893.452	19556
893.575	19712
893.697	19799
893.819	19830
893.941	19970
894.064	19917
894.186	19704
894.308	19635
894.43	19868
894.552	19951
894.674	19750
894.796	19578
894.918	19655
895.04	19704
895.161	19715
895.283	19772
895.405	19723
895.526	19704
895.648	19750
895.769	19784
895.891	19807
896.012	19860
896.134	19784
896.255	19776
896.376	19696
896.498	19666
896.619	19723
896.74	19655
896.861	19746
896.982	20050
897.103	20119
897.224	19944
897.345	20035
897.466	19894
897.587	19947
897.708	20100
897.828	19993
897.949	19894
898.07	19803
898.19	19925
898.311	19940
898.431	19959
898.552	19917
898.672	20073
898.792	20016
898.913	19887
899.033	19860
899.153	19791
899.273	19727
899.393	19658
899.513	19856
899.633	19700
899.753	19826
899.873	19738
899.993	19784
900.113	19628
900.232	19655
900.352	19613
900.472	19518
900.591	19316
900.711	19499
900.83	19521
900.95	19601
901.069	19449
901.189	19324
901.308	19103
901.427	19076
901.546	19050
901.665	19076
901.784	19099
901.904	18970
902.023	18886
902.141	18570
902.26	18700
902.379	18696
902.498	18551
902.617	18582
902.735	18608
902.854	18544
902.973	18570
903.091	18232
903.21	18334
903.328	18243
903.446	18133
903.565	18163
903.683	18125
903.801	17939
903.919	18076
904.038	18041
904.156	17851
904.274	17935
904.392	17805
904.51	17863
904.627	17764
904.745	18003
904.863	17874
904.981	17657
905.098	17516
905.216	17448
905.334	17691
905.451	17596
905.569	17585
905.686	17562
905.803	17547
905.921	17315
906.038	17463
906.155	17277
906.272	17284
906.389	17227
906.506	17041
906.623	17109
906.74	16965
906.857	17052
906.974	17060
907.091	17102
907.208	17242
907.324	17094
907.441	16980
907.557	16805
907.674	16736
907.79	16691
907.907	16835
908.023	16717
908.139	16607
908.256	16668
908.372	16626
908.488	16672
908.604	16558
908.72	16409
908.836	16542
908.952	16413
909.068	16542
909.184	16607
909.3	16432
909.415	16538
909.531	16580
909.647	16200
909.762	16154
909.878	16207
909.993	16234
910.108	16112
910.224	16158
910.339	16147
910.454	16078
910.57	15926
910.685	16002
910.8	16154
910.915	16116
911.03	15994
911.145	15895
911.259	15781
911.374	15724
911.489	15675
911.604	15713
911.718	15542
911.833	15641
911.947	15405
912.062	15382
912.176	15564
912.291	15599
912.405	15553
912.519	15732
912.633	15793
912.748	15553
912.862	15534
912.976	15367
913.09	15275
913.204	15386
913.318	15279
913.431	15424
913.545	15485
913.659	15447
913.772	15340
913.886	15192
914	15268
914.113	15233
914.226	15237
914.34	15272
914.453	15055
914.566	15252
914.68	14982
914.793	15070
914.906	14902
915.019	14777
915.132	14777
915.245	14697
915.358	14788
915.47	14868
915.583	14849
915.696	14834
915.809	14754
915.921	14948
916.034	14796
916.146	14705
916.259	14674
916.371	14781
916.483	14769
916.595	14617
916.708	14682
916.82	14701
916.932	14625
917.044	14503
917.156	14434
917.268	14461
917.38	14446
917.491	14336
917.603	14404
917.715	14484
917.826	14503
917.938	14457
918.049	14210
918.161	14480
918.272	14514
918.384	14552
918.495	14336
918.606	14339
918.717	14119
918.828	14191
918.939	14244
919.05	14077
919.161	14202
919.272	13974
919.383	14176
919.494	14240
919.604	14465
919.715	14259
919.826	14142
919.936	14168
920.047	14267
920.157	14256
920.267	14427
920.378	14191
920.488	14149
920.598	14370
920.708	14511
920.818	14351
920.928	14347
921.038	14533
921.148	14389
921.258	14187
921.368	14115
921.477	13963
921.587	13993
921.697	13776
921.806	13826
921.916	13753
922.025	13537
922.134	13620
922.244	13529
922.353	13548
922.462	13529
922.571	13445
922.68	13263
922.789	13316
922.898	13194
923.007	13232
923.116	13304
923.224	13202
923.333	13084
923.442	13194
923.55	13091
923.659	13122
923.767	13122
923.876	13129
923.984	13118
924.092	12939
924.201	13000
924.309	13076
924.417	13065
924.525	12951
924.633	12962
924.741	13689
924.849	12783
924.956	12844
925.064	12760
925.172	12745
925.279	12764
925.387	12684
925.494	12662
925.602	12833
925.709	12715
925.816	12616
925.924	12631
926.031	12722
926.138	12578
926.245	12711
926.352	12540
926.459	12726
926.566	12707
926.673	12536
926.779	12410
926.886	12479
926.993	12273
927.099	12232
927.206	12258
927.312	12285
927.419	12353
927.525	12243
927.631	12327
927.737	12194
927.843	12087
927.95	12095
928.056	12148
928.162	12117
928.267	12136
928.373	12688
928.479	12232
928.585	12015
928.69	11999
928.796	12068
928.901	11893
929.007	11882
929.112	11931
929.218	11874
929.323	11908
929.428	11752
929.533	11977
929.638	11771
929.743	11794
929.848	11798
929.953	11802
930.058	11646
930.163	11452
930.267	11634
930.372	11707
930.477	11478
930.581	11726
930.685	11585
930.79	11497
930.894	11543
930.998	11395
931.103	11493
931.207	11178
931.311	11193
931.415	10995
931.519	10793
931.623	10748
