Data from test_V78500241_2694.txt Node
Date: Fri Mar 25 15:28:37 CST 2022
User: usil
Spectrometer: V785-0024
Trigger mode: 0
Integration Time (sec): 4.000000E-1
Scans to average: 1
Nonlinearity correction enabled: false
Boxcar width: 0
Storing dark spectrum: false
XAxis mode: Wavelengths
Number of Pixels in Spectrum: 1024
>>>>>Begin Spectral Data<<<<<
801.071	27096
801.214	26990
801.356	26701
801.499	26743
801.641	26659
801.783	26625
801.926	26712
802.068	26549
802.211	26541
802.353	26442
802.496	26191
802.638	26248
802.78	26225
802.923	26286
803.065	26012
803.208	26103
803.35	26210
803.492	26317
803.635	26476
803.777	26100
803.919	26434
804.061	26670
804.204	26419
804.346	26263
804.488	26309
804.63	26530
804.773	26294
804.915	26309
805.057	26480
805.199	26358
805.341	26514
805.483	26347
805.626	26442
805.768	26389
805.91	26453
806.052	26324
806.194	26389
806.336	26689
806.478	26476
806.62	26514
806.762	26522
806.904	26716
807.046	27032
807.188	26807
807.33	26788
807.472	26925
807.614	26796
807.756	26773
807.898	26762
808.04	26606
808.182	26583
808.324	26819
808.465	26960
808.607	27043
808.749	27024
808.891	27142
809.033	27047
809.174	27131
809.316	26967
809.458	27036
809.6	27020
809.741	27093
809.883	27169
810.025	27310
810.166	27378
810.308	27523
810.45	27325
810.591	27226
810.733	27135
810.875	26925
811.016	26998
811.158	26887
811.299	27180
811.441	27336
811.582	27192
811.724	26979
811.865	26940
812.007	27039
812.148	26921
812.29	27070
812.431	27150
812.573	27450
812.714	27466
812.855	27542
812.997	27618
813.138	27797
813.279	27599
813.421	27603
813.562	27549
813.703	27397
813.845	27123
813.986	27074
814.127	26857
814.268	26659
814.41	26701
814.551	26617
814.692	26606
814.833	26621
814.974	26636
815.115	26705
815.256	26511
815.397	26545
815.539	26480
815.68	26484
815.821	26252
815.962	26514
816.103	26526
816.244	26362
816.385	26229
816.526	26149
816.666	26035
816.807	25875
816.948	25921
817.089	25955
817.23	25898
817.371	25959
817.512	25852
817.653	25803
817.793	25955
817.934	25978
818.075	25978
818.216	25928
818.356	25959
818.497	25715
818.638	25635
818.778	25727
818.919	25753
819.06	25628
819.2	25791
819.341	25826
819.481	25868
819.622	26077
819.762	26225
819.903	26240
820.043	26153
820.184	26103
820.324	26050
820.465	26161
820.605	25970
820.746	26020
820.886	25799
821.026	25913
821.167	25887
821.307	26062
821.447	25845
821.588	25845
821.728	25849
821.868	25685
822.008	25495
822.149	25518
822.289	25449
822.429	25278
822.569	25050
822.709	25251
822.849	24985
822.99	24878
823.13	24871
823.27	24802
823.41	24844
823.55	24631
823.69	24764
823.83	24707
823.97	24684
824.11	24521
824.25	24612
824.389	24509
824.529	24623
824.669	24639
824.809	24578
824.949	24623
825.089	24620
825.228	24528
825.368	24399
825.508	24372
825.648	24513
825.787	24502
825.927	24403
826.067	24308
826.206	24342
826.346	24429
826.485	24585
826.625	24380
826.765	24502
826.904	24517
827.044	24197
827.183	24140
827.323	24186
827.462	24216
827.601	24117
827.741	24121
827.88	24095
828.02	23988
828.159	24133
828.298	24114
828.437	24136
828.577	24102
828.716	24201
828.855	24136
828.994	23870
829.134	23927
829.273	23821
829.412	23977
829.551	23767
829.69	23840
829.829	23843
829.968	23901
830.107	23893
830.246	23809
830.385	23779
830.524	23809
830.663	23653
830.802	23596
830.941	23520
831.08	23516
831.219	23391
831.357	23558
831.496	23714
831.635	23516
831.774	23383
831.913	23303
832.051	23159
832.19	23261
832.329	23269
832.467	23147
832.606	23117
832.744	23117
832.883	23189
833.022	23094
833.16	23105
833.299	23083
833.437	23124
833.576	23288
833.714	23105
833.852	23193
833.991	23299
834.129	23254
834.267	23155
834.406	23368
834.544	23395
834.682	23204
834.821	23200
834.959	23315
835.097	23079
835.235	23200
835.373	23132
835.511	23159
835.65	22930
835.788	22976
835.926	22847
836.064	22885
836.202	22885
836.34	23060
836.478	23079
836.615	23185
836.753	23022
836.891	23143
837.029	22938
837.167	23029
837.305	22862
837.443	22915
837.58	22725
837.718	22961
837.856	22843
837.993	22786
838.131	22843
838.269	22790
838.406	22702
838.544	22694
838.681	22531
838.819	22527
838.956	22398
839.094	22424
839.231	22394
839.369	22626
839.506	22763
839.643	22592
839.781	22432
839.918	22310
840.055	22234
840.193	22363
840.33	22360
840.467	22276
840.604	22379
840.742	22645
840.879	22200
841.016	22322
841.153	22181
841.29	22447
841.427	22154
841.564	22314
841.701	22265
841.838	22139
841.975	22139
842.112	22265
842.249	22238
842.385	22173
842.522	22314
842.659	22093
842.796	22109
842.933	22173
843.069	21956
843.206	22063
843.343	22055
843.479	22120
843.616	22059
843.752	21774
843.889	21755
844.025	21850
844.162	21934
844.298	21842
844.435	21880
844.571	21736
844.708	21884
844.844	21998
844.98	21987
845.117	21987
845.253	21660
845.389	21774
845.525	21793
845.661	21629
845.798	21622
845.934	21599
846.07	21545
846.206	21637
846.342	21618
846.478	21583
846.614	21408
846.75	21412
846.886	21382
847.022	21405
847.158	21393
847.294	21408
847.429	21431
847.565	21340
847.701	21603
847.837	21131
847.972	21112
848.108	21116
848.244	21214
848.379	20933
848.515	20910
848.65	20796
848.786	20933
848.921	20979
849.057	21013
849.192	20941
849.328	20975
849.463	20830
849.598	20804
849.734	20887
849.869	20800
850.004	20636
850.14	20727
850.275	20743
850.41	20621
850.545	20659
850.68	20613
850.815	20773
850.95	20648
851.085	20868
851.22	20819
851.355	20773
851.49	20625
851.625	20632
851.76	20625
851.895	20644
852.03	20606
852.165	20613
852.299	20739
852.434	20777
852.569	20693
852.703	20667
852.838	20716
852.973	20815
853.107	20781
853.242	20750
853.376	20465
853.511	20381
853.645	20499
853.78	20571
853.914	20503
854.048	20374
854.183	20522
854.317	20583
854.451	20705
854.585	20564
854.72	20518
854.854	20552
854.988	20438
855.122	20469
855.256	20431
855.39	20415
855.524	20537
855.658	20552
855.792	20461
855.926	20533
856.06	20541
856.194	20617
856.327	20533
856.461	20408
856.595	20457
856.729	20461
856.862	20480
856.996	20545
857.13	20560
857.263	20659
857.397	20594
857.53	20442
857.664	20625
857.797	20537
857.931	20712
858.064	20541
858.197	20648
858.331	20400
858.464	20492
858.597	20324
858.731	20484
858.864	20465
858.997	20400
859.13	20469
859.263	20404
859.396	20484
859.529	20450
859.662	20492
859.795	20495
859.928	20465
860.061	20655
860.194	20750
860.327	20537
860.46	20461
860.592	20670
860.725	20727
860.858	20651
860.99	20514
861.123	20465
861.256	20446
861.388	20492
861.521	21230
861.653	20370
861.786	20282
861.918	20412
862.05	20476
862.183	20484
862.315	20446
862.447	20408
862.58	20427
862.712	20229
862.844	20248
862.976	20259
863.108	20320
863.24	20659
863.372	20301
863.504	20336
863.636	20130
863.768	20309
863.9	20301
864.032	20134
864.164	20252
864.296	20294
864.428	20404
864.559	20168
864.691	20271
864.823	20256
864.954	20244
865.086	20180
865.217	20244
865.349	20054
865.48	20119
865.612	20233
865.743	20275
865.875	20088
866.006	20096
866.137	20012
866.269	20088
866.4	20142
866.531	20115
866.662	20035
866.793	20088
866.924	20115
867.055	20122
867.186	20134
867.317	19921
867.448	20096
867.579	20012
867.71	19921
867.841	20046
867.972	20062
868.103	20046
868.233	20084
868.364	20073
868.495	20221
868.625	20248
868.756	20358
868.886	20282
869.017	20362
869.147	20336
869.278	20298
869.408	20385
869.539	20408
869.669	20320
869.799	20408
869.929	20336
870.06	20301
870.19	20602
870.32	20636
870.45	20476
870.58	20644
870.71	20826
870.84	20921
870.97	20762
871.1	20651
871.23	20857
871.36	20929
871.489	20735
871.619	20807
871.749	20937
871.879	21009
872.008	20979
872.138	20914
872.267	20914
872.397	20826
872.526	20674
872.656	20792
872.785	20754
872.915	21096
873.044	20990
873.173	20982
873.303	20921
873.432	20921
873.561	21077
873.69	20883
873.819	20960
873.948	21062
874.077	20941
874.206	20861
874.335	20914
874.464	20933
874.593	21214
874.722	21017
874.851	21173
874.979	21252
875.108	21150
875.237	21233
875.365	21058
875.494	21142
875.623	21085
875.751	21230
875.88	21184
876.008	21241
876.136	21344
876.265	21629
876.393	21564
876.521	21553
876.65	21622
876.778	21614
876.906	21564
877.034	21469
877.162	21504
877.29	21618
877.418	21610
877.546	21526
877.674	21572
877.802	21557
877.93	21572
878.058	21488
878.185	21443
878.313	21545
878.441	21526
878.568	21397
878.696	21545
878.824	21507
878.951	21698
879.079	21724
879.206	21812
879.333	21580
879.461	21614
879.588	21599
879.715	21652
879.842	21812
879.97	21507
880.097	21408
880.224	21420
880.351	21310
880.478	21359
880.605	21313
880.732	21408
880.859	21545
880.986	21348
881.112	21378
881.239	21203
881.366	21116
881.493	21066
881.619	20948
881.746	21028
881.872	20963
881.999	20857
882.125	20883
882.252	21074
882.378	20918
882.505	20975
882.631	20792
882.757	20632
882.883	20811
883.01	20712
883.136	20670
883.262	20552
883.388	20552
883.514	20674
883.64	20750
883.766	20488
883.892	20507
884.018	20454
884.143	20530
884.269	20648
884.395	20328
884.52	20355
884.646	20419
884.772	20195
884.897	20233
885.023	20336
885.148	20511
885.274	20476
885.399	20454
885.524	20336
885.65	20286
885.775	20244
885.9	20309
886.025	20511
886.15	20423
886.275	20218
886.4	20256
886.525	20180
886.65	20229
886.775	20252
886.9	20377
887.025	20419
887.149	20267
887.274	20077
887.399	19974
887.523	20058
887.648	19959
887.773	19932
887.897	20153
888.021	20039
888.146	20012
888.27	20221
888.395	20164
888.519	20069
888.643	20149
888.767	20164
888.891	20024
889.015	19826
889.139	20005
889.263	19894
889.387	19925
889.511	19989
889.635	19997
889.759	19856
889.883	19845
890.006	19932
890.13	19951
890.254	19811
890.377	19814
890.501	19597
890.624	19632
890.748	19639
890.871	19544
890.995	19514
891.118	19407
891.241	19468
891.364	19445
891.488	19605
891.611	19411
891.734	19533
891.857	19453
891.98	19362
892.103	19472
892.226	19525
892.349	19407
892.471	19259
892.594	19343
892.717	19441
892.839	19381
892.962	19316
893.085	19381
893.207	19285
893.33	19183
893.452	19346
893.575	19499
893.697	19377
893.819	19529
893.941	19571
894.064	19483
894.186	19343
894.308	19304
894.43	19419
894.552	19529
894.674	19537
894.796	19365
894.918	19350
895.04	19327
895.161	19438
895.283	19381
895.405	19381
895.526	19358
895.648	19320
895.769	19472
895.891	19362
896.012	19529
896.134	19487
896.255	19453
896.376	19392
896.498	19445
896.619	19324
896.74	19411
896.861	19434
896.982	19731
897.103	19830
897.224	19639
897.345	19559
897.466	19540
897.587	19662
897.708	19761
897.828	19624
897.949	19590
898.07	19575
898.19	19582
898.311	19746
898.431	19559
898.552	19540
898.672	19731
898.792	19662
898.913	19704
899.033	19502
899.153	19434
899.273	19358
899.393	19358
899.513	19396
899.633	19358
899.753	19460
899.873	19483
899.993	19499
900.113	19316
900.232	19457
900.352	19259
900.472	19221
900.591	19164
900.711	19221
900.83	19126
900.95	19255
901.069	19343
901.189	19103
901.308	18814
901.427	18741
901.546	18700
901.665	18802
901.784	18776
901.904	18654
902.023	18544
902.141	18338
902.26	18311
902.379	18456
902.498	18292
902.617	18296
902.735	18315
902.854	18216
902.973	18148
903.091	18034
903.21	17920
903.328	17961
903.446	17916
903.565	17657
903.683	17958
903.801	17581
903.919	17745
904.038	17699
904.156	17570
904.274	17665
904.392	17516
904.51	17486
904.627	17566
904.745	17455
904.863	17668
904.981	17433
905.098	17189
905.216	17189
905.334	17322
905.451	17235
905.569	17246
905.686	17345
905.803	17208
905.921	17033
906.038	17147
906.155	16999
906.272	16927
906.389	16968
906.506	16698
906.623	16793
906.74	16725
906.857	16710
906.974	16736
907.091	16835
907.208	16824
907.324	16793
907.441	16618
907.557	16493
907.674	16546
907.79	16413
907.907	16508
908.023	16569
908.139	16474
908.256	16516
908.372	16409
908.488	16253
908.604	16234
908.72	16219
908.836	16333
908.952	16162
909.068	16230
909.184	16272
909.3	16268
909.415	16322
909.531	16318
909.647	16006
909.762	16021
909.878	15926
909.993	15945
910.108	15888
910.224	15945
910.339	15945
910.454	15766
910.57	15888
910.685	15637
910.8	16036
910.915	15895
911.03	15663
911.145	15488
911.259	15564
911.374	15587
911.489	15466
911.604	15462
911.718	15291
911.833	15283
911.947	15226
912.062	15218
912.176	15405
912.291	15313
912.405	15291
912.519	15507
912.633	15500
912.748	15245
912.862	15195
912.976	15138
913.09	15013
913.204	15180
913.318	15081
913.431	15275
913.545	15214
913.659	15192
913.772	15138
913.886	14887
914	14910
914.113	15017
914.226	15001
914.34	14956
914.453	14800
914.566	15074
914.68	14811
914.793	14781
914.906	14686
915.019	14480
915.132	14473
915.245	14590
915.358	14583
915.47	14594
915.583	14602
915.696	14549
915.809	14651
915.921	14663
916.034	14545
916.146	14419
916.259	14389
916.371	14465
916.483	14499
916.595	14370
916.708	14408
916.82	14446
916.932	14362
917.044	14377
917.156	14278
917.268	14206
917.38	14149
917.491	14206
917.603	14252
917.715	14229
917.826	14221
917.938	14176
918.049	14058
918.161	14218
918.272	14252
918.384	14214
918.495	14119
918.606	14027
918.717	13898
918.828	14046
918.939	14012
919.05	13928
919.161	14031
919.272	13902
919.383	13951
919.494	13982
919.604	14111
919.715	13940
919.826	13852
919.936	13875
920.047	14043
920.157	13982
920.267	14172
920.378	13894
920.488	13917
920.598	14111
920.708	14313
920.818	13993
920.928	14103
921.038	14275
921.148	14229
921.258	13970
921.368	13780
921.477	13693
921.587	13738
921.697	13521
921.806	13734
921.916	13537
922.025	13350
922.134	13335
922.244	13304
922.353	13510
922.462	13343
922.571	13209
922.68	13103
922.789	12947
922.898	12996
923.007	12943
923.116	12981
923.224	12973
923.333	12962
923.442	12890
923.55	12776
923.659	12894
923.767	12981
923.876	12806
923.984	12894
924.092	12703
924.201	12840
924.309	12791
924.417	12749
924.525	12719
924.633	12715
924.741	13597
924.849	12525
924.956	12730
925.064	12448
925.172	12319
925.279	12410
925.387	12433
925.494	12532
925.602	12608
925.709	12589
925.816	12391
925.924	12437
926.031	12437
926.138	12376
926.245	12437
926.352	12308
926.459	12479
926.566	12433
926.673	12388
926.779	12213
926.886	12224
926.993	12072
927.099	12083
927.206	12022
927.312	11973
927.419	12015
927.525	11992
927.631	12060
927.737	11908
927.843	11893
927.95	11859
928.056	11950
928.162	11897
928.267	11923
928.373	12429
928.479	11935
928.585	11710
928.69	11790
928.796	11836
928.901	11824
929.007	11573
929.112	11786
929.218	11722
929.323	11672
929.428	11592
929.533	11634
929.638	11520
929.743	11532
929.848	11596
929.953	11512
930.058	11417
930.163	11292
930.267	11349
930.372	11414
930.477	11265
930.581	11512
930.685	11406
930.79	11223
930.894	11212
930.998	11288
931.103	11345
931.207	10923
931.311	10824
931.415	10774
931.519	10618
931.623	10584
