Data from test_V78500241_3158.txt Node
Date: Fri Mar 25 15:31:51 CST 2022
User: usil
Spectrometer: V785-0024
Trigger mode: 0
Integration Time (sec): 4.000000E-1
Scans to average: 1
Nonlinearity correction enabled: false
Boxcar width: 0
Storing dark spectrum: false
XAxis mode: Wavelengths
Number of Pixels in Spectrum: 1024
>>>>>Begin Spectral Data<<<<<
801.071	27249
801.214	27146
801.356	27005
801.499	26872
801.641	26655
801.783	26667
801.926	26743
802.068	26842
802.211	26606
802.353	26678
802.496	26594
802.638	26465
802.78	26385
802.923	26427
803.065	26271
803.208	26423
803.35	26564
803.492	26473
803.635	26609
803.777	26370
803.919	26579
804.061	26876
804.204	26686
804.346	26568
804.488	26518
804.63	26568
804.773	26499
804.915	26655
805.057	26533
805.199	26488
805.341	26507
805.483	26796
805.626	26750
805.768	26602
805.91	26678
806.052	26735
806.194	26625
806.336	26815
806.478	26712
806.62	26739
806.762	26716
806.904	26769
807.046	26990
807.188	27013
807.33	27085
807.472	27146
807.614	27077
807.756	27096
807.898	26933
808.04	26979
808.182	26925
808.324	26876
808.465	26857
808.607	27207
808.749	27062
808.891	27325
809.033	27408
809.174	27237
809.316	27184
809.458	27237
809.6	27222
809.741	27359
809.883	27370
810.025	27462
810.166	27618
810.308	27321
810.45	27549
810.591	27393
810.733	27283
810.875	27241
811.016	27070
811.158	27146
811.299	27340
811.441	27397
811.582	27405
811.724	27226
811.865	27344
812.007	27249
812.148	27256
812.29	27203
812.431	27260
812.573	27507
812.714	27743
812.855	27671
812.997	27751
813.138	28090
813.279	27876
813.421	27770
813.562	27633
813.703	27515
813.845	27348
813.986	27176
814.127	26998
814.268	27074
814.41	26937
814.551	26838
814.692	26914
814.833	26823
814.974	26857
815.115	27005
815.256	26895
815.397	26868
815.539	26758
815.68	26743
815.821	26644
815.962	26701
816.103	26636
816.244	26533
816.385	26442
816.526	26385
816.666	26294
816.807	26084
816.948	26259
817.089	26305
817.23	26278
817.371	26130
817.512	26218
817.653	26050
817.793	26100
817.934	26187
818.075	26267
818.216	26237
818.356	26077
818.497	26088
818.638	25830
818.778	25909
818.919	25902
819.06	25890
819.2	26084
819.341	26206
819.481	26031
819.622	26298
819.762	26533
819.903	26404
820.043	26339
820.184	26244
820.324	26347
820.465	26286
820.605	26240
820.746	26259
820.886	26031
821.026	26271
821.167	26229
821.307	26267
821.447	26206
821.588	25970
821.728	25936
821.868	25788
822.008	25624
822.149	25582
822.289	25582
822.429	25289
822.569	25308
822.709	25358
822.849	25175
822.99	25137
823.13	25061
823.27	25046
823.41	24966
823.55	24856
823.69	24935
823.83	24943
823.97	24985
824.11	24684
824.25	24779
824.389	24829
824.529	24856
824.669	24654
824.809	24970
824.949	24875
825.089	24848
825.228	24700
825.368	24555
825.508	24639
825.648	24559
825.787	24730
825.927	24688
826.067	24654
826.206	24589
826.346	24631
826.485	24639
826.625	24654
826.765	24757
826.904	24730
827.044	24494
827.183	24471
827.323	24235
827.462	24433
827.601	24334
827.741	24178
827.88	24357
828.02	24296
828.159	24357
828.298	24292
828.437	24346
828.577	24346
828.716	24448
828.855	24247
828.994	24091
829.134	24155
829.273	23965
829.412	23961
829.551	24060
829.69	23999
829.829	24110
829.968	24239
830.107	24057
830.246	24068
830.385	24045
830.524	23984
830.663	23958
830.802	23904
830.941	23551
831.08	23687
831.219	23843
831.357	23722
831.496	23996
831.635	23676
831.774	23661
831.913	23577
832.051	23433
832.19	23368
832.329	23440
832.467	23368
832.606	23265
832.744	23288
832.883	23273
833.022	23296
833.16	23307
833.299	23406
833.437	23421
833.576	23455
833.714	23490
833.852	23398
833.991	23425
834.129	23497
834.267	23440
834.406	23547
834.544	23421
834.682	23524
834.821	23539
834.959	23596
835.097	23261
835.235	23398
835.373	23398
835.511	23417
835.65	23239
835.788	23204
835.926	23041
836.064	23006
836.202	23029
836.34	23185
836.478	23417
836.615	23220
836.753	23239
836.891	23231
837.029	23341
837.167	23269
837.305	23185
837.443	23102
837.58	23109
837.718	23166
837.856	23136
837.993	23117
838.131	23098
838.269	22752
838.406	23075
838.544	22927
838.681	22790
838.819	22797
838.956	22546
839.094	22653
839.231	22599
839.369	22797
839.506	22927
839.643	22892
839.781	22641
839.918	22641
840.055	22615
840.193	22470
840.33	22546
840.467	22470
840.604	22588
840.742	22786
840.879	22352
841.016	22432
841.153	22451
841.29	22527
841.427	22459
841.564	22573
841.701	22569
841.838	22440
841.975	22325
842.112	22519
842.249	22367
842.385	22261
842.522	22596
842.659	22451
842.796	22230
842.933	22261
843.069	22257
843.206	22238
843.343	22242
843.479	22261
843.616	22310
843.752	22048
843.889	22063
844.025	22116
844.162	22070
844.298	22093
844.435	21998
844.571	22002
844.708	22029
844.844	22207
844.98	22249
845.117	22177
845.253	22013
845.389	21911
845.525	21854
845.661	21960
845.798	21926
845.934	21793
846.07	21759
846.206	21732
846.342	21899
846.478	21789
846.614	21720
846.75	21496
846.886	21408
847.022	21561
847.158	21519
847.294	21545
847.429	21477
847.565	21416
847.701	21641
847.837	21340
847.972	21260
848.108	21397
848.244	21424
848.379	21199
848.515	21154
848.65	21051
848.786	21127
848.921	21192
849.057	21249
849.192	21173
849.328	21146
849.463	21077
849.598	21127
849.734	21085
849.869	21032
850.004	20914
850.14	20853
850.275	20796
850.41	20891
850.545	21001
850.68	20948
850.815	20849
850.95	20857
851.085	21146
851.22	20937
851.355	20864
851.49	20845
851.625	20925
851.76	20762
851.895	20739
852.03	20868
852.165	20933
852.299	20849
852.434	21020
852.569	20864
852.703	20895
852.838	20982
852.973	21020
853.107	20883
853.242	20826
853.376	20838
853.511	20667
853.645	20629
853.78	20918
853.914	20781
854.048	20689
854.183	20594
854.317	20758
854.451	20910
854.585	20678
854.72	20785
854.854	20762
854.988	20674
855.122	20773
855.256	20708
855.39	20629
855.524	20815
855.658	20815
855.792	20724
855.926	20682
856.06	20762
856.194	20834
856.327	20720
856.461	20590
856.595	20590
856.729	20682
856.862	20781
856.996	20826
857.13	20819
857.263	20849
857.397	20743
857.53	20811
857.664	20743
857.797	20735
857.931	20720
858.064	20777
858.197	20830
858.331	20686
858.464	20625
858.597	20625
858.731	20682
858.864	20663
858.997	20697
859.13	20708
859.263	20724
859.396	20739
859.529	20727
859.662	20678
859.795	20648
859.928	20617
860.061	20857
860.194	20834
860.327	20857
860.46	20644
860.592	20769
860.725	20796
860.858	20834
860.99	20674
861.123	20724
861.256	20712
861.388	20674
861.521	21218
861.653	20693
861.786	20454
861.918	20571
862.05	20648
862.183	20644
862.315	20613
862.447	20674
862.58	20609
862.712	20442
862.844	20385
862.976	20560
863.108	20488
863.24	20864
863.372	20389
863.504	20385
863.636	20545
863.768	20537
863.9	20454
864.032	20385
864.164	20374
864.296	20408
864.428	20473
864.559	20530
864.691	20454
864.823	20503
864.954	20434
865.086	20431
865.217	20225
865.349	20240
865.48	20309
865.612	20191
865.743	20438
865.875	20351
866.006	20237
866.137	20370
866.269	20244
866.4	20313
866.531	20309
866.662	20240
866.793	20248
866.924	20218
867.055	20290
867.186	20157
867.317	20176
867.448	20142
867.579	20149
867.71	20164
867.841	20081
867.972	20282
868.103	20305
868.233	20256
868.364	20263
868.495	20351
868.625	20423
868.756	20602
868.886	20511
869.017	20423
869.147	20594
869.278	20526
869.408	20587
869.539	20423
869.669	20697
869.799	20560
869.929	20682
870.06	20590
870.19	20758
870.32	20819
870.45	20925
870.58	20792
870.71	20971
870.84	21028
870.97	20887
871.1	20952
871.23	21211
871.36	21146
871.489	21020
871.619	21085
871.749	20975
871.879	21028
872.008	21214
872.138	21051
872.267	21222
872.397	21055
872.526	20872
872.656	20864
872.785	21009
872.915	21108
873.044	21268
873.173	21180
873.303	21211
873.432	21237
873.561	21279
873.69	21180
873.819	21127
873.948	21104
874.077	21195
874.206	21043
874.335	21199
874.464	21241
874.593	21481
874.722	21306
874.851	21504
874.979	21443
875.108	21481
875.237	21401
875.365	21302
875.494	21439
875.623	21435
875.751	21370
875.88	21355
876.008	21511
876.136	21648
876.265	21857
876.393	21911
876.521	21876
876.65	21831
876.778	21804
876.906	21717
877.034	21694
877.162	21778
877.29	21713
877.418	21690
877.546	21774
877.674	21766
877.802	21682
877.93	21701
878.058	21789
878.185	21641
878.313	21618
878.441	21663
878.568	21641
878.696	21637
878.824	21854
878.951	21827
879.079	21941
879.206	21922
879.333	21880
879.461	21804
879.588	21880
879.715	21812
879.842	21956
879.97	21747
880.097	21561
880.224	21485
880.351	21454
880.478	21545
880.605	21416
880.732	21530
880.859	21747
880.986	21553
881.112	21614
881.239	21526
881.366	21416
881.493	21150
881.619	21062
881.746	21165
881.872	21161
881.999	21081
882.125	21005
882.252	21199
882.378	21085
882.505	21252
882.631	20876
882.757	20906
882.883	20967
883.01	20849
883.136	20731
883.262	20746
883.388	20651
883.514	20701
883.64	20853
883.766	20830
883.892	20758
884.018	20602
884.143	20872
884.269	20830
884.395	20644
884.52	20476
884.646	20533
884.772	20393
884.897	20412
885.023	20541
885.148	20590
885.274	20644
885.399	20598
885.524	20427
885.65	20480
885.775	20575
885.9	20518
886.025	20415
886.15	20575
886.275	20473
886.4	20286
886.525	20480
886.65	20427
886.775	20351
886.9	20575
887.025	20712
887.149	20549
887.274	20328
887.399	20183
887.523	20355
887.648	20187
887.773	20172
887.897	20328
888.021	20286
888.146	20286
888.27	20317
888.395	20282
888.519	20286
888.643	20187
888.767	20317
888.891	20221
889.015	20020
889.139	20240
889.263	20058
889.387	20221
889.511	20187
889.635	20187
889.759	20096
889.883	20005
890.006	20073
890.13	20172
890.254	20027
890.377	19974
890.501	19734
890.624	19776
890.748	19830
890.871	19830
890.995	19590
891.118	19647
891.241	19662
891.364	19658
891.488	19807
891.611	19719
891.734	19613
891.857	19712
891.98	19651
892.103	19708
892.226	19746
892.349	19613
892.471	19346
892.594	19559
892.717	19571
892.839	19540
892.962	19559
893.085	19624
893.207	19655
893.33	19483
893.452	19491
893.575	19655
893.697	19571
893.819	19651
893.941	19902
894.064	19601
894.186	19594
894.308	19415
894.43	19586
894.552	19727
894.674	19609
894.796	19487
894.918	19514
895.04	19544
895.161	19575
895.283	19670
895.405	19548
895.526	19403
895.648	19582
895.769	19529
895.891	19491
896.012	19578
896.134	19727
896.255	19605
896.376	19624
896.498	19601
896.619	19670
896.74	19521
896.861	19658
896.982	19932
897.103	20031
897.224	19788
897.345	19734
897.466	19811
897.587	19772
897.708	20005
897.828	19833
897.949	19632
898.07	19639
898.19	19845
898.311	19769
898.431	19761
898.552	19925
898.672	19894
898.792	19856
898.913	19837
899.033	19647
899.153	19605
899.273	19521
899.393	19578
899.513	19563
899.633	19540
899.753	19594
899.873	19476
899.993	19571
900.113	19502
900.232	19563
900.352	19518
900.472	19411
900.591	19381
900.711	19388
900.83	19407
900.95	19407
901.069	19460
901.189	19304
901.308	19023
901.427	18943
901.546	19023
901.665	18954
901.784	18947
901.904	18859
902.023	18745
902.141	18574
902.26	18555
902.379	18525
902.498	18437
902.617	18414
902.735	18525
902.854	18414
902.973	18365
903.091	18038
903.21	18163
903.328	18152
903.446	18091
903.565	17923
903.683	17939
903.801	17783
903.919	17927
904.038	17851
904.156	17756
904.274	17828
904.392	17710
904.51	17661
904.627	17630
904.745	17703
904.863	17832
904.981	17501
905.098	17387
905.216	17425
905.334	17433
905.451	17467
905.569	17364
905.686	17547
905.803	17398
905.921	17239
906.038	17280
906.155	17197
906.272	17071
906.389	17022
906.506	16873
906.623	16957
906.74	16976
906.857	16820
906.974	16869
907.091	17098
907.208	17060
907.324	16885
907.441	16831
907.557	16656
907.674	16660
907.79	16546
907.907	16611
908.023	16668
908.139	16561
908.256	16618
908.372	16531
908.488	16516
908.604	16481
908.72	16306
908.836	16291
908.952	16386
909.068	16360
909.184	16538
909.3	16196
909.415	16333
909.531	16432
909.647	16112
909.762	16200
909.878	16147
909.993	16063
910.108	16124
910.224	16082
910.339	16101
910.454	15918
910.57	15831
910.685	15827
910.8	16223
910.915	16067
911.03	15857
911.145	15743
911.259	15603
911.374	15679
911.489	15679
911.604	15545
911.718	15435
911.833	15420
911.947	15344
912.062	15397
912.176	15549
912.291	15435
912.405	15500
912.519	15724
912.633	15625
912.748	15519
912.862	15329
912.976	15241
913.09	15203
913.204	15252
913.318	15294
913.431	15389
913.545	15340
913.659	15378
913.772	15188
913.886	15077
914	15119
914.113	15097
914.226	15176
914.34	15097
914.453	15070
914.566	15138
914.68	14990
914.793	14861
914.906	14743
915.019	14727
915.132	14648
915.245	14785
915.358	14750
915.47	14746
915.583	14674
915.696	14716
915.809	14785
915.921	14868
916.034	14568
916.146	14552
916.259	14625
916.371	14686
916.483	14667
916.595	14438
916.708	14530
916.82	14545
916.932	14492
917.044	14514
917.156	14480
917.268	14336
917.38	14267
917.491	14347
917.603	14374
917.715	14393
917.826	14457
917.938	14267
918.049	14168
918.161	14259
918.272	14347
918.384	14457
918.495	14271
918.606	14172
918.717	13959
918.828	14183
918.939	14138
919.05	14046
919.161	14035
919.272	13879
919.383	14058
919.494	14119
919.604	14317
919.715	14199
919.826	14020
919.936	14111
920.047	14126
920.157	14145
920.267	14324
920.378	13993
920.488	14081
920.598	14157
920.708	14377
920.818	14237
920.928	14206
921.038	14393
921.148	14336
921.258	13978
921.368	14043
921.477	13822
921.587	13887
921.697	13696
921.806	13814
921.916	13693
922.025	13540
922.134	13514
922.244	13480
922.353	13563
922.462	13396
922.571	13247
922.68	13217
922.789	13190
922.898	13183
923.007	13031
923.116	13152
923.224	13164
923.333	13149
923.442	13023
923.55	12939
923.659	12981
923.767	13015
923.876	12905
923.984	12981
924.092	12897
924.201	12935
924.309	12913
924.417	12833
924.525	12791
924.633	12817
924.741	13757
924.849	12604
924.956	12772
925.064	12551
925.172	12464
925.279	12547
925.387	12578
925.494	12544
925.602	12608
925.709	12585
925.816	12513
925.924	12536
926.031	12635
926.138	12570
926.245	12544
926.352	12399
926.459	12540
926.566	12570
926.673	12540
926.779	12369
926.886	12319
926.993	12251
927.099	12235
927.206	12148
927.312	12076
927.419	12095
927.525	12053
927.631	12102
927.737	11946
927.843	11931
927.95	11851
928.056	11980
928.162	11988
928.267	12060
928.373	12623
928.479	12026
928.585	11832
928.69	11942
928.796	11996
928.901	11821
929.007	11771
929.112	11889
929.218	11874
929.323	11745
929.428	11638
929.533	11878
929.638	11638
929.743	11703
929.848	11737
929.953	11558
930.058	11615
930.163	11376
930.267	11414
930.372	11566
930.477	11383
930.581	11630
930.685	11425
930.79	11337
930.894	11322
930.998	11258
931.103	11364
931.207	11094
931.311	11003
931.415	10850
931.519	10687
931.623	10630
