Data from test_V78500241_1371.txt Node
Date: Fri Mar 25 15:19:24 CST 2022
User: usil
Spectrometer: V785-0024
Trigger mode: 0
Integration Time (sec): 4.000000E-1
Scans to average: 1
Nonlinearity correction enabled: false
Boxcar width: 0
Storing dark spectrum: false
XAxis mode: Wavelengths
Number of Pixels in Spectrum: 1024
>>>>>Begin Spectral Data<<<<<
801.071	28124
801.214	27991
801.356	27907
801.499	27793
801.641	27671
801.783	27538
801.926	27644
802.068	27576
802.211	27504
802.353	27618
802.496	27374
802.638	27393
802.78	27157
802.923	27226
803.065	27093
803.208	27268
803.35	27203
803.492	27367
803.635	27507
803.777	27313
803.919	27332
804.061	27804
804.204	27507
804.346	27485
804.488	27378
804.63	27534
804.773	27370
804.915	27469
805.057	27477
805.199	27507
805.341	27736
805.483	27660
805.626	27610
805.768	27500
805.91	27759
806.052	27713
806.194	27549
806.336	27808
806.478	27694
806.62	27690
806.762	27895
806.904	27914
807.046	28246
807.188	28032
807.33	28021
807.472	28246
807.614	28040
807.756	28162
807.898	27914
808.04	27831
808.182	28067
808.324	28051
808.465	28002
808.607	28181
808.749	28204
808.891	28352
809.033	28424
809.174	28337
809.316	28337
809.458	28257
809.6	28303
809.741	28367
809.883	28432
810.025	28592
810.166	28519
810.308	28710
810.45	28531
810.591	28485
810.733	28481
810.875	28451
811.016	28177
811.158	28188
811.299	28390
811.441	28401
811.582	28466
811.724	28455
811.865	28344
812.007	28360
812.148	28363
812.29	28325
812.431	28542
812.573	28721
812.714	28767
812.855	28763
812.997	28873
813.138	28854
813.279	28991
813.421	28915
813.562	28854
813.703	28649
813.845	28679
813.986	28371
814.127	28177
814.268	28128
814.41	27998
814.551	28048
814.692	28090
814.833	27934
814.974	28010
815.115	28013
815.256	27854
815.397	27907
815.539	27914
815.68	27808
815.821	27793
815.962	27945
816.103	27759
816.244	27637
816.385	27618
816.526	27549
816.666	27447
816.807	27218
816.948	27374
817.089	27447
817.23	27321
817.371	27340
817.512	27424
817.653	27313
817.793	27180
817.934	27355
818.075	27336
818.216	27233
818.356	27291
818.497	27093
818.638	27195
818.778	27100
818.919	26937
819.06	27096
819.2	27211
819.341	27351
819.481	27321
819.622	27424
819.762	27770
819.903	27595
820.043	27580
820.184	27435
820.324	27374
820.465	27504
820.605	27466
820.746	27481
820.886	27351
821.026	27447
821.167	27264
821.307	27310
821.447	27294
821.588	27317
821.728	27180
821.868	26811
822.008	26724
822.149	26735
822.289	26758
822.429	26541
822.569	26518
822.709	26389
822.849	26385
822.99	26153
823.13	26096
823.27	26149
823.41	26020
823.55	26001
823.69	26202
823.83	26122
823.97	26024
824.11	25928
824.25	25803
824.389	25887
824.529	25894
824.669	25993
824.809	26001
824.949	26195
825.089	26157
825.228	26012
825.368	25795
825.508	25852
825.648	25890
825.787	25917
825.927	25925
826.067	25772
826.206	25898
826.346	25860
826.485	25662
826.625	25795
826.765	25830
826.904	25860
827.044	25616
827.183	25567
827.323	25525
827.462	25635
827.601	25502
827.741	25670
827.88	25616
828.02	25441
828.159	25510
828.298	25521
828.437	25696
828.577	25563
828.716	25552
828.855	25396
828.994	25335
829.134	25308
829.273	25225
829.412	25213
829.551	25240
829.69	25194
829.829	25175
829.968	25160
830.107	25365
830.246	25324
830.385	25285
830.524	25110
830.663	25095
830.802	24916
830.941	24814
831.08	24688
831.219	24985
831.357	25061
831.496	25152
831.635	24875
831.774	24837
831.913	24688
832.051	24688
832.19	24814
832.329	24738
832.467	24536
832.606	24585
832.744	24528
832.883	24494
833.022	24521
833.16	24486
833.299	24715
833.437	24585
833.576	24597
833.714	24650
833.852	24616
833.991	24696
834.129	24734
834.267	24665
834.406	24540
834.544	24665
834.682	24681
834.821	24494
834.959	24726
835.097	24551
835.235	24734
835.373	24544
835.511	24574
835.65	24448
835.788	24456
835.926	24372
836.064	24372
836.202	24235
836.34	24517
836.478	24483
836.615	24365
836.753	24334
836.891	24555
837.029	24498
837.167	24509
837.305	24258
837.443	24266
837.58	24319
837.718	24338
837.856	24327
837.993	24171
838.131	24270
838.269	24194
838.406	24197
838.544	24159
838.681	23889
838.819	23882
838.956	23771
839.094	23745
839.231	23904
839.369	24041
839.506	24110
839.643	24022
839.781	23859
839.918	23638
840.055	23668
840.193	23676
840.33	23684
840.467	23680
840.604	23718
840.742	23958
840.879	23676
841.016	23668
841.153	23531
841.29	23745
841.427	23573
841.564	23653
841.701	23619
841.838	23501
841.975	23516
842.112	23509
842.249	23414
842.385	23368
842.522	23608
842.659	23497
842.796	23490
842.933	23353
843.069	23448
843.206	23364
843.343	23444
843.479	23383
843.616	23471
843.752	23197
843.889	23242
844.025	23280
844.162	23223
844.298	23277
844.435	23193
844.571	23197
844.708	23208
844.844	23280
844.98	23341
845.117	23330
845.253	23159
845.389	22923
845.525	23136
845.661	23052
845.798	22934
845.934	22953
846.07	22854
846.206	22873
846.342	23140
846.478	22885
846.614	22744
846.75	22694
846.886	22538
847.022	22641
847.158	22702
847.294	22664
847.429	22622
847.565	22599
847.701	22877
847.837	22428
847.972	22386
848.108	22516
848.244	22341
848.379	22185
848.515	22154
848.65	22135
848.786	22226
848.921	22223
849.057	22398
849.192	22409
849.328	22291
849.463	22196
849.598	22192
849.734	22150
849.869	22074
850.004	22032
850.14	21987
850.275	22051
850.41	21937
850.545	21972
850.68	21956
850.815	21987
850.95	21983
851.085	22169
851.22	22017
851.355	21994
851.49	22017
851.625	21865
851.76	21937
851.895	21930
852.03	21945
852.165	21983
852.299	21899
852.434	22040
852.569	21968
852.703	22128
852.838	22086
852.973	22150
853.107	22211
853.242	21991
853.376	21884
853.511	21553
853.645	21785
853.78	21930
853.914	21789
854.048	21800
854.183	21884
854.317	21857
854.451	22021
854.585	21800
854.72	21770
854.854	21770
854.988	21625
855.122	21793
855.256	21629
855.39	21865
855.524	21804
855.658	21766
855.792	21922
855.926	21876
856.06	21789
856.194	21778
856.327	21739
856.461	21755
856.595	21606
856.729	21720
856.862	21937
856.996	21816
857.13	21884
857.263	21964
857.397	21888
857.53	21770
857.664	21831
857.797	21899
857.931	21827
858.064	21800
858.197	21884
858.331	21808
858.464	21610
858.597	21629
858.731	21701
858.864	21759
858.997	21770
859.13	21789
859.263	21793
859.396	21755
859.529	21800
859.662	21724
859.795	21713
859.928	21747
860.061	21835
860.194	21937
860.327	21838
860.46	21926
860.592	21937
860.725	21998
860.858	21949
860.99	21774
861.123	21690
861.256	21732
861.388	21743
861.521	22287
861.653	21641
861.786	21637
861.918	21660
862.05	21599
862.183	21766
862.315	21880
862.447	21644
862.58	21576
862.712	21511
862.844	21458
862.976	21591
863.108	21610
863.24	21819
863.372	21580
863.504	21473
863.636	21538
863.768	21561
863.9	21374
864.032	21386
864.164	21454
864.296	21488
864.428	21542
864.559	21534
864.691	21614
864.823	21466
864.954	21492
865.086	21561
865.217	21393
865.349	21237
865.48	21363
865.612	21359
865.743	21561
865.875	21363
866.006	21401
866.137	21454
866.269	21325
866.4	21443
866.531	21416
866.662	21233
866.793	21340
866.924	21492
867.055	21428
867.186	21363
867.317	21268
867.448	21173
867.579	21291
867.71	21176
867.841	21260
867.972	21245
868.103	21287
868.233	21321
868.364	21298
868.495	21374
868.625	21648
868.756	21633
868.886	21572
869.017	21625
869.147	21644
869.278	21724
869.408	21454
869.539	21507
869.669	21595
869.799	21561
869.929	21736
870.06	21606
870.19	21899
870.32	21918
870.45	21793
870.58	21934
870.71	22067
870.84	22044
870.97	21991
871.1	22051
871.23	22150
871.36	22207
871.489	22044
871.619	22010
871.749	22143
871.879	22147
872.008	22325
872.138	22093
872.267	22109
872.397	22002
872.526	22013
872.656	21930
872.785	22013
872.915	22242
873.044	22162
873.173	22154
873.303	22226
873.432	22211
873.561	22272
873.69	22211
873.819	22131
873.948	22253
874.077	22185
874.206	22162
874.335	22177
874.464	22341
874.593	22417
874.722	22390
874.851	22405
874.979	22421
875.108	22424
875.237	22356
875.365	22424
875.494	22375
875.623	22329
875.751	22322
875.88	22459
876.008	22474
876.136	22641
876.265	22843
876.393	22892
876.521	22786
876.65	22858
876.778	22801
876.906	22729
877.034	22744
877.162	22831
877.29	22710
877.418	22706
877.546	22729
877.674	22847
877.802	22607
877.93	22702
878.058	22713
878.185	22691
878.313	22653
878.441	22725
878.568	22592
878.696	22672
878.824	22786
878.951	22911
879.079	22953
879.206	23010
879.333	22847
879.461	22831
879.588	22801
879.715	22843
879.842	23079
879.97	22733
880.097	22592
880.224	22557
880.351	22565
880.478	22531
880.605	22478
880.732	22546
880.859	22820
880.986	22649
881.112	22607
881.239	22459
881.366	22322
881.493	22166
881.619	22112
881.746	22120
881.872	22120
881.999	22181
882.125	21972
882.252	22196
882.378	22048
882.505	22333
882.631	22093
882.757	21804
882.883	22006
883.01	21819
883.136	21827
883.262	21739
883.388	21644
883.514	21842
883.64	21743
883.766	21717
883.892	21557
884.018	21625
884.143	21762
884.269	21778
884.395	21416
884.52	21424
884.646	21340
884.772	21382
884.897	21283
885.023	21526
885.148	21637
885.274	21564
885.399	21644
885.524	21374
885.65	21477
885.775	21420
885.9	21397
886.025	21515
886.15	21435
886.275	21283
886.4	21298
886.525	21416
886.65	21279
886.775	21291
886.9	21542
887.025	21739
887.149	21317
887.274	21264
887.399	21195
887.523	21249
887.648	21188
887.773	21154
887.897	21317
888.021	21237
888.146	21222
888.27	21279
888.395	21291
888.519	21237
888.643	21237
888.767	21199
888.891	21081
889.015	21024
889.139	21142
889.263	21077
889.387	21093
889.511	21199
889.635	21055
889.759	21028
889.883	20975
890.006	20967
890.13	21058
890.254	21005
890.377	20944
890.501	20670
890.624	20712
890.748	20857
890.871	20655
890.995	20511
891.118	20431
891.241	20571
891.364	20655
891.488	20594
891.611	20590
891.734	20594
891.857	20625
891.98	20560
892.103	20606
892.226	20575
892.349	20457
892.471	20343
892.594	20571
892.717	20484
892.839	20358
892.962	20476
893.085	20480
893.207	20374
893.33	20423
893.452	20332
893.575	20499
893.697	20484
893.819	20579
893.941	20621
894.064	20621
894.186	20522
894.308	20385
894.43	20594
894.552	20571
894.674	20461
894.796	20199
894.918	20488
895.04	20381
895.161	20469
895.283	20457
895.405	20355
895.526	20457
895.648	20461
895.769	20499
895.891	20408
896.012	20530
896.134	20492
896.255	20393
896.376	20454
896.498	20457
896.619	20408
896.74	20499
896.861	20507
896.982	20819
897.103	20842
897.224	20640
897.345	20663
897.466	20514
897.587	20670
897.708	20754
897.828	20804
897.949	20693
898.07	20438
898.19	20678
898.311	20727
898.431	20746
898.552	20705
898.672	20686
898.792	20781
898.913	20648
899.033	20560
899.153	20492
899.273	20389
899.393	20381
899.513	20423
899.633	20309
899.753	20476
899.873	20187
899.993	20301
900.113	20343
900.232	20377
900.352	20195
900.472	20351
900.591	20145
900.711	20145
900.83	20103
900.95	20210
901.069	20176
901.189	20103
901.308	19731
901.427	19738
901.546	19750
901.665	19674
901.784	19750
901.904	19540
902.023	19518
902.141	19384
902.26	19304
902.379	19373
902.498	19228
902.617	19194
902.735	19304
902.854	19255
902.973	19164
903.091	18958
903.21	18916
903.328	19004
903.446	18791
903.565	18757
903.683	18738
903.801	18696
903.919	18730
904.038	18616
904.156	18566
904.274	18540
904.392	18475
904.51	18410
904.627	18570
904.745	18585
904.863	18669
904.981	18235
905.098	18251
905.216	18171
905.334	18216
905.451	18220
905.569	18072
905.686	18304
905.803	18053
905.921	18019
906.038	17980
906.155	18034
906.272	17897
906.389	17901
906.506	17726
906.623	17764
906.74	17764
906.857	17539
906.974	17524
907.091	17748
907.208	17726
907.324	17707
907.441	17566
907.557	17509
907.674	17379
907.79	17421
907.907	17360
908.023	17353
908.139	17520
908.256	17372
908.372	17387
908.488	17288
908.604	17109
908.72	17025
908.836	17128
908.952	17098
909.068	17121
909.184	17303
909.3	17022
909.415	17155
909.531	16984
909.647	16892
909.762	16972
909.878	16759
909.993	16710
910.108	16729
910.224	16786
910.339	16850
910.454	16679
910.57	16752
910.685	16584
910.8	16839
910.915	16828
911.03	16607
911.145	16421
911.259	16440
911.374	16390
911.489	16382
911.604	16322
911.718	16150
911.833	16173
911.947	16082
912.062	15964
912.176	16166
912.291	16120
912.405	16128
912.519	16333
912.633	16325
912.748	16063
912.862	16120
912.976	15915
913.09	15865
913.204	15960
913.318	15945
913.431	16097
913.545	16002
913.659	16162
913.772	15991
913.886	15831
914	15660
914.113	15968
914.226	15968
914.34	15842
914.453	15705
914.566	15831
914.68	15591
914.793	15584
914.906	15428
915.019	15298
915.132	15283
915.245	15389
915.358	15393
915.47	15340
915.583	15329
915.696	15458
915.809	15584
915.921	15424
916.034	15355
916.146	15298
916.259	15214
916.371	15340
916.483	15306
916.595	15222
916.708	15233
916.82	15218
916.932	15207
917.044	15119
917.156	15116
917.268	14963
917.38	14986
917.491	15097
917.603	14982
917.715	15097
917.826	15039
917.938	14944
918.049	14864
918.161	14971
918.272	15074
918.384	15142
918.495	14891
918.606	14796
918.717	14682
918.828	14823
918.939	14834
919.05	14708
919.161	14838
919.272	14511
919.383	14594
919.494	14807
919.604	14952
919.715	14716
919.826	14663
919.936	14731
920.047	14880
920.157	14762
920.267	14853
920.378	14811
920.488	14739
920.598	14963
920.708	14933
920.818	14826
920.928	14792
921.038	14941
921.148	15017
921.258	14701
921.368	14636
921.477	14450
921.587	14415
921.697	14275
921.806	14423
921.916	14248
922.025	14176
922.134	14100
922.244	14054
922.353	14134
922.462	14020
922.571	13868
922.68	13791
922.789	13700
922.898	13700
923.007	13613
923.116	13769
923.224	13723
923.333	13826
923.442	13586
923.55	13544
923.659	13624
923.767	13658
923.876	13613
923.984	13651
924.092	13396
924.201	13559
924.309	13457
924.417	13487
924.525	13510
924.633	13384
924.741	14138
924.849	13202
924.956	13285
925.064	13232
925.172	13076
925.279	13179
925.387	13232
925.494	13099
925.602	13316
925.709	13152
925.816	13023
925.924	13107
926.031	13232
926.138	13065
926.245	13145
926.352	12993
926.459	13084
926.566	13202
926.673	12973
926.779	12829
926.886	12890
926.993	12734
927.099	12673
927.206	12620
927.312	12616
927.419	12734
927.525	12589
927.631	12639
927.737	12639
927.843	12391
927.95	12483
928.056	12589
928.162	12551
928.267	12570
928.373	13122
928.479	12631
928.585	12369
928.69	12410
928.796	12471
928.901	12395
929.007	12216
929.112	12323
929.218	12315
929.323	12232
929.428	12201
929.533	12399
929.638	12110
929.743	12209
929.848	12194
929.953	12125
930.058	12045
930.163	11942
930.267	11863
930.372	12133
930.477	11863
930.581	12083
930.685	11980
930.79	11813
930.894	11912
930.998	11832
931.103	11878
931.207	11528
931.311	11425
931.415	11414
931.519	11178
931.623	11113
