Data from test_V78500241_1305.txt Node
Date: Fri Mar 25 15:18:56 CST 2022
User: usil
Spectrometer: V785-0024
Trigger mode: 0
Integration Time (sec): 4.000000E-1
Scans to average: 1
Nonlinearity correction enabled: false
Boxcar width: 0
Storing dark spectrum: false
XAxis mode: Wavelengths
Number of Pixels in Spectrum: 1024
>>>>>Begin Spectral Data<<<<<
801.071	28006
801.214	27880
801.356	27778
801.499	27553
801.641	27564
801.783	27591
801.926	27545
802.068	27405
802.211	27420
802.353	27454
802.496	27154
802.638	27203
802.78	27226
802.923	27066
803.065	27047
803.208	27112
803.35	27127
803.492	27214
803.635	27389
803.777	27226
803.919	27317
804.061	27618
804.204	27374
804.346	27386
804.488	27226
804.63	27237
804.773	27268
804.915	27325
805.057	27386
805.199	27294
805.341	27477
805.483	27485
805.626	27374
805.768	27332
805.91	27454
806.052	27523
806.194	27348
806.336	27595
806.478	27511
806.62	27500
806.762	27431
806.904	27835
807.046	28067
807.188	27964
807.33	27816
807.472	27857
807.614	27759
807.756	27907
807.898	27899
808.04	27709
808.182	27686
808.324	27667
808.465	27751
808.607	28055
808.749	28246
808.891	28185
809.033	28280
809.174	28150
809.316	28051
809.458	28185
809.6	28067
809.741	28242
809.883	28417
810.025	28535
810.166	28546
810.308	28375
810.45	28268
810.591	28390
810.733	28261
810.875	28131
811.016	28025
811.158	27903
811.299	28265
811.441	28306
811.582	28219
811.724	28185
811.865	28196
812.007	27968
812.148	28082
812.29	28196
812.431	28348
812.573	28538
812.714	28580
812.855	28641
812.997	28717
813.138	28965
813.279	28630
813.421	28653
813.562	28561
813.703	28584
813.845	28382
813.986	28158
814.127	28013
814.268	27861
814.41	27774
814.551	27724
814.692	27850
814.833	27880
814.974	27694
815.115	27816
815.256	27572
815.397	27690
815.539	27713
815.68	27591
815.821	27614
815.962	27686
816.103	27618
816.244	27405
816.385	27549
816.526	27336
816.666	27367
816.807	27264
816.948	27275
817.089	27294
817.23	27154
817.371	27116
817.512	27051
817.653	27180
817.793	27020
817.934	27062
818.075	27214
818.216	27089
818.356	27055
818.497	26960
818.638	26845
818.778	27062
818.919	26918
819.06	27017
819.2	27005
819.341	27127
819.481	27142
819.622	27386
819.762	27294
819.903	27351
820.043	27332
820.184	27207
820.324	27195
820.465	27226
820.605	27222
820.746	27287
820.886	27214
821.026	27188
821.167	27218
821.307	27275
821.447	27135
821.588	26948
821.728	26937
821.868	26796
822.008	26571
822.149	26594
822.289	26667
822.429	26317
822.569	26301
822.709	26252
822.849	26256
822.99	26107
823.13	26157
823.27	26005
823.41	25902
823.55	25860
823.69	25966
823.83	25791
823.97	25856
824.11	25860
824.25	25632
824.389	25795
824.529	25864
824.669	25795
824.809	25887
824.949	25868
825.089	25868
825.228	25784
825.368	25624
825.508	25689
825.648	25559
825.787	25696
825.927	25738
826.067	25586
826.206	25582
826.346	25674
826.485	25708
826.625	25632
826.765	25723
826.904	25700
827.044	25343
827.183	25384
827.323	25335
827.462	25438
827.601	25316
827.741	25308
827.88	25365
828.02	25289
828.159	25377
828.298	25388
828.437	25373
828.577	25148
828.716	25468
828.855	25244
828.994	25084
829.134	24932
829.273	25225
829.412	25038
829.551	25103
829.69	25080
829.829	25141
829.968	25190
830.107	25107
830.246	25027
830.385	24802
830.524	24913
830.663	24738
830.802	24791
830.941	24760
831.08	24555
831.219	24738
831.357	24814
831.496	24935
831.635	24734
831.774	24650
831.913	24589
832.051	24448
832.19	24353
832.329	24467
832.467	24479
832.606	24410
832.744	24346
832.883	24330
833.022	24346
833.16	24319
833.299	24479
833.437	24452
833.576	24460
833.714	24388
833.852	24441
833.991	24448
834.129	24502
834.267	24509
834.406	24467
834.544	24467
834.682	24407
834.821	24467
834.959	24654
835.097	24334
835.235	24437
835.373	24369
835.511	24388
835.65	24353
835.788	24228
835.926	24186
836.064	23996
836.202	24015
836.34	24258
836.478	24296
836.615	24072
836.753	24262
836.891	24216
837.029	24330
837.167	24159
837.305	24117
837.443	24095
837.58	24079
837.718	24117
837.856	23988
837.993	24083
838.131	24182
838.269	24076
838.406	23988
838.544	23942
838.681	23764
838.819	23748
838.956	23539
839.094	23642
839.231	23741
839.369	23760
839.506	24045
839.643	23691
839.781	23585
839.918	23524
840.055	23490
840.193	23444
840.33	23589
840.467	23429
840.604	23463
840.742	23775
840.879	23482
841.016	23387
841.153	23379
841.29	23566
841.427	23440
841.564	23398
841.701	23467
841.838	23414
841.975	23364
842.112	23463
842.249	23398
842.385	23162
842.522	23482
842.659	23417
842.796	23064
842.933	23242
843.069	23094
843.206	23174
843.343	23303
843.479	23292
843.616	23303
843.752	23052
843.889	22949
844.025	23246
844.162	22953
844.298	23117
844.435	22953
844.571	23003
844.708	23056
844.844	23174
844.98	23151
845.117	23098
845.253	22885
845.389	22824
845.525	22873
845.661	22809
845.798	22740
845.934	22778
846.07	22679
846.206	22721
846.342	22733
846.478	22668
846.614	22634
846.75	22432
846.886	22394
847.022	22489
847.158	22424
847.294	22421
847.429	22459
847.565	22379
847.701	22691
847.837	22280
847.972	22246
848.108	22249
848.244	22188
848.379	22143
848.515	22131
848.65	22086
848.786	22124
848.921	22010
849.057	22242
849.192	22196
849.328	22044
849.463	21960
849.598	22002
849.734	21964
849.869	21953
850.004	21644
850.14	21747
850.275	21755
850.41	21705
850.545	21842
850.68	21762
850.815	21876
850.95	21766
851.085	21937
851.22	21869
851.355	21861
851.49	21876
851.625	21831
851.76	21717
851.895	21606
852.03	21606
852.165	21800
852.299	21899
852.434	21918
852.569	21934
852.703	21808
852.838	21922
852.973	21861
853.107	21964
853.242	21724
853.376	21629
853.511	21587
853.645	21675
853.78	21713
853.914	21663
854.048	21549
854.183	21610
854.317	21675
854.451	21705
854.585	21660
854.72	21724
854.854	21720
854.988	21523
855.122	21808
855.256	21488
855.39	21614
855.524	21736
855.658	21622
855.792	21682
855.926	21610
856.06	21614
856.194	21835
856.327	21622
856.461	21660
856.595	21492
856.729	21523
856.862	21880
856.996	21671
857.13	21747
857.263	21743
857.397	21800
857.53	21717
857.664	21633
857.797	21816
857.931	21709
858.064	21724
858.197	21812
858.331	21671
858.464	21644
858.597	21568
858.731	21641
858.864	21564
858.997	21561
859.13	21648
859.263	21599
859.396	21747
859.529	21553
859.662	21545
859.795	21523
859.928	21793
860.061	21701
860.194	21941
860.327	21778
860.46	21679
860.592	21690
860.725	21800
860.858	21720
860.99	21545
861.123	21618
861.256	21564
861.388	21576
861.521	22325
861.653	21496
861.786	21374
861.918	21538
862.05	21542
862.183	21523
862.315	21568
862.447	21576
862.58	21568
862.712	21252
862.844	21321
862.976	21420
863.108	21477
863.24	21766
863.372	21302
863.504	21370
863.636	21241
863.768	21386
863.9	21348
864.032	21313
864.164	21294
864.296	21477
864.428	21363
864.559	21488
864.691	21310
864.823	21458
864.954	21332
865.086	21306
865.217	21317
865.349	21218
865.48	21214
865.612	21332
865.743	21344
865.875	21283
866.006	21237
866.137	21279
866.269	21329
866.4	21214
866.531	21173
866.662	21138
866.793	21138
866.924	21142
867.055	21233
867.186	21131
867.317	21043
867.448	21135
867.579	21154
867.71	21112
867.841	21055
867.972	21093
868.103	21135
868.233	21203
868.364	21180
868.495	21268
868.625	21313
868.756	21534
868.886	21348
869.017	21374
869.147	21576
869.278	21389
869.408	21374
869.539	21378
869.669	21599
869.799	21408
869.929	21564
870.06	21500
870.19	21736
870.32	21781
870.45	21838
870.58	21751
870.71	21873
870.84	22044
870.97	21755
871.1	21827
871.23	21865
871.36	21960
871.489	21846
871.619	22013
871.749	22002
871.879	21983
872.008	22051
872.138	21994
872.267	22048
872.397	21918
872.526	21869
872.656	21918
872.785	21774
872.915	22067
873.044	22086
873.173	22029
873.303	22063
873.432	21964
873.561	22139
873.69	22036
873.819	22067
873.948	21968
874.077	22048
874.206	21960
874.335	21949
874.464	22051
874.593	22246
874.722	22223
874.851	22200
874.979	22223
875.108	22223
875.237	22204
875.365	22002
875.494	22112
875.623	22306
875.751	22272
875.88	22268
876.008	22329
876.136	22538
876.265	22672
876.393	22801
876.521	22626
876.65	22790
876.778	22550
876.906	22523
877.034	22561
877.162	22580
877.29	22485
877.418	22653
877.546	22584
877.674	22660
877.802	22675
877.93	22569
878.058	22573
878.185	22398
878.313	22565
878.441	22607
878.568	22481
878.696	22451
878.824	22626
878.951	22561
879.079	22881
879.206	22915
879.333	22729
879.461	22641
879.588	22637
879.715	22824
879.842	22858
879.97	22618
880.097	22360
880.224	22341
880.351	22421
880.478	22390
880.605	22436
880.732	22379
880.859	22588
880.986	22375
881.112	22443
881.239	22306
881.366	22177
881.493	22032
881.619	22029
881.746	21956
881.872	21949
881.999	21975
882.125	21838
882.252	22010
882.378	21884
882.505	22101
882.631	21857
882.757	21599
882.883	21759
883.01	21751
883.136	21557
883.262	21622
883.388	21534
883.514	21663
883.64	21724
883.766	21641
883.892	21572
884.018	21428
884.143	21671
884.269	21663
884.395	21401
884.52	21363
884.646	21351
884.772	21363
884.897	21199
885.023	21268
885.148	21443
885.274	21469
885.399	21363
885.524	21279
885.65	21325
885.775	21268
885.9	21233
886.025	21469
886.15	21447
886.275	21279
886.4	21138
886.525	21348
886.65	21332
886.775	21272
886.9	21367
887.025	21557
887.149	21340
887.274	21180
887.399	21135
887.523	21089
887.648	21081
887.773	20883
887.897	21207
888.021	21112
888.146	21001
888.27	21138
888.395	21116
888.519	21123
888.643	21096
888.767	21123
888.891	20963
889.015	20921
889.139	20895
889.263	20796
889.387	20902
889.511	21112
889.635	20941
889.759	20834
889.883	20902
890.006	20941
890.13	20861
890.254	20773
890.377	20765
890.501	20625
890.624	20549
890.748	20556
890.871	20419
890.995	20400
891.118	20419
891.241	20358
891.364	20385
891.488	20404
891.611	20396
891.734	20400
891.857	20427
891.98	20393
892.103	20476
892.226	20434
892.349	20339
892.471	20168
892.594	20366
892.717	20301
892.839	20324
892.962	20324
893.085	20320
893.207	20256
893.33	20172
893.452	20172
893.575	20332
893.697	20248
893.819	20526
893.941	20514
894.064	20469
894.186	20313
894.308	20374
894.43	20332
894.552	20355
894.674	20343
894.796	20225
894.918	20385
895.04	20183
895.161	20423
895.283	20393
895.405	20305
895.526	20320
895.648	20294
895.769	20324
895.891	20332
896.012	20408
896.134	20328
896.255	20320
896.376	20294
896.498	20282
896.619	20332
896.74	20298
896.861	20271
896.982	20568
897.103	20716
897.224	20484
897.345	20511
897.466	20400
897.587	20522
897.708	20716
897.828	20590
897.949	20396
898.07	20332
898.19	20362
898.311	20632
898.431	20518
898.552	20518
898.672	20587
898.792	20587
898.913	20495
899.033	20351
899.153	20355
899.273	20214
899.393	20275
899.513	20362
899.633	20199
899.753	20309
899.873	20252
899.993	20412
900.113	20233
900.232	20252
900.352	20084
900.472	20111
900.591	20058
900.711	20092
900.83	20054
900.95	20035
901.069	20088
901.189	20012
901.308	19712
901.427	19624
901.546	19616
901.665	19719
901.784	19723
901.904	19460
902.023	19457
902.141	19225
902.26	19179
902.379	19164
902.498	19194
902.617	19133
902.735	19080
902.854	19126
902.973	19031
903.091	18901
903.21	18798
903.328	18764
903.446	18779
903.565	18677
903.683	18681
903.801	18528
903.919	18551
904.038	18688
904.156	18433
904.274	18517
904.392	18391
904.51	18319
904.627	18338
904.745	18403
904.863	18464
904.981	18155
905.098	18106
905.216	18034
905.334	18148
905.451	18022
905.569	17958
905.686	18178
905.803	18155
905.921	17832
906.038	17946
906.155	17840
906.272	17775
906.389	17668
906.506	17509
906.623	17509
906.74	17547
906.857	17406
906.974	17493
907.091	17581
907.208	17630
907.324	17509
907.441	17497
907.557	17353
907.674	17239
907.79	17200
907.907	17254
908.023	17326
908.139	17322
908.256	17102
908.372	17231
908.488	17128
908.604	16999
908.72	16953
908.836	17052
908.952	16995
909.068	17033
909.184	17048
909.3	17045
909.415	17003
909.531	16961
909.647	16790
909.762	16744
909.878	16744
909.993	16778
910.108	16641
910.224	16706
910.339	16584
910.454	16622
910.57	16603
910.685	16455
910.8	16843
910.915	16653
911.03	16569
911.145	16402
911.259	16371
911.374	16306
911.489	16325
911.604	16207
911.718	16055
911.833	16029
911.947	16051
912.062	15774
912.176	16063
912.291	16120
912.405	16055
912.519	16249
912.633	16310
912.748	16082
912.862	16032
912.976	15850
913.09	15728
913.204	15850
913.318	15941
913.431	15823
913.545	15953
913.659	15953
913.772	15819
913.886	15652
914	15606
914.113	15804
914.226	15800
914.34	15736
914.453	15587
914.566	15698
914.68	15557
914.793	15496
914.906	15363
915.019	15245
915.132	15218
915.245	15260
915.358	15272
915.47	15237
915.583	15268
915.696	15214
915.809	15397
915.921	15325
916.034	15195
916.146	15157
916.259	15131
916.371	15203
916.483	15249
916.595	15138
916.708	15081
916.82	15081
916.932	15093
917.044	15017
917.156	14986
917.268	14876
917.38	14853
917.491	14861
917.603	14941
917.715	14979
917.826	15081
917.938	14853
918.049	14720
918.161	14891
918.272	14914
918.384	14918
918.495	14765
918.606	14750
918.717	14651
918.828	14629
918.939	14678
919.05	14552
919.161	14598
919.272	14473
919.383	14568
919.494	14610
919.604	14914
919.715	14590
919.826	14518
919.936	14617
920.047	14686
920.157	14724
920.267	14861
920.378	14526
920.488	14537
920.598	14781
920.708	14948
920.818	14705
920.928	14758
921.038	14925
921.148	14838
921.258	14552
921.368	14575
921.477	14442
921.587	14358
921.697	14278
921.806	14351
921.916	14183
922.025	14043
922.134	13993
922.244	13925
922.353	13993
922.462	13704
922.571	13845
922.68	13639
922.789	13708
922.898	13693
923.007	13510
923.116	13647
923.224	13582
923.333	13601
923.442	13556
923.55	13480
923.659	13445
923.767	13514
923.876	13457
923.984	13434
924.092	13312
924.201	13464
924.309	13388
924.417	13403
924.525	13331
924.633	13324
924.741	14142
924.849	13171
924.956	13354
925.064	13027
925.172	13065
925.279	13012
925.387	13145
925.494	13038
925.602	13122
925.709	13091
925.816	12985
925.924	12966
926.031	13065
926.138	13023
926.245	13023
926.352	12973
926.459	13034
926.566	13099
926.673	12996
926.779	12798
926.886	12852
926.993	12817
927.099	12677
927.206	12551
927.312	12544
927.419	12681
927.525	12578
927.631	12654
927.737	12585
927.843	12517
927.95	12346
928.056	12353
928.162	12399
928.267	12456
928.373	13141
928.479	12544
928.585	12308
928.69	12289
928.796	12418
928.901	12342
929.007	12235
929.112	12216
929.218	12254
929.323	12266
929.428	12155
929.533	12171
929.638	12102
929.743	12049
929.848	12068
929.953	12095
930.058	11984
930.163	11866
930.267	11866
930.372	11961
930.477	11726
930.581	12079
930.685	11889
930.79	11752
930.894	11745
930.998	11760
931.103	11767
931.207	11341
931.311	11395
931.415	11387
931.519	11079
931.623	11067
