Data from test_V78500241_779.txt Node
Date: Fri Mar 25 15:15:16 CST 2022
User: usil
Spectrometer: V785-0024
Trigger mode: 0
Integration Time (sec): 4.000000E-1
Scans to average: 1
Nonlinearity correction enabled: false
Boxcar width: 0
Storing dark spectrum: false
XAxis mode: Wavelengths
Number of Pixels in Spectrum: 1024
>>>>>Begin Spectral Data<<<<<
801.071	28249
801.214	28234
801.356	27953
801.499	27968
801.641	27789
801.783	27865
801.926	27842
802.068	27747
802.211	27671
802.353	27705
802.496	27561
802.638	27500
802.78	27477
802.923	27412
803.065	27523
803.208	27424
803.35	27469
803.492	27682
803.635	27633
803.777	27599
803.919	27743
804.061	27930
804.204	27800
804.346	27485
804.488	27679
804.63	27576
804.773	27530
804.915	27717
805.057	27770
805.199	27679
805.341	27804
805.483	27880
805.626	27781
805.768	27759
805.91	27808
806.052	27922
806.194	27785
806.336	28059
806.478	27892
806.62	27743
806.762	28006
806.904	28090
807.046	28474
807.188	28341
807.33	28238
807.472	28249
807.614	28246
807.756	28177
807.898	28154
808.04	28131
808.182	28051
808.324	28204
808.465	28097
808.607	28196
808.749	28519
808.891	28443
809.033	28546
809.174	28462
809.316	28508
809.458	28527
809.6	28493
809.741	28736
809.883	28637
810.025	28809
810.166	28873
810.308	28725
810.45	28710
810.591	28668
810.733	28557
810.875	28493
811.016	28272
811.158	28531
811.299	28687
811.441	28630
811.582	28706
811.724	28447
811.865	28588
812.007	28607
812.148	28550
812.29	28550
812.431	28809
812.573	28915
812.714	28854
812.855	28938
812.997	29216
813.138	29162
813.279	29239
813.421	29121
813.562	28999
813.703	28911
813.845	28816
813.986	28531
814.127	28261
814.268	28173
814.41	28192
814.551	28196
814.692	28322
814.833	28253
814.974	28173
815.115	28348
815.256	28112
815.397	28261
815.539	28143
815.68	28185
815.821	27937
815.962	28078
816.103	28067
816.244	27953
816.385	27831
816.526	27762
816.666	27572
816.807	27466
816.948	27603
817.089	27663
817.23	27747
817.371	27450
817.512	27576
817.653	27587
817.793	27591
817.934	27629
818.075	27534
818.216	27561
818.356	27564
818.497	27374
818.638	27268
818.778	27298
818.919	27226
819.06	27294
819.2	27538
819.341	27580
819.481	27557
819.622	27797
819.762	27835
819.903	27922
820.043	27755
820.184	27755
820.324	27675
820.465	27732
820.605	27694
820.746	27675
820.886	27618
821.026	27526
821.167	27656
821.307	27694
821.447	27549
821.588	27439
821.728	27260
821.868	27138
822.008	26979
822.149	27066
822.289	27028
822.429	26815
822.569	26693
822.709	26746
822.849	26689
822.99	26473
823.13	26457
823.27	26526
823.41	26465
823.55	26218
823.69	26347
823.83	26317
823.97	26339
824.11	26077
824.25	26081
824.389	26161
824.529	26149
824.669	26210
824.809	26328
824.949	26343
825.089	26161
825.228	26256
825.368	25966
825.508	26088
825.648	26077
825.787	26149
825.927	26122
826.067	25902
826.206	26012
826.346	25963
826.485	26054
826.625	26008
826.765	26016
826.904	26065
827.044	25769
827.183	25757
827.323	25807
827.462	25898
827.601	25750
827.741	25746
827.88	25769
828.02	25666
828.159	25700
828.298	25693
828.437	25947
828.577	25605
828.716	25963
828.855	25681
828.994	25601
829.134	25483
829.273	25499
829.412	25460
829.551	25392
829.69	25415
829.829	25411
829.968	25556
830.107	25476
830.246	25434
830.385	25369
830.524	25373
830.663	25240
830.802	25133
830.941	25217
831.08	25004
831.219	25141
831.357	25118
831.496	25339
831.635	25053
831.774	24996
831.913	24962
832.051	25008
832.19	24954
832.329	24837
832.467	24738
832.606	24589
832.744	24749
832.883	24798
833.022	24734
833.16	24779
833.299	24764
833.437	24916
833.576	24810
833.714	24837
833.852	24875
833.991	24878
834.129	24985
834.267	24863
834.406	24726
834.544	24840
834.682	24787
834.821	24848
834.959	24958
835.097	24707
835.235	24810
835.373	24677
835.511	24814
835.65	24639
835.788	24635
835.926	24479
836.064	24365
836.202	24551
836.34	24703
836.478	24715
836.615	24654
836.753	24703
836.891	24760
837.029	24608
837.167	24650
837.305	24597
837.443	24532
837.58	24433
837.718	24467
837.856	24559
837.993	24369
838.131	24460
838.269	24391
838.406	24395
838.544	24300
838.681	24171
838.819	24007
838.956	23870
839.094	23817
839.231	24022
839.369	24079
839.506	24281
839.643	24136
839.781	23920
839.918	23923
840.055	23931
840.193	23893
840.33	23843
840.467	23874
840.604	23870
840.742	24159
840.879	23752
841.016	23779
841.153	23623
841.29	23920
841.427	23817
841.564	23950
841.701	23798
841.838	23832
841.975	23623
842.112	23695
842.249	23524
842.385	23634
842.522	23775
842.659	23657
842.796	23539
842.933	23558
843.069	23600
843.206	23573
843.343	23577
843.479	23570
843.616	23642
843.752	23372
843.889	23433
844.025	23573
844.162	23261
844.298	23455
844.435	23360
844.571	23280
844.708	23360
844.844	23566
844.98	23516
845.117	23444
845.253	23353
845.389	23235
845.525	23143
845.661	23166
845.798	23041
845.934	23151
846.07	23128
846.206	23056
846.342	23109
846.478	22949
846.614	22927
846.75	22748
846.886	22854
847.022	22869
847.158	22866
847.294	22790
847.429	22881
847.565	22767
847.701	23067
847.837	22542
847.972	22561
848.108	22561
848.244	22573
848.379	22440
848.515	22295
848.65	22398
848.786	22390
848.921	22360
849.057	22538
849.192	22405
849.328	22451
849.463	22417
849.598	22455
849.734	22253
849.869	22249
850.004	22268
850.14	22192
850.275	22230
850.41	22143
850.545	22177
850.68	22223
850.815	22196
850.95	22204
851.085	22306
851.22	22284
851.355	22188
851.49	22139
851.625	22105
851.76	22044
851.895	22143
852.03	22116
852.165	22040
852.299	22204
852.434	22272
852.569	22314
852.703	22147
852.838	22200
852.973	22303
853.107	22097
853.242	22116
853.376	22051
853.511	21812
853.645	21937
853.78	22051
853.914	22101
854.048	21907
854.183	22029
854.317	22093
854.451	22154
854.585	21922
854.72	21911
854.854	22116
854.988	21911
855.122	21998
855.256	21854
855.39	21911
855.524	22074
855.658	22002
855.792	21975
855.926	21972
856.06	22032
856.194	22013
856.327	22051
856.461	21949
856.595	21934
856.729	21918
856.862	22169
856.996	22059
857.13	22090
857.263	22025
857.397	22173
857.53	22048
857.664	21934
857.797	21994
857.931	22048
858.064	22067
858.197	21915
858.331	21991
858.464	21964
858.597	21895
858.731	21949
858.864	21953
858.997	22063
859.13	21922
859.263	22090
859.396	22032
859.529	21975
859.662	21930
859.795	21934
859.928	21975
860.061	22105
860.194	22226
860.327	22025
860.46	22029
860.592	21987
860.725	22154
860.858	22128
860.99	21964
861.123	21903
861.256	21998
861.388	22017
861.521	22637
861.653	21793
861.786	21797
861.918	21869
862.05	21827
862.183	21926
862.315	21960
862.447	22002
862.58	21983
862.712	21644
862.844	21580
862.976	21850
863.108	21755
863.24	22390
863.372	21576
863.504	21747
863.636	21610
863.768	21770
863.9	21717
864.032	21690
864.164	21717
864.296	21675
864.428	21789
864.559	21751
864.691	21698
864.823	21622
864.954	21724
865.086	21652
865.217	21507
865.349	21557
865.48	21511
865.612	21561
865.743	21747
865.875	21698
866.006	21667
866.137	21606
866.269	21595
866.4	21576
866.531	21504
866.662	21408
866.793	21424
866.924	21515
867.055	21591
867.186	21545
867.317	21576
867.448	21408
867.579	21496
867.71	21370
867.841	21454
867.972	21481
868.103	21416
868.233	21477
868.364	21629
868.495	21637
868.625	21743
868.756	21816
868.886	21637
869.017	21884
869.147	21865
869.278	21915
869.408	21785
869.539	21793
869.669	21690
869.799	21854
869.929	21949
870.06	21690
870.19	22120
870.32	22074
870.45	22112
870.58	22169
870.71	22143
870.84	22173
870.97	22181
871.1	21994
871.23	22234
871.36	22257
871.489	22177
871.619	22249
871.749	22272
871.879	22356
872.008	22443
872.138	22265
872.267	22280
872.397	22280
872.526	22082
872.656	22158
872.785	22112
872.915	22272
873.044	22398
873.173	22257
873.303	22382
873.432	22432
873.561	22459
873.69	22394
873.819	22234
873.948	22443
874.077	22462
874.206	22284
874.335	22352
874.464	22398
874.593	22516
874.722	22504
874.851	22516
874.979	22660
875.108	22702
875.237	22459
875.365	22554
875.494	22443
875.623	22653
875.751	22542
875.88	22519
876.008	22733
876.136	22721
876.265	22968
876.393	23018
876.521	22991
876.65	23025
876.778	23067
876.906	22946
877.034	22812
877.162	22953
877.29	22984
877.418	22828
877.546	22923
877.674	22946
877.802	22965
877.93	22953
878.058	22938
878.185	22820
878.313	22995
878.441	22949
878.568	22721
878.696	22877
878.824	22957
878.951	23029
879.079	23029
879.206	23117
879.333	22908
879.461	22949
879.588	23109
879.715	22968
879.842	23098
879.97	23083
880.097	22801
880.224	22759
880.351	22740
880.478	22793
880.605	22672
880.732	22687
880.859	22930
880.986	22702
881.112	22733
881.239	22607
881.366	22538
881.493	22348
881.619	22196
881.746	22413
881.872	22318
881.999	22257
882.125	22219
882.252	22295
882.378	22268
882.505	22341
882.631	22257
882.757	21953
882.883	22063
883.01	21968
883.136	21926
883.262	21907
883.388	21861
883.514	22006
883.64	22044
883.766	21884
883.892	21717
884.018	21846
884.143	21945
884.269	22097
884.395	21694
884.52	21591
884.646	21739
884.772	21572
884.897	21530
885.023	21675
885.148	21625
885.274	21953
885.399	21793
885.524	21679
885.65	21667
885.775	21572
885.9	21618
886.025	21618
886.15	21682
886.275	21557
886.4	21526
886.525	21576
886.65	21576
886.775	21538
886.9	21713
887.025	21831
887.149	21576
887.274	21481
887.399	21370
887.523	21329
887.648	21302
887.773	21154
887.897	21443
888.021	21595
888.146	21310
888.27	21526
888.395	21458
888.519	21454
888.643	21351
888.767	21450
888.891	21249
889.015	21180
889.139	21325
889.263	21192
889.387	21268
889.511	21393
889.635	21310
889.759	21032
889.883	21199
890.006	21089
890.13	21252
890.254	21116
890.377	21218
890.501	20906
890.624	21001
890.748	20937
890.871	20743
890.995	20743
891.118	20758
891.241	20868
891.364	20735
891.488	20895
891.611	20682
891.734	20644
891.857	20773
891.98	20731
892.103	20861
892.226	20689
892.349	20689
892.471	20632
892.594	20613
892.717	20849
892.839	20636
892.962	20651
893.085	20621
893.207	20598
893.33	20590
893.452	20530
893.575	20537
893.697	20693
893.819	20815
893.941	20826
894.064	20552
894.186	20636
894.308	20503
894.43	20617
894.552	20838
894.674	20705
894.796	20503
894.918	20609
895.04	20495
895.161	20674
895.283	20648
895.405	20419
895.526	20575
895.648	20571
895.769	20788
895.891	20602
896.012	20568
896.134	20632
896.255	20609
896.376	20693
896.498	20712
896.619	20636
896.74	20556
896.861	20823
896.982	20899
897.103	21070
897.224	20990
897.345	20754
897.466	20739
897.587	20804
897.708	20948
897.828	20925
897.949	20651
898.07	20587
898.19	20826
898.311	20887
898.431	20724
898.552	20804
898.672	20876
898.792	20845
898.913	20823
899.033	20708
899.153	20571
899.273	20533
899.393	20560
899.513	20602
899.633	20514
899.753	20598
899.873	20514
899.993	20636
900.113	20488
900.232	20484
900.352	20438
900.472	20248
900.591	20301
900.711	20267
900.83	20298
900.95	20415
901.069	20396
901.189	20267
901.308	19947
901.427	19913
901.546	19879
901.665	19974
901.784	19989
901.904	19818
902.023	19651
902.141	19575
902.26	19411
902.379	19472
902.498	19499
902.617	19362
902.735	19529
902.854	19331
902.973	19335
903.091	19122
903.21	19152
903.328	18977
903.446	18882
903.565	18871
903.683	18886
903.801	18772
903.919	18848
904.038	18817
904.156	18623
904.274	18734
904.392	18578
904.51	18623
904.627	18467
904.745	18791
904.863	18642
904.981	18429
905.098	18247
905.216	18376
905.334	18350
905.451	18350
905.569	18289
905.686	18422
905.803	18311
905.921	18060
906.038	18213
906.155	18205
906.272	18125
906.389	18030
906.506	17855
906.623	17790
906.74	17874
906.857	17707
906.974	17729
907.091	17885
907.208	17988
907.324	17935
907.441	17752
907.557	17562
907.674	17486
907.79	17493
907.907	17577
908.023	17672
908.139	17608
908.256	17562
908.372	17440
908.488	17463
908.604	17280
908.72	17296
908.836	17220
908.952	17341
909.068	17292
909.184	17414
909.3	17216
909.415	17265
909.531	17334
909.647	17048
909.762	16869
909.878	16991
909.993	16987
910.108	16961
910.224	16953
910.339	16930
910.454	16850
910.57	16820
910.685	16706
910.8	17010
910.915	16965
911.03	16801
911.145	16599
911.259	16656
911.374	16531
911.489	16519
911.604	16306
911.718	16356
911.833	16348
911.947	16219
912.062	16093
912.176	16253
912.291	16303
912.405	16204
912.519	16500
912.633	16554
912.748	16356
912.862	16234
912.976	16090
913.09	16048
913.204	16105
913.318	16040
913.431	16287
913.545	16185
913.659	16173
913.772	16112
913.886	15941
914	15903
914.113	15960
914.226	15968
914.34	16017
914.453	15846
914.566	15911
914.68	15804
914.793	15812
914.906	15515
915.019	15515
915.132	15504
915.245	15580
915.358	15568
915.47	15458
915.583	15515
915.696	15473
915.809	15568
915.921	15568
916.034	15542
916.146	15382
916.259	15450
916.371	15496
916.483	15469
916.595	15382
916.708	15332
916.82	15279
916.932	15260
917.044	15279
917.156	15298
917.268	15173
917.38	15195
917.491	15116
917.603	15226
917.715	15237
917.826	15252
917.938	15055
918.049	14979
918.161	15097
918.272	15214
918.384	15127
918.495	15100
918.606	14883
918.717	14823
918.828	14883
918.939	14891
919.05	14754
919.161	14811
919.272	14556
919.383	14693
919.494	14834
919.604	15036
919.715	14857
919.826	14712
919.936	14796
920.047	14948
920.157	14800
920.267	15119
920.378	14807
920.488	14811
920.598	15055
920.708	15169
920.818	15032
920.928	15066
921.038	15161
921.148	14956
921.258	14712
921.368	14762
921.477	14659
921.587	14507
921.697	14507
921.806	14541
921.916	14370
922.025	14374
922.134	14240
922.244	14157
922.353	14214
922.462	14081
922.571	14084
922.68	13849
922.789	13902
922.898	13974
923.007	13849
923.116	13898
923.224	13776
923.333	13803
923.442	13700
923.55	13727
923.659	13639
923.767	13788
923.876	13639
923.984	13772
924.092	13586
924.201	13582
924.309	13567
924.417	13582
924.525	13582
924.633	13567
924.741	14263
924.849	13308
924.956	13449
925.064	13316
925.172	13206
925.279	13225
925.387	13320
925.494	13247
925.602	13388
925.709	13187
925.816	13198
925.924	13225
926.031	13240
926.138	13206
926.245	13225
926.352	13042
926.459	13160
926.566	13289
926.673	13175
926.779	12989
926.886	13031
926.993	12886
927.099	12856
927.206	12859
927.312	12806
927.419	12856
927.525	12764
927.631	12810
927.737	12684
927.843	12646
927.95	12627
928.056	12715
928.162	12589
928.267	12631
928.373	13266
928.479	12741
928.585	12513
928.69	12612
928.796	12623
928.901	12517
929.007	12391
929.112	12437
929.218	12342
929.323	12285
929.428	12289
929.533	12467
929.638	12266
929.743	12228
929.848	12357
929.953	12266
930.058	12213
930.163	12049
930.267	12053
930.372	12155
930.477	11999
930.581	12194
930.685	12087
930.79	11916
930.894	11893
930.998	11923
931.103	12041
931.207	11642
931.311	11570
931.415	11585
931.519	11193
931.623	11368
