Data from test_V78500241_146.txt Node
Date: Fri Mar 25 15:10:52 CST 2022
User: usil
Spectrometer: V785-0024
Trigger mode: 0
Integration Time (sec): 4.000000E-1
Scans to average: 1
Nonlinearity correction enabled: false
Boxcar width: 0
Storing dark spectrum: false
XAxis mode: Wavelengths
Number of Pixels in Spectrum: 1024
>>>>>Begin Spectral Data<<<<<
801.071	27895
801.214	28059
801.356	27774
801.499	27622
801.641	27500
801.783	27610
801.926	27698
802.068	27641
802.211	27530
802.353	27363
802.496	27222
802.638	27199
802.78	27062
802.923	27089
803.065	27093
803.208	27066
803.35	27119
803.492	27157
803.635	27230
803.777	27112
803.919	27077
804.061	27580
804.204	27374
804.346	27100
804.488	27138
804.63	27188
804.773	26971
804.915	27241
805.057	27310
805.199	27180
805.341	27081
805.483	27218
805.626	27469
805.768	27203
805.91	27188
806.052	27275
806.194	27260
806.336	27572
806.478	27355
806.62	27157
806.762	27462
806.904	27443
807.046	27800
807.188	27614
807.33	27656
807.472	27625
807.614	27500
807.756	27637
807.898	27355
808.04	27496
808.182	27454
808.324	27427
808.465	27443
808.607	27572
808.749	27690
808.891	27964
809.033	27937
809.174	27911
809.316	27804
809.458	27873
809.6	27831
809.741	27861
809.883	27831
810.025	27956
810.166	27975
810.308	28070
810.45	28017
810.591	27956
810.733	27838
810.875	27812
811.016	27690
811.158	27553
811.299	27850
811.441	27766
811.582	27914
811.724	27713
811.865	27606
812.007	27679
812.148	27580
812.29	27793
812.431	28055
812.573	28105
812.714	28090
812.855	28356
812.997	28409
813.138	28409
813.279	28348
813.421	28242
813.562	28268
813.703	28162
813.845	27914
813.986	27568
814.127	27477
814.268	27306
814.41	27431
814.551	27306
814.692	27473
814.833	27294
814.974	27374
815.115	27340
815.256	27157
815.397	27154
815.539	27150
815.68	27013
815.821	27157
815.962	27119
816.103	26925
816.244	27009
816.385	26940
816.526	26830
816.666	26644
816.807	26339
816.948	26644
817.089	26575
817.23	26705
817.371	26518
817.512	26438
817.653	26473
817.793	26415
817.934	26484
818.075	26374
818.216	26499
818.356	26374
818.497	26461
818.638	26195
818.778	26408
818.919	26199
819.06	26252
819.2	26305
819.341	26347
819.481	26423
819.622	26480
819.762	26640
819.903	26613
820.043	26594
820.184	26473
820.324	26473
820.465	26492
820.605	26446
820.746	26492
820.886	26206
821.026	26522
821.167	26412
821.307	26571
821.447	26389
821.588	26202
821.728	26275
821.868	25940
822.008	25879
822.149	25841
822.289	25818
822.429	25529
822.569	25426
822.709	25502
822.849	25350
822.99	25396
823.13	25187
823.27	25228
823.41	25072
823.55	25027
823.69	25148
823.83	25050
823.97	25042
824.11	24951
824.25	24829
824.389	24878
824.529	25057
824.669	24901
824.809	25076
824.949	24837
825.089	24932
825.228	24966
825.368	24681
825.508	24772
825.648	24829
825.787	24837
825.927	24669
826.067	24806
826.206	24798
826.346	24646
826.485	24825
826.625	24646
826.765	24840
826.904	24840
827.044	24464
827.183	24433
827.323	24369
827.462	24502
827.601	24384
827.741	24410
827.88	24346
828.02	24270
828.159	24292
828.298	24334
828.437	24555
828.577	24243
828.716	24445
828.855	24296
828.994	24068
829.134	24148
829.273	24148
829.412	24098
829.551	24049
829.69	24015
829.829	23992
829.968	24171
830.107	24049
830.246	24152
830.385	23923
830.524	24038
830.663	23760
830.802	23748
830.941	23695
831.08	23691
831.219	23649
831.357	23729
831.496	23923
831.635	23619
831.774	23501
831.913	23421
832.051	23360
832.19	23440
832.329	23551
832.467	23448
832.606	23250
832.744	23429
832.883	23307
833.022	23231
833.16	23372
833.299	23364
833.437	23322
833.576	23315
833.714	23406
833.852	23459
833.991	23356
834.129	23410
834.267	23402
834.406	23429
834.544	23334
834.682	23315
834.821	23322
834.959	23440
835.097	23326
835.235	23478
835.373	23208
835.511	23341
835.65	23155
835.788	23174
835.926	22923
836.064	23010
836.202	22987
836.34	23170
836.478	23193
836.615	23136
836.753	23094
836.891	23204
837.029	23166
837.167	22972
837.305	23086
837.443	23025
837.58	22984
837.718	23143
837.856	23018
837.993	22930
838.131	22991
838.269	22843
838.406	22946
838.544	22752
838.681	22584
838.819	22603
838.956	22322
839.094	22485
839.231	22516
839.369	22527
839.506	22889
839.643	22630
839.781	22363
839.918	22417
840.055	22504
840.193	22348
840.33	22246
840.467	22314
840.604	22386
840.742	22596
840.879	22188
841.016	22169
841.153	22310
841.29	22379
841.427	22314
841.564	22333
841.701	22303
841.838	22246
841.975	22192
842.112	22234
842.249	22131
842.385	21991
842.522	22143
842.659	22040
842.796	22017
842.933	22070
843.069	21968
843.206	21949
843.343	22067
843.479	22010
843.616	22044
843.752	21747
843.889	21736
844.025	21880
844.162	21861
844.298	22002
844.435	21770
844.571	21766
844.708	21816
844.844	22021
844.98	21941
845.117	21846
845.253	21667
845.389	21656
845.525	21698
845.661	21637
845.798	21564
845.934	21515
846.07	21492
846.206	21435
846.342	21614
846.478	21405
846.614	21351
846.75	21287
846.886	21199
847.022	21340
847.158	21264
847.294	21283
847.429	21260
847.565	21100
847.701	21526
847.837	20872
847.972	20944
848.108	20975
848.244	20933
848.379	20857
848.515	20876
848.65	20754
848.786	20876
848.921	20659
849.057	20861
849.192	20891
849.328	20777
849.463	20670
849.598	20606
849.734	20750
849.869	20796
850.004	20461
850.14	20522
850.275	20590
850.41	20495
850.545	20431
850.68	20518
850.815	20621
850.95	20545
851.085	20583
851.22	20659
851.355	20549
851.49	20571
851.625	20461
851.76	20480
851.895	20377
852.03	20465
852.165	20495
852.299	20571
852.434	20594
852.569	20473
852.703	20419
852.838	20602
852.973	20629
853.107	20484
853.242	20476
853.376	20358
853.511	20290
853.645	20225
853.78	20457
853.914	20328
854.048	20370
854.183	20332
854.317	20400
854.451	20408
854.585	20294
854.72	20358
854.854	20336
854.988	20168
855.122	20370
855.256	20275
855.39	20301
855.524	20431
855.658	20450
855.792	20343
855.926	20332
856.06	20412
856.194	20484
856.327	20290
856.461	20206
856.595	20180
856.729	20351
856.862	20408
856.996	20221
857.13	20374
857.263	20450
857.397	20457
857.53	20191
857.664	20415
857.797	20305
857.931	20480
858.064	20309
858.197	20389
858.331	20298
858.464	20298
858.597	20214
858.731	20252
858.864	20183
858.997	20259
859.13	20313
859.263	20362
859.396	20358
859.529	20225
859.662	20172
859.795	20358
859.928	20438
860.061	20404
860.194	20499
860.327	20214
860.46	20290
860.592	20324
860.725	20431
860.858	20404
860.99	20237
861.123	20176
861.256	20282
861.388	20339
861.521	21055
861.653	20081
861.786	20092
861.918	20077
862.05	20275
862.183	20256
862.315	20206
862.447	20362
862.58	20240
862.712	20115
862.844	19932
862.976	20050
863.108	20016
863.24	20332
863.372	20005
863.504	19993
863.636	20035
863.768	20024
863.9	19955
864.032	20001
864.164	19913
864.296	19974
864.428	20050
864.559	19989
864.691	19982
864.823	19955
864.954	20020
865.086	19997
865.217	19963
865.349	19833
865.48	19887
865.612	19894
865.743	19947
865.875	19734
866.006	19807
866.137	19868
866.269	19822
866.4	19807
866.531	19769
866.662	19746
866.793	19742
866.924	19795
867.055	19860
867.186	19826
867.317	19845
867.448	19693
867.579	19780
867.71	19757
867.841	19784
867.972	19822
868.103	19791
868.233	19864
868.364	19750
868.495	20012
868.625	19967
868.756	20096
868.886	20054
869.017	19978
869.147	20218
869.278	20263
869.408	20024
869.539	19997
869.669	20298
869.799	20161
869.929	20077
870.06	20134
870.19	20248
870.32	20225
870.45	20320
870.58	20473
870.71	20495
870.84	20530
870.97	20461
871.1	20549
871.23	20674
871.36	20629
871.489	20434
871.619	20750
871.749	20735
871.879	20716
872.008	20762
872.138	20552
872.267	20606
872.397	20533
872.526	20503
872.656	20571
872.785	20488
872.915	20674
873.044	20705
873.173	20777
873.303	20743
873.432	20750
873.561	20788
873.69	20750
873.819	20689
873.948	20735
874.077	20727
874.206	20716
874.335	20769
874.464	20807
874.593	20960
874.722	20994
874.851	20861
874.979	20998
875.108	20998
875.237	20899
875.365	20811
875.494	21017
875.623	20963
875.751	20872
875.88	21085
876.008	21047
876.136	21207
876.265	21378
876.393	21485
876.521	21416
876.65	21428
876.778	21351
876.906	21306
877.034	21218
877.162	21466
877.29	21294
877.418	21291
877.546	21260
877.674	21230
877.802	21340
877.93	21344
878.058	21226
878.185	21264
878.313	21348
878.441	21359
878.568	21157
878.696	21310
878.824	21363
878.951	21439
879.079	21481
879.206	21564
879.333	21568
879.461	21363
879.588	21424
879.715	21545
879.842	21603
879.97	21302
880.097	21275
880.224	21089
880.351	21154
880.478	21081
880.605	21237
880.732	20994
880.859	21332
880.986	21176
881.112	21138
881.239	20998
881.366	20861
881.493	20804
881.619	20724
881.746	20872
881.872	20762
881.999	20663
882.125	20667
882.252	20845
882.378	20796
882.505	20925
882.631	20583
882.757	20442
882.883	20503
883.01	20537
883.136	20396
883.262	20263
883.388	20336
883.514	20396
883.64	20465
883.766	20396
883.892	20240
884.018	20358
884.143	20332
884.269	20480
884.395	20180
884.52	20240
884.646	20058
884.772	20084
884.897	19932
885.023	20168
885.148	20370
885.274	20225
885.399	20248
885.524	20073
885.65	20153
885.775	20119
885.9	20050
886.025	20221
886.15	20233
886.275	19993
886.4	20008
886.525	19932
886.65	20050
886.775	20050
886.9	20119
887.025	20210
887.149	20176
887.274	19871
887.399	19845
887.523	20008
887.648	19822
887.773	19563
887.897	19947
888.021	19822
888.146	19871
888.27	19921
888.395	19890
888.519	19902
888.643	19978
888.767	19970
888.891	19807
889.015	19769
889.139	19704
889.263	19655
889.387	19811
889.511	19868
889.635	19811
889.759	19609
889.883	19582
890.006	19628
890.13	19772
890.254	19643
890.377	19518
890.501	19453
890.624	19365
890.748	19365
890.871	19312
890.995	19244
891.118	19206
891.241	19221
891.364	19228
891.488	19422
891.611	19251
891.734	19301
891.857	19228
891.98	19221
892.103	19316
892.226	19285
892.349	19187
892.471	18977
892.594	19187
892.717	19179
892.839	19194
892.962	19114
893.085	19369
893.207	19148
893.33	19103
893.452	19091
893.575	19152
893.697	19114
893.819	19274
893.941	19369
894.064	19316
894.186	19076
894.308	19057
894.43	19270
894.552	19255
894.674	19346
894.796	18981
894.918	19175
895.04	19072
895.161	19240
895.283	19232
895.405	19099
895.526	19198
895.648	19190
895.769	19137
895.891	19148
896.012	19324
896.134	19308
896.255	19202
896.376	19202
896.498	19316
896.619	19388
896.74	19236
896.861	19419
896.982	19548
897.103	19662
897.224	19487
897.345	19449
897.466	19270
897.587	19487
897.708	19594
897.828	19434
897.949	19312
898.07	19282
898.19	19400
898.311	19518
898.431	19369
898.552	19354
898.672	19438
898.792	19400
898.913	19365
899.033	19259
899.153	19259
899.273	19122
899.393	19057
899.513	19145
899.633	19160
899.753	19103
899.873	19034
899.993	19091
900.113	19103
900.232	19141
900.352	19023
900.472	18985
900.591	18989
900.711	19091
900.83	18878
900.95	18928
901.069	19076
901.189	18859
901.308	18627
901.427	18570
901.546	18620
901.665	18563
901.784	18627
901.904	18388
902.023	18323
902.141	18129
902.26	18197
902.379	18232
902.498	18022
902.617	17939
902.735	18121
902.854	18121
902.973	17904
903.091	17866
903.21	17813
903.328	17756
903.446	17543
903.565	17592
903.683	17505
903.801	17349
903.919	17524
904.038	17619
904.156	17387
904.274	17376
904.392	17349
904.51	17299
904.627	17223
904.745	17398
904.863	17349
904.981	17079
905.098	17014
905.216	16949
905.334	17128
905.451	16999
905.569	16995
905.686	17041
905.803	16930
905.921	16771
906.038	16946
906.155	16793
906.272	16679
906.389	16702
906.506	16489
906.623	16466
906.74	16451
906.857	16462
906.974	16447
907.091	16596
907.208	16569
907.324	16554
907.441	16519
907.557	16158
907.674	16196
907.79	16101
907.907	16162
908.023	16173
908.139	16181
908.256	16124
908.372	16139
908.488	16013
908.604	16010
908.72	15930
908.836	15934
908.952	15876
909.068	15846
909.184	16017
909.3	15899
909.415	15903
909.531	15873
909.647	15663
909.762	15603
909.878	15663
909.993	15747
910.108	15595
910.224	15606
910.339	15580
910.454	15523
910.57	15496
910.685	15370
910.8	15705
910.915	15526
911.03	15401
911.145	15268
911.259	15211
911.374	15222
911.489	15100
911.604	15131
911.718	15005
911.833	15097
911.947	14883
912.062	14727
912.176	14933
912.291	14887
912.405	14910
912.519	15131
912.633	15131
912.748	14963
912.862	14857
912.976	14800
913.09	14655
913.204	14727
913.318	14739
913.431	14933
913.545	14788
913.659	14918
913.772	14678
913.886	14621
914	14537
914.113	14693
914.226	14750
914.34	14594
914.453	14526
914.566	14697
914.68	14473
914.793	14575
914.906	14320
915.019	14180
915.132	14191
915.245	14218
915.358	14237
915.47	14233
915.583	14275
915.696	14317
915.809	14332
915.921	14400
916.034	14191
916.146	14081
916.259	14164
916.371	14199
916.483	14298
916.595	14043
916.708	14130
916.82	14069
916.932	14001
917.044	13986
917.156	14031
917.268	13856
917.38	13993
917.491	13944
917.603	13921
917.715	13860
917.826	14027
917.938	13875
918.049	13742
918.161	13822
918.272	14092
918.384	13989
918.495	13780
918.606	13833
918.717	13590
918.828	13677
918.939	13712
919.05	13624
919.161	13704
919.272	13419
919.383	13571
919.494	13750
919.604	13974
919.715	13681
919.826	13590
919.936	13586
920.047	13738
920.157	13670
920.267	13818
920.378	13670
920.488	13624
920.598	13822
920.708	13955
920.818	13814
920.928	13712
921.038	13932
921.148	13909
921.258	13643
921.368	13445
921.477	13495
921.587	13369
921.697	13232
921.806	13388
921.916	13221
922.025	12981
922.134	12989
922.244	13084
922.353	13008
922.462	12913
922.571	12856
922.68	12684
922.789	12692
922.898	12730
923.007	12585
923.116	12623
923.224	12738
923.333	12673
923.442	12555
923.55	12513
923.659	12525
923.767	12582
923.876	12563
923.984	12582
924.092	12445
924.201	12471
924.309	12517
924.417	12479
924.525	12372
924.633	12437
924.741	13137
924.849	12155
924.956	12330
925.064	12171
925.172	12125
925.279	12041
925.387	12163
925.494	12175
925.602	12296
925.709	12140
925.816	12102
925.924	12175
926.031	12133
926.138	12057
926.245	12167
926.352	11923
926.459	12041
926.566	12140
926.673	12064
926.779	11950
926.886	11939
926.993	11760
927.099	11802
927.206	11737
927.312	11691
927.419	11752
927.525	11733
927.631	11756
927.737	11611
927.843	11611
927.95	11482
928.056	11486
928.162	11623
928.267	11661
928.373	12129
928.479	11646
928.585	11391
928.69	11608
928.796	11627
928.901	11356
929.007	11269
929.112	11463
929.218	11421
929.323	11383
929.428	11250
929.533	11448
929.638	11216
929.743	11303
929.848	11364
929.953	11277
930.058	11235
930.163	11094
930.267	11075
930.372	11159
930.477	10885
930.581	11201
930.685	11041
930.79	10930
930.894	10873
930.998	10877
931.103	11083
931.207	10596
931.311	10622
931.415	10599
931.519	10360
931.623	10166
