Data from test_V78500241_3606.txt Node
Date: Fri Mar 25 15:34:58 CST 2022
User: usil
Spectrometer: V785-0024
Trigger mode: 0
Integration Time (sec): 4.000000E-1
Scans to average: 1
Nonlinearity correction enabled: false
Boxcar width: 0
Storing dark spectrum: false
XAxis mode: Wavelengths
Number of Pixels in Spectrum: 1024
>>>>>Begin Spectral Data<<<<<
801.071	27401
801.214	27272
801.356	26967
801.499	26899
801.641	26891
801.783	26952
801.926	26777
802.068	26811
802.211	26769
802.353	26632
802.496	26609
802.638	26442
802.78	26473
802.923	26461
803.065	26309
803.208	26393
803.35	26518
803.492	26568
803.635	26541
803.777	26488
803.919	26644
804.061	26982
804.204	26648
804.346	26609
804.488	26537
804.63	26564
804.773	26480
804.915	26659
805.057	26788
805.199	26583
805.341	26663
805.483	26746
805.626	26682
805.768	26583
805.91	26545
806.052	26678
806.194	26815
806.336	26944
806.478	26720
806.62	26758
806.762	26735
806.904	26876
807.046	27192
807.188	27211
807.33	27051
807.472	27066
807.614	27112
807.756	27112
807.898	27013
808.04	26940
808.182	26994
808.324	27039
808.465	27032
808.607	27176
808.749	27382
808.891	27405
809.033	27427
809.174	27408
809.316	27230
809.458	27363
809.6	27138
809.741	27424
809.883	27431
810.025	27690
810.166	27583
810.308	27648
810.45	27511
810.591	27416
810.733	27393
810.875	27252
811.016	27131
811.158	27207
811.299	27447
811.441	27530
811.582	27557
811.724	27359
811.865	27382
812.007	27298
812.148	27340
812.29	27283
812.431	27534
812.573	27542
812.714	27701
812.855	27819
812.997	27850
813.138	27823
813.279	27960
813.421	27850
813.562	27816
813.703	27682
813.845	27500
813.986	27222
814.127	27169
814.268	27009
814.41	27020
814.551	26910
814.692	27055
814.833	26891
814.974	26933
815.115	27047
815.256	26773
815.397	26777
815.539	26807
815.68	26826
815.821	26636
815.962	26800
816.103	26720
816.244	26830
816.385	26568
816.526	26629
816.666	26317
816.807	26195
816.948	26271
817.089	26408
817.23	26229
817.371	26233
817.512	26134
817.653	26237
817.793	26130
817.934	26183
818.075	26389
818.216	26423
818.356	26119
818.497	26016
818.638	25970
818.778	26050
818.919	26012
819.06	26008
819.2	26210
819.341	26168
819.481	26225
819.622	26351
819.762	26697
819.903	26503
820.043	26453
820.184	26400
820.324	26339
820.465	26431
820.605	26434
820.746	26244
820.886	26301
821.026	26412
821.167	26389
821.307	26377
821.447	26343
821.588	26214
821.728	26020
821.868	25909
822.008	25571
822.149	25772
822.289	25761
822.429	25335
822.569	25510
822.709	25483
822.849	25274
822.99	25187
823.13	25221
823.27	25069
823.41	25019
823.55	24989
823.69	25133
823.83	25057
823.97	24973
824.11	24760
824.25	24897
824.389	24844
824.529	24954
824.669	24890
824.809	25012
824.949	24992
825.089	25019
825.228	24802
825.368	24707
825.508	24631
825.648	24783
825.787	24749
825.927	24779
826.067	24730
826.206	24715
826.346	24814
826.485	24886
826.625	24711
826.765	24814
826.904	24856
827.044	24601
827.183	24509
827.323	24494
827.462	24540
827.601	24525
827.741	24498
827.88	24513
828.02	24422
828.159	24338
828.298	24388
828.437	24448
828.577	24395
828.716	24574
828.855	24369
828.994	24163
829.134	24174
829.273	24194
829.412	24194
829.551	24053
829.69	24110
829.829	24182
829.968	24338
830.107	24205
830.246	24159
830.385	24102
830.524	24117
830.663	23977
830.802	23863
830.941	23805
831.08	23821
831.219	23790
831.357	23942
831.496	24007
831.635	23733
831.774	23805
831.913	23589
832.051	23562
832.19	23440
832.329	23501
832.467	23562
832.606	23433
832.744	23379
832.883	23501
833.022	23421
833.16	23414
833.299	23497
833.437	23531
833.576	23524
833.714	23547
833.852	23615
833.991	23585
834.129	23649
834.267	23604
834.406	23539
834.544	23722
834.682	23531
834.821	23634
834.959	23680
835.097	23520
835.235	23596
835.373	23535
835.511	23535
835.65	23334
835.788	23349
835.926	23284
836.064	23231
836.202	23277
836.34	23425
836.478	23524
836.615	23410
836.753	23322
836.891	23395
837.029	23368
837.167	23330
837.305	23258
837.443	23318
837.58	23132
837.718	23265
837.856	23250
837.993	23117
838.131	23189
838.269	23056
838.406	23193
838.544	23079
838.681	22976
838.819	22771
838.956	22740
839.094	22824
839.231	22755
839.369	22866
839.506	23022
839.643	22938
839.781	22672
839.918	22622
840.055	22759
840.193	22694
840.33	22622
840.467	22694
840.604	22866
840.742	22866
840.879	22489
841.016	22557
841.153	22656
841.29	22759
841.427	22603
841.564	22698
841.701	22683
841.838	22569
841.975	22759
842.112	22603
842.249	22588
842.385	22485
842.522	22577
842.659	22550
842.796	22455
842.933	22379
843.069	22424
843.206	22287
843.343	22421
843.479	22421
843.616	22382
843.752	22196
843.889	22265
844.025	22428
844.162	22181
844.298	22249
844.435	22147
844.571	22086
844.708	22211
844.844	22344
844.98	22386
845.117	22154
845.253	21979
845.389	22055
845.525	22116
845.661	22086
845.798	21956
845.934	22116
846.07	21956
846.206	21926
846.342	22040
846.478	21778
846.614	21781
846.75	21622
846.886	21606
847.022	21774
847.158	21732
847.294	21686
847.429	21717
847.565	21698
847.701	21789
847.837	21382
847.972	21519
848.108	21511
848.244	21549
848.379	21211
848.515	21150
848.65	21237
848.786	21317
848.921	21222
849.057	21291
849.192	21340
849.328	21268
849.463	21287
849.598	21233
849.734	21214
849.869	21154
850.004	20975
850.14	21047
850.275	21077
850.41	20952
850.545	21039
850.68	20902
850.815	21017
850.95	21116
851.085	21310
851.22	21085
851.355	21062
851.49	20891
851.625	21024
851.76	21032
851.895	20918
852.03	20914
852.165	21070
852.299	21032
852.434	21127
852.569	21032
852.703	20982
852.838	21100
852.973	21100
853.107	21028
853.242	20883
853.376	20906
853.511	20731
853.645	20834
853.78	21001
853.914	20849
854.048	20811
854.183	20811
854.317	20956
854.451	20975
854.585	20758
854.72	20925
854.854	20914
854.988	20796
855.122	20724
855.256	20819
855.39	20861
855.524	20960
855.658	20834
855.792	20830
855.926	20826
856.06	20906
856.194	20952
856.327	20815
856.461	20830
856.595	20800
856.729	20853
856.862	21039
856.996	21005
857.13	20933
857.263	20891
857.397	20925
857.53	20746
857.664	20845
857.797	20971
857.931	20975
858.064	20815
858.197	20845
858.331	20891
858.464	20830
858.597	20682
858.731	20815
858.864	20758
858.997	20800
859.13	20902
859.263	20842
859.396	20944
859.529	20887
859.662	20785
859.795	20769
859.928	20834
860.061	20967
860.194	20887
860.327	20967
860.46	20796
860.592	20899
860.725	20967
860.858	20982
860.99	20891
861.123	20819
861.256	20823
861.388	20849
861.521	21682
861.653	20678
861.786	20720
861.918	20636
862.05	20765
862.183	20663
862.315	20800
862.447	20804
862.58	20815
862.712	20644
862.844	20609
862.976	20571
863.108	20587
863.24	20994
863.372	20476
863.504	20587
863.636	20537
863.768	20598
863.9	20560
864.032	20434
864.164	20442
864.296	20629
864.428	20629
864.559	20526
864.691	20720
864.823	20575
864.954	20545
865.086	20560
865.217	20450
865.349	20393
865.48	20419
865.612	20450
865.743	20552
865.875	20488
866.006	20488
866.137	20419
866.269	20476
866.4	20568
866.531	20461
866.662	20370
866.793	20442
866.924	20351
867.055	20370
867.186	20507
867.317	20336
867.448	20339
867.579	20328
867.71	20298
867.841	20374
867.972	20370
868.103	20454
868.233	20412
868.364	20412
868.495	20446
868.625	20693
868.756	20724
868.886	20617
869.017	20594
869.147	20743
869.278	20613
869.408	20670
869.539	20629
869.669	20693
869.799	20804
869.929	20807
870.06	20750
870.19	21062
870.32	20967
870.45	21032
870.58	21020
870.71	21294
870.84	21154
870.97	21077
871.1	21043
871.23	21272
871.36	21302
871.489	21180
871.619	21245
871.749	21268
871.879	21176
872.008	21291
872.138	21214
872.267	21230
872.397	21104
872.526	21051
872.656	21039
872.785	21066
872.915	21260
873.044	21397
873.173	21249
873.303	21268
873.432	21336
873.561	21393
873.69	21363
873.819	21382
873.948	21363
874.077	21348
874.206	21275
874.335	21325
874.464	21325
874.593	21515
874.722	21458
874.851	21542
874.979	21637
875.108	21583
875.237	21393
875.365	21401
875.494	21526
875.623	21583
875.751	21545
875.88	21545
876.008	21587
876.136	21766
876.265	21964
876.393	21994
876.521	21975
876.65	21941
876.778	21899
876.906	21869
877.034	21857
877.162	21861
877.29	21934
877.418	21766
877.546	21865
877.674	21846
877.802	21770
877.93	21800
878.058	21892
878.185	21705
878.313	21781
878.441	21934
878.568	21724
878.696	21869
878.824	21899
878.951	21937
879.079	22017
879.206	22192
879.333	22044
879.461	21899
879.588	21956
879.715	22135
879.842	22021
879.97	21926
880.097	21652
880.224	21679
880.351	21686
880.478	21622
880.605	21720
880.732	21675
880.859	21994
880.986	21690
881.112	21713
881.239	21595
881.366	21504
881.493	21466
881.619	21348
881.746	21294
881.872	21355
881.999	21207
882.125	21165
882.252	21275
882.378	21146
882.505	21329
882.631	21001
882.757	21066
882.883	20910
883.01	21001
883.136	20826
883.262	20906
883.388	20830
883.514	21024
883.64	20952
883.766	21070
883.892	20792
884.018	20758
884.143	20902
884.269	21066
884.395	20606
884.52	20636
884.646	20693
884.772	20514
884.897	20522
885.023	20583
885.148	20899
885.274	20948
885.399	20754
885.524	20659
885.65	20644
885.775	20632
885.9	20549
886.025	20758
886.15	20762
886.275	20518
886.4	20571
886.525	20613
886.65	20541
886.775	20606
886.9	20598
887.025	20804
887.149	20625
887.274	20461
887.399	20366
887.523	20450
887.648	20332
887.773	20252
887.897	20514
888.021	20415
888.146	20358
888.27	20499
888.395	20549
888.519	20332
888.643	20480
888.767	20476
888.891	20396
889.015	20225
889.139	20298
889.263	20119
889.387	20294
889.511	20415
889.635	20393
889.759	20225
889.883	20221
890.006	20100
890.13	20271
890.254	20138
890.377	20111
890.501	19982
890.624	19807
890.748	19982
890.871	19860
890.995	19746
891.118	19795
891.241	19909
891.364	19715
891.488	19826
891.611	19830
891.734	19947
891.857	19856
891.98	19811
892.103	19788
892.226	19757
892.349	19769
892.471	19445
892.594	19761
892.717	19613
892.839	19681
892.962	19723
893.085	19700
893.207	19635
893.33	19586
893.452	19628
893.575	19738
893.697	19677
893.819	19769
893.941	19845
894.064	19772
894.186	19738
894.308	19605
894.43	19784
894.552	19909
894.674	19700
894.796	19533
894.918	19727
895.04	19594
895.161	19791
895.283	19780
895.405	19594
895.526	19651
895.648	19605
895.769	19548
895.891	19704
896.012	19715
896.134	19807
896.255	19674
896.376	19620
896.498	19620
896.619	19799
896.74	19765
896.861	19799
896.982	19993
897.103	20195
897.224	19974
897.345	19761
897.466	19909
897.587	19894
897.708	20065
897.828	20016
897.949	19860
898.07	19765
898.19	19890
898.311	19944
898.431	19906
898.552	19921
898.672	20081
898.792	19997
898.913	19898
899.033	19875
899.153	19723
899.273	19696
899.393	19693
899.513	19788
899.633	19750
899.753	19624
899.873	19632
899.993	19609
900.113	19578
900.232	19613
900.352	19552
900.472	19445
900.591	19373
900.711	19506
900.83	19381
900.95	19529
901.069	19491
901.189	19289
901.308	19061
901.427	19027
901.546	18985
901.665	18985
901.784	19194
901.904	18901
902.023	18787
902.141	18593
902.26	18544
902.379	18597
902.498	18448
902.617	18563
902.735	18715
902.854	18471
902.973	18475
903.091	18190
903.21	18114
903.328	18190
903.446	18045
903.565	18102
903.683	18019
903.801	17939
903.919	17973
904.038	17885
904.156	17741
904.274	17904
904.392	17805
904.51	17722
904.627	17809
904.745	17870
904.863	17904
904.981	17646
905.098	17478
905.216	17570
905.334	17455
905.451	17505
905.569	17448
905.686	17402
905.803	17615
905.921	17197
906.038	17395
906.155	17318
906.272	17200
906.389	17155
906.506	17052
906.623	17102
906.74	16999
906.857	16904
906.974	16968
907.091	17041
907.208	17189
907.324	17090
907.441	16995
907.557	16831
907.674	16778
907.79	16725
907.907	16721
908.023	16771
908.139	16721
908.256	16668
908.372	16615
908.488	16618
908.604	16641
908.72	16462
908.836	16474
908.952	16580
909.068	16428
909.184	16577
909.3	16561
909.415	16462
909.531	16470
909.647	16314
909.762	16211
909.878	16249
909.993	16253
910.108	16253
910.224	16158
910.339	16265
910.454	16067
910.57	16063
910.685	15987
910.8	16207
910.915	16196
911.03	15987
911.145	15953
911.259	15823
911.374	15800
911.489	15865
911.604	15739
911.718	15530
911.833	15644
911.947	15496
912.062	15458
912.176	15572
912.291	15648
912.405	15561
912.519	15812
912.633	15812
912.748	15667
912.862	15633
912.976	15416
913.09	15252
913.204	15374
913.318	15420
913.431	15511
913.545	15370
913.659	15515
913.772	15283
913.886	15268
914	15192
914.113	15230
914.226	15230
914.34	15241
914.453	15039
914.566	15264
914.68	14979
914.793	15062
914.906	14815
915.019	14804
915.132	14708
915.245	14777
915.358	14823
915.47	14819
915.583	14944
915.696	14872
915.809	14982
915.921	14952
916.034	14788
916.146	14712
916.259	14686
916.371	14693
916.483	14743
916.595	14648
916.708	14701
916.82	14785
916.932	14621
917.044	14667
917.156	14556
917.268	14450
917.38	14514
917.491	14492
917.603	14389
917.715	14484
917.826	14590
917.938	14518
918.049	14320
918.161	14495
918.272	14610
918.384	14564
918.495	14450
918.606	14252
918.717	14195
918.828	14218
918.939	14271
919.05	14027
919.161	14130
919.272	13982
919.383	14161
919.494	14237
919.604	14499
919.715	14313
919.826	14161
919.936	14286
920.047	14317
920.157	14237
920.267	14400
920.378	14195
920.488	14256
920.598	14343
920.708	14488
920.818	14415
920.928	14317
921.038	14503
921.148	14381
921.258	14202
921.368	14077
921.477	13936
921.587	13902
921.697	13883
921.806	13989
921.916	13833
922.025	13670
922.134	13552
922.244	13658
922.353	13605
922.462	13445
922.571	13445
922.68	13285
922.789	13236
922.898	13221
923.007	13209
923.116	13320
923.224	13160
923.333	13107
923.442	13137
923.55	13053
923.659	13034
923.767	13156
923.876	13015
923.984	13133
924.092	12970
924.201	12989
924.309	12993
924.417	13008
924.525	12989
924.633	12958
924.741	13799
924.849	12681
924.956	12909
925.064	12707
925.172	12639
925.279	12669
925.387	12745
925.494	12631
925.602	12875
925.709	12719
925.816	12578
925.924	12707
926.031	12715
926.138	12635
926.245	12688
926.352	12563
926.459	12722
926.566	12741
926.673	12525
926.779	12456
926.886	12490
926.993	12350
927.099	12243
927.206	12281
927.312	12167
927.419	12262
927.525	12148
927.631	12311
927.737	12121
927.843	12117
927.95	12007
928.056	12038
928.162	12167
928.267	12167
928.373	12673
928.479	12140
928.585	11889
928.69	12041
928.796	12049
928.901	12083
929.007	11790
929.112	12011
929.218	11980
929.323	11783
929.428	11790
929.533	12011
929.638	11741
929.743	11779
929.848	11878
929.953	11813
930.058	11691
930.163	11501
930.267	11524
930.372	11646
930.477	11524
930.581	11630
930.685	11459
930.79	11452
930.894	11372
930.998	11425
931.103	11524
931.207	11197
931.311	11071
931.415	11018
931.519	10835
931.623	10702
