Data from test_V78500241_493.txt Node
Date: Fri Mar 25 15:13:17 CST 2022
User: usil
Spectrometer: V785-0024
Trigger mode: 0
Integration Time (sec): 4.000000E-1
Scans to average: 1
Nonlinearity correction enabled: false
Boxcar width: 0
Storing dark spectrum: false
XAxis mode: Wavelengths
Number of Pixels in Spectrum: 1024
>>>>>Begin Spectral Data<<<<<
801.071	27583
801.214	27549
801.356	27230
801.499	27336
801.641	27131
801.783	26982
801.926	27218
802.068	27074
802.211	26929
802.353	26918
802.496	26819
802.638	26845
802.78	26674
802.923	26648
803.065	26708
803.208	26708
803.35	26686
803.492	26895
803.635	26876
803.777	26762
803.919	26800
804.061	27150
804.204	26701
804.346	26819
804.488	26792
804.63	26849
804.773	26701
804.915	26868
805.057	26979
805.199	26872
805.341	26842
805.483	26994
805.626	27009
805.768	26906
805.91	26948
806.052	26975
806.194	26914
806.336	27009
806.478	27001
806.62	27028
806.762	27150
806.904	27165
807.046	27458
807.188	27488
807.33	27431
807.472	27496
807.614	27367
807.756	27408
807.898	27218
808.04	27241
808.182	27291
808.324	27344
808.465	27351
808.607	27424
808.749	27557
808.891	27682
809.033	27743
809.174	27755
809.316	27561
809.458	27644
809.6	27549
809.741	27838
809.883	27675
810.025	27888
810.166	27895
810.308	27797
810.45	27835
810.591	27785
810.733	27648
810.875	27447
811.016	27538
811.158	27545
811.299	27690
811.441	27918
811.582	27732
811.724	27614
811.865	27637
812.007	27637
812.148	27496
812.29	27652
812.431	27690
812.573	28006
812.714	28029
812.855	27991
812.997	28158
813.138	28341
813.279	28280
813.421	28166
813.562	28097
813.703	28010
813.845	27949
813.986	27515
814.127	27374
814.268	27264
814.41	27397
814.551	27241
814.692	27272
814.833	27161
814.974	27272
815.115	27287
815.256	27089
815.397	27119
815.539	27287
815.68	27077
815.821	27036
815.962	27195
816.103	27161
816.244	27039
816.385	26830
816.526	26773
816.666	26765
816.807	26667
816.948	26587
817.089	26720
817.23	26785
817.371	26720
817.512	26453
817.653	26541
817.793	26552
817.934	26484
818.075	26663
818.216	26480
818.356	26590
818.497	26545
818.638	26324
818.778	26336
818.919	26396
819.06	26434
819.2	26434
819.341	26560
819.481	26518
819.622	26644
819.762	26849
819.903	26788
820.043	26804
820.184	26667
820.324	26678
820.465	26807
820.605	26773
820.746	26705
820.886	26587
821.026	26686
821.167	26682
821.307	26731
821.447	26659
821.588	26495
821.728	26484
821.868	26244
822.008	26115
822.149	25997
822.289	25989
822.429	25921
822.569	25719
822.709	25738
822.849	25552
822.99	25533
823.13	25335
823.27	25544
823.41	25350
823.55	25213
823.69	25320
823.83	25274
823.97	25316
824.11	25274
824.25	25190
824.389	25080
824.529	25285
824.669	25209
824.809	25274
824.949	25198
825.089	25225
825.228	25247
825.368	25065
825.508	25076
825.648	25057
825.787	25004
825.927	25038
826.067	25023
826.206	25034
826.346	25091
826.485	25221
826.625	24935
826.765	25164
826.904	25148
827.044	24817
827.183	24821
827.323	24783
827.462	24867
827.601	24859
827.741	24696
827.88	24654
828.02	24688
828.159	24654
828.298	24783
828.437	24825
828.577	24681
828.716	24852
828.855	24711
828.994	24582
829.134	24544
829.273	24475
829.412	24426
829.551	24410
829.69	24448
829.829	24483
829.968	24585
830.107	24494
830.246	24452
830.385	24361
830.524	24289
830.663	24346
830.802	24163
830.941	23961
831.08	23992
831.219	24235
831.357	24030
831.496	24273
831.635	24068
831.774	24038
831.913	23893
832.051	23859
832.19	23824
832.329	23996
832.467	23779
832.606	23684
832.744	23752
832.883	23764
833.022	23684
833.16	23771
833.299	23813
833.437	23855
833.576	23870
833.714	23859
833.852	23870
833.991	23859
834.129	23855
834.267	23889
834.406	23878
834.544	23855
834.682	24041
834.821	23828
834.959	24030
835.097	23840
835.235	23950
835.373	23809
835.511	23767
835.65	23657
835.788	23585
835.926	23585
836.064	23474
836.202	23592
836.34	23710
836.478	23832
836.615	23745
836.753	23592
836.891	23726
837.029	23752
837.167	23630
837.305	23570
837.443	23558
837.58	23581
837.718	23611
837.856	23661
837.993	23512
838.131	23471
838.269	23395
838.406	23391
838.544	23326
838.681	23261
838.819	22984
838.956	22972
839.094	22949
839.231	23052
839.369	23170
839.506	23353
839.643	23166
839.781	22965
839.918	23010
840.055	22835
840.193	23006
840.33	22862
840.467	22911
840.604	22980
840.742	23356
840.879	22866
841.016	22877
841.153	22862
841.29	22987
841.427	22877
841.564	22923
841.701	22866
841.838	22938
841.975	22778
842.112	22866
842.249	22702
842.385	22618
842.522	22824
842.659	22736
842.796	22656
842.933	22748
843.069	22607
843.206	22687
843.343	22752
843.479	22767
843.616	22634
843.752	22512
843.889	22443
844.025	22649
844.162	22462
844.298	22565
844.435	22455
844.571	22459
844.708	22577
844.844	22713
844.98	22485
845.117	22512
845.253	22402
845.389	22322
845.525	22352
845.661	22257
845.798	22173
845.934	22246
846.07	22238
846.206	22150
846.342	22310
846.478	22249
846.614	22002
846.75	21998
846.886	22013
847.022	22032
847.158	21861
847.294	21884
847.429	21922
847.565	21842
847.701	22135
847.837	21739
847.972	21614
848.108	21831
848.244	21743
848.379	21747
848.515	21629
848.65	21496
848.786	21538
848.921	21477
849.057	21633
849.192	21553
849.328	21557
849.463	21561
849.598	21466
849.734	21424
849.869	21393
850.004	21279
850.14	21428
850.275	21310
850.41	21348
850.545	21287
850.68	21184
850.815	21370
850.95	21344
851.085	21443
851.22	21302
851.355	21249
851.49	21272
851.625	21336
851.76	21306
851.895	21329
852.03	21207
852.165	21264
852.299	21344
852.434	21386
852.569	21351
852.703	21306
852.838	21488
852.973	21401
853.107	21488
853.242	21389
853.376	21192
853.511	20971
853.645	21104
853.78	21226
853.914	21222
854.048	21070
854.183	21070
854.317	21085
854.451	21336
854.585	21093
854.72	21020
854.854	21184
854.988	20986
855.122	21112
855.256	20921
855.39	21001
855.524	21226
855.658	21036
855.792	21131
855.926	21214
856.06	21119
856.194	21169
856.327	21055
856.461	21119
856.595	21104
856.729	21161
856.862	21184
856.996	21127
857.13	21169
857.263	21264
857.397	21291
857.53	21176
857.664	21074
857.797	21184
857.931	21291
858.064	21211
858.197	21135
858.331	21036
858.464	21096
858.597	21005
858.731	21108
858.864	21009
858.997	21066
859.13	21093
859.263	21104
859.396	21199
859.529	21108
859.662	21116
859.795	21142
859.928	21089
860.061	21180
860.194	21340
860.327	21131
860.46	21169
860.592	21207
860.725	21306
860.858	21302
860.99	21085
861.123	21032
861.256	20933
861.388	21279
861.521	21842
861.653	21020
861.786	20887
861.918	20868
862.05	20967
862.183	21070
862.315	21043
862.447	21108
862.58	21009
862.712	20910
862.844	20746
862.976	20857
863.108	20883
863.24	21123
863.372	20777
863.504	20891
863.636	20823
863.768	20834
863.9	20845
864.032	20735
864.164	20758
864.296	20899
864.428	20937
864.559	20781
864.691	20872
864.823	20815
864.954	20758
865.086	20659
865.217	20773
865.349	20648
865.48	20716
865.612	20720
865.743	20792
865.875	20750
866.006	20777
866.137	20651
866.269	20743
866.4	20621
866.531	20697
866.662	20625
866.793	20644
866.924	20731
867.055	20739
867.186	20655
867.317	20602
867.448	20617
867.579	20629
867.71	20545
867.841	20522
867.972	20644
868.103	20606
868.233	20670
868.364	20621
868.495	20640
868.625	20937
868.756	20876
868.886	20868
869.017	20845
869.147	21024
869.278	21043
869.408	20914
869.539	20967
869.669	21058
869.799	20948
869.929	21135
870.06	20986
870.19	21199
870.32	21199
870.45	21214
870.58	21298
870.71	21389
870.84	21363
870.97	21363
871.1	21355
871.23	21416
871.36	21519
871.489	21496
871.619	21447
871.749	21370
871.879	21572
872.008	21660
872.138	21492
872.267	21416
872.397	21431
872.526	21302
872.656	21241
872.785	21439
872.915	21488
873.044	21644
873.173	21485
873.303	21633
873.432	21519
873.561	21519
873.69	21538
873.819	21561
873.948	21694
874.077	21545
874.206	21561
874.335	21485
874.464	21637
874.593	21766
874.722	21686
874.851	21686
874.979	21903
875.108	21728
875.237	21838
875.365	21587
875.494	21705
875.623	21732
875.751	21789
875.88	21797
876.008	21800
876.136	21918
876.265	22124
876.393	22249
876.521	22230
876.65	22246
876.778	22131
876.906	22181
877.034	22032
877.162	22036
877.29	21930
877.418	22086
877.546	22048
877.674	22131
877.802	22185
877.93	22112
878.058	22063
878.185	22109
878.313	22097
878.441	22181
878.568	21918
878.696	21994
878.824	22109
878.951	22287
879.079	22303
879.206	22497
879.333	22344
879.461	22166
879.588	22226
879.715	22382
879.842	22428
879.97	22128
880.097	21903
880.224	21953
880.351	22040
880.478	21892
880.605	21857
880.732	21922
880.859	22112
880.986	21953
881.112	21888
881.239	21770
881.366	21633
881.493	21629
881.619	21492
881.746	21545
881.872	21481
881.999	21629
882.125	21408
882.252	21580
882.378	21523
882.505	21595
882.631	21348
882.757	21146
882.883	21207
883.01	21188
883.136	21279
883.262	21043
883.388	20941
883.514	21138
883.64	21154
883.766	21066
883.892	20895
884.018	21074
884.143	21093
884.269	21256
884.395	21001
884.52	20876
884.646	20929
884.772	20773
884.897	20720
885.023	20876
885.148	20918
885.274	20986
885.399	20963
885.524	20883
885.65	20933
885.775	20914
885.9	20849
886.025	20967
886.15	20899
886.275	20727
886.4	20731
886.525	20781
886.65	20861
886.775	20758
886.9	20967
887.025	21009
887.149	20826
887.274	20556
887.399	20800
887.523	20655
887.648	20556
887.773	20522
887.897	20659
888.021	20651
888.146	20552
888.27	20724
888.395	20674
888.519	20625
888.643	20564
888.767	20617
888.891	20579
889.015	20377
889.139	20492
889.263	20317
889.387	20552
889.511	20629
889.635	20648
889.759	20488
889.883	20434
890.006	20434
890.13	20488
890.254	20305
890.377	20457
890.501	20191
890.624	20138
890.748	20237
890.871	20122
890.995	19978
891.118	19940
891.241	19959
891.364	20077
891.488	20065
891.611	20027
891.734	20115
891.857	19959
891.98	20168
892.103	19982
892.226	19993
892.349	20054
892.471	19780
892.594	19928
892.717	19974
892.839	19982
892.962	19986
893.085	20043
893.207	20024
893.33	19879
893.452	19788
893.575	19925
893.697	19883
893.819	20103
893.941	20077
894.064	20115
894.186	19814
894.308	19852
894.43	19898
894.552	20199
894.674	20054
894.796	19898
894.918	19921
895.04	19856
895.161	20081
895.283	20024
895.405	19845
895.526	19909
895.648	19921
895.769	19898
895.891	19940
896.012	19913
896.134	19986
896.255	20012
896.376	19989
896.498	19894
896.619	19982
896.74	19890
896.861	20069
896.982	20347
897.103	20259
897.224	20115
897.345	20092
897.466	20092
897.587	20168
897.708	20229
897.828	20290
897.949	20103
898.07	19967
898.19	19986
898.311	20122
898.431	20142
898.552	20122
898.672	20138
898.792	20256
898.913	20240
899.033	19982
899.153	19989
899.273	19788
899.393	19936
899.513	20035
899.633	19837
899.753	19986
899.873	19894
899.993	19883
900.113	19864
900.232	19917
900.352	19795
900.472	19757
900.591	19586
900.711	19807
900.83	19666
900.95	19864
901.069	19795
901.189	19453
901.308	19312
901.427	19187
901.546	19225
901.665	19278
901.784	19206
901.904	19129
902.023	19046
902.141	18951
902.26	18795
902.379	18882
902.498	18719
902.617	18817
902.735	18795
902.854	18707
902.973	18635
903.091	18612
903.21	18456
903.328	18441
903.446	18346
903.565	18308
903.683	18159
903.801	18087
903.919	18273
904.038	18125
904.156	18022
904.274	18129
904.392	17870
904.51	18053
904.627	18019
904.745	18057
904.863	18011
904.981	17809
905.098	17836
905.216	17577
905.334	17703
905.451	17710
905.569	17714
905.686	17790
905.803	17676
905.921	17581
906.038	17695
906.155	17486
906.272	17425
906.389	17398
906.506	17231
906.623	17246
906.74	17269
906.857	17102
906.974	17136
907.091	17250
907.208	17318
907.324	17322
907.441	17022
907.557	16900
907.674	16999
907.79	16961
907.907	16908
908.023	17010
908.139	16934
908.256	16968
908.372	16816
908.488	16866
908.604	16725
908.72	16691
908.836	16637
908.952	16694
909.068	16755
909.184	16847
909.3	16687
909.415	16713
909.531	16656
909.647	16455
909.762	16325
909.878	16394
909.993	16440
910.108	16276
910.224	16348
910.339	16436
910.454	16261
910.57	16192
910.685	16204
910.8	16409
910.915	16352
911.03	16200
911.145	16025
911.259	15953
911.374	16010
911.489	15930
911.604	15907
911.718	15629
911.833	15720
911.947	15591
912.062	15534
912.176	15705
912.291	15747
912.405	15671
912.519	15895
912.633	15854
912.748	15804
912.862	15751
912.976	15622
913.09	15462
913.204	15538
913.318	15652
913.431	15728
913.545	15656
913.659	15644
913.772	15374
913.886	15416
914	15382
914.113	15405
914.226	15488
914.34	15329
914.453	15306
914.566	15344
914.68	15268
914.793	15218
914.906	15024
915.019	14960
915.132	14891
915.245	14933
915.358	14963
915.47	14967
915.583	14929
915.696	15085
915.809	15074
915.921	15176
916.034	14937
916.146	14902
916.259	14857
916.371	14948
916.483	14899
916.595	14727
916.708	14880
916.82	14845
916.932	14762
917.044	14796
917.156	14617
917.268	14670
917.38	14674
917.491	14587
917.603	14674
917.715	14735
917.826	14682
917.938	14530
918.049	14492
918.161	14522
918.272	14621
918.384	14682
918.495	14503
918.606	14514
918.717	14343
918.828	14374
918.939	14381
919.05	14324
919.161	14427
919.272	14259
919.383	14278
919.494	14450
919.604	14571
919.715	14336
919.826	14294
919.936	14324
920.047	14454
920.157	14275
920.267	14556
920.378	14225
920.488	14320
920.598	14419
920.708	14701
920.818	14457
920.928	14476
921.038	14663
921.148	14564
921.258	14305
921.368	14225
921.477	14164
921.587	14062
921.697	13986
921.806	14077
921.916	13898
922.025	13837
922.134	13761
922.244	13655
922.353	13727
922.462	13715
922.571	13586
922.68	13384
922.789	13422
922.898	13480
923.007	13320
923.116	13369
923.224	13384
923.333	13343
923.442	13285
923.55	13202
923.659	13282
923.767	13278
923.876	13141
923.984	13232
924.092	13190
924.201	13213
924.309	13152
924.417	13107
924.525	13023
924.633	13050
924.741	13776
924.849	12829
924.956	12973
925.064	12798
925.172	12776
925.279	12837
925.387	12787
925.494	12833
925.602	12901
925.709	12939
925.816	12722
925.924	12738
926.031	12981
926.138	12772
926.245	12730
926.352	12604
926.459	12738
926.566	12795
926.673	12654
926.779	12639
926.886	12509
926.993	12391
927.099	12353
927.206	12300
927.312	12277
927.419	12422
927.525	12361
927.631	12437
927.737	12319
927.843	12262
927.95	12163
928.056	12201
928.162	12251
928.267	12224
928.373	12783
928.479	12201
928.585	11996
928.69	12102
928.796	12201
928.901	12144
929.007	11958
929.112	12140
929.218	12026
929.323	11973
929.428	11939
929.533	12106
929.638	11889
929.743	11897
929.848	11916
929.953	11935
930.058	11779
930.163	11592
930.267	11657
930.372	11726
930.477	11592
930.581	11809
930.685	11680
930.79	11501
930.894	11505
930.998	11501
931.103	11547
931.207	11273
931.311	11128
931.415	11075
931.519	10885
931.623	10908
