Data from test_V78500241_1796.txt Node
Date: Fri Mar 25 15:22:21 CST 2022
User: usil
Spectrometer: V785-0024
Trigger mode: 0
Integration Time (sec): 4.000000E-1
Scans to average: 1
Nonlinearity correction enabled: false
Boxcar width: 0
Storing dark spectrum: false
XAxis mode: Wavelengths
Number of Pixels in Spectrum: 1024
>>>>>Begin Spectral Data<<<<<
801.071	27842
801.214	27705
801.356	27549
801.499	27488
801.641	27310
801.783	27397
801.926	27393
802.068	27477
802.211	27325
802.353	27222
802.496	27123
802.638	27013
802.78	27013
802.923	27036
803.065	26975
803.208	26979
803.35	27074
803.492	27165
803.635	27272
803.777	27119
803.919	27275
804.061	27603
804.204	27226
804.346	27123
804.488	27188
804.63	27180
804.773	27279
804.915	27203
805.057	27275
805.199	27180
805.341	27344
805.483	27195
805.626	27306
805.768	27203
805.91	27336
806.052	27313
806.194	27256
806.336	27542
806.478	27340
806.62	27374
806.762	27454
806.904	27568
807.046	27831
807.188	27819
807.33	27827
807.472	27701
807.614	27797
807.756	27739
807.898	27603
808.04	27583
808.182	27595
808.324	27755
808.465	27682
808.607	27895
808.749	28063
808.891	28154
809.033	28059
809.174	28048
809.316	27892
809.458	27937
809.6	28078
809.741	28006
809.883	28101
810.025	28246
810.166	28219
810.308	28234
810.45	28234
810.591	28150
810.733	27979
810.875	28082
811.016	27907
811.158	27873
811.299	27918
811.441	28112
811.582	28196
811.724	28051
811.865	27949
812.007	27991
812.148	27941
812.29	27728
812.431	28090
812.573	28223
812.714	28356
812.855	28440
812.997	28485
813.138	28611
813.279	28535
813.421	28599
813.562	28443
813.703	28306
813.845	28070
813.986	27838
814.127	27827
814.268	27515
814.41	27629
814.551	27720
814.692	27667
814.833	27587
814.974	27686
815.115	27667
815.256	27561
815.397	27648
815.539	27610
815.68	27515
815.821	27492
815.962	27439
816.103	27420
816.244	27283
816.385	27329
816.526	27233
816.666	27058
816.807	27089
816.948	27036
817.089	27032
817.23	26948
817.371	26952
817.512	26872
817.653	26899
817.793	26765
817.934	26971
818.075	27020
818.216	27028
818.356	26902
818.497	26853
818.638	26625
818.778	26663
818.919	26735
819.06	26746
819.2	26956
819.341	26971
819.481	26872
819.622	27070
819.762	27287
819.903	27108
820.043	27161
820.184	27032
820.324	26990
820.465	27009
820.605	27077
820.746	27020
820.886	27051
821.026	27036
821.167	27005
821.307	27032
821.447	26857
821.588	27017
821.728	26800
821.868	26674
822.008	26522
822.149	26480
822.289	26385
822.429	26180
822.569	26157
822.709	26103
822.849	26081
822.99	25951
823.13	25936
823.27	26142
823.41	25666
823.55	25685
823.69	25822
823.83	25708
823.97	25704
824.11	25559
824.25	25468
824.389	25624
824.529	25731
824.669	25609
824.809	25746
824.949	25753
825.089	25624
825.228	25499
825.368	25464
825.508	25350
825.648	25559
825.787	25575
825.927	25453
826.067	25472
826.206	25533
826.346	25499
826.485	25552
826.625	25438
826.765	25533
826.904	25506
827.044	25392
827.183	25206
827.323	25129
827.462	25362
827.601	25137
827.741	25168
827.88	25251
828.02	25129
828.159	25198
828.298	25304
828.437	25304
828.577	25122
828.716	25217
828.855	25164
828.994	24954
829.134	24863
829.273	24894
829.412	24764
829.551	24764
829.69	24886
829.829	24947
829.968	24966
830.107	24916
830.246	24852
830.385	24852
830.524	24787
830.663	24654
830.802	24749
830.941	24460
831.08	24418
831.219	24502
831.357	24582
831.496	24700
831.635	24589
831.774	24578
831.913	24456
832.051	24311
832.19	24384
832.329	24270
832.467	24216
832.606	24194
832.744	24167
832.883	24140
833.022	24125
833.16	24277
833.299	24197
833.437	24186
833.576	24129
833.714	24247
833.852	24350
833.991	24277
834.129	24300
834.267	24140
834.406	24213
834.544	24380
834.682	24136
834.821	24289
834.959	24300
835.097	24254
835.235	24163
835.373	24292
835.511	24270
835.65	24213
835.788	24155
835.926	23954
836.064	23897
836.202	23798
836.34	24007
836.478	24087
836.615	24015
836.753	24171
836.891	24194
837.029	24060
837.167	24049
837.305	24026
837.443	23999
837.58	23931
837.718	24018
837.856	23988
837.993	24007
838.131	23908
838.269	23870
838.406	23847
838.544	23767
838.681	23646
838.819	23615
838.956	23463
839.094	23330
839.231	23448
839.369	23608
839.506	23790
839.643	23722
839.781	23455
839.918	23261
840.055	23433
840.193	23417
840.33	23258
840.467	23265
840.604	23395
840.742	23463
840.879	23132
841.016	23235
841.153	23299
841.29	23334
841.427	23299
841.564	23395
841.701	23372
841.838	23200
841.975	23147
842.112	23250
842.249	23231
842.385	23208
842.522	23387
842.659	23083
842.796	23143
842.933	23083
843.069	23143
843.206	22930
843.343	23220
843.479	23003
843.616	22942
843.752	22809
843.889	22934
844.025	22991
844.162	22869
844.298	22927
844.435	22816
844.571	22797
844.708	22923
844.844	23098
844.98	22930
845.117	22869
845.253	22691
845.389	22797
845.525	22805
845.661	22675
845.798	22516
845.934	22603
846.07	22481
846.206	22557
846.342	22698
846.478	22516
846.614	22417
846.75	22405
846.886	22303
847.022	22409
847.158	22306
847.294	22417
847.429	22367
847.565	22306
847.701	22656
847.837	22067
847.972	22112
848.108	22196
848.244	22253
848.379	21979
848.515	22025
848.65	21774
848.786	21911
848.921	21915
849.057	22067
849.192	22116
849.328	22051
849.463	21880
849.598	21781
849.734	21842
849.869	21831
850.004	21785
850.14	21698
850.275	21755
850.41	21629
850.545	21545
850.68	21644
850.815	21720
850.95	21622
851.085	21835
851.22	21800
851.355	21762
851.49	21690
851.625	21610
851.76	21610
851.895	21534
852.03	21515
852.165	21637
852.299	21686
852.434	21732
852.569	21656
852.703	21774
852.838	21797
852.973	21804
853.107	21934
853.242	21599
853.376	21507
853.511	21386
853.645	21389
853.78	21507
853.914	21549
854.048	21382
854.183	21386
854.317	21603
854.451	21564
854.585	21599
854.72	21507
854.854	21507
854.988	21420
855.122	21466
855.256	21310
855.39	21557
855.524	21583
855.658	21576
855.792	21538
855.926	21401
856.06	21492
856.194	21595
856.327	21523
856.461	21511
856.595	21405
856.729	21492
856.862	21625
856.996	21477
857.13	21526
857.263	21511
857.397	21603
857.53	21401
857.664	21519
857.797	21515
857.931	21599
858.064	21511
858.197	21523
858.331	21405
858.464	21447
858.597	21336
858.731	21492
858.864	21481
858.997	21447
859.13	21523
859.263	21587
859.396	21542
859.529	21485
859.662	21477
859.795	21359
859.928	21450
860.061	21660
860.194	21667
860.327	21587
860.46	21542
860.592	21629
860.725	21720
860.858	21610
860.99	21477
861.123	21477
861.256	21378
861.388	21553
861.521	22051
861.653	21340
861.786	21386
861.918	21332
862.05	21283
862.183	21401
862.315	21530
862.447	21504
862.58	21431
862.712	21241
862.844	21226
862.976	21237
863.108	21275
863.24	21690
863.372	21062
863.504	21180
863.636	21256
863.768	21218
863.9	21310
864.032	21116
864.164	21127
864.296	21355
864.428	21264
864.559	21283
864.691	21283
864.823	21302
864.954	21203
865.086	21226
865.217	21184
865.349	21039
865.48	21104
865.612	21043
865.743	21245
865.875	21192
866.006	21108
866.137	21116
866.269	21112
866.4	21104
866.531	20948
866.662	21047
866.793	21074
866.924	21100
867.055	21047
867.186	21017
867.317	21074
867.448	20815
867.579	20990
867.71	20891
867.841	20933
867.972	21032
868.103	21093
868.233	20952
868.364	21043
868.495	21214
868.625	21230
868.756	21443
868.886	21272
869.017	21351
869.147	21469
869.278	21332
869.408	21351
869.539	21302
869.669	21214
869.799	21313
869.929	21473
870.06	21389
870.19	21564
870.32	21553
870.45	21637
870.58	21610
870.71	21819
870.84	21827
870.97	21660
871.1	21728
871.23	21911
871.36	21895
871.489	21762
871.619	21789
871.749	21842
871.879	22006
872.008	21918
872.138	21869
872.267	21850
872.397	21842
872.526	21690
872.656	21694
872.785	21781
872.915	21918
873.044	21964
873.173	21838
873.303	22032
873.432	21934
873.561	21991
873.69	21953
873.819	21827
873.948	21987
874.077	21956
874.206	21762
874.335	21876
874.464	21953
874.593	22044
874.722	21972
874.851	22162
874.979	22097
875.108	22116
875.237	22112
875.365	21926
875.494	22204
875.623	22154
875.751	21979
875.88	22265
876.008	22211
876.136	22348
876.265	22611
876.393	22508
876.521	22516
876.65	22504
876.778	22577
876.906	22363
877.034	22550
877.162	22535
877.29	22485
877.418	22527
877.546	22485
877.674	22554
877.802	22432
877.93	22363
878.058	22329
878.185	22443
878.313	22394
878.441	22402
878.568	22261
878.696	22341
878.824	22413
878.951	22535
879.079	22622
879.206	22767
879.333	22573
879.461	22493
879.588	22607
879.715	22740
879.842	22717
879.97	22527
880.097	22265
880.224	22223
880.351	22341
880.478	22207
880.605	22234
880.732	22280
880.859	22428
880.986	22405
881.112	22314
881.239	22211
881.366	21899
881.493	22010
881.619	21960
881.746	21915
881.872	21926
881.999	21812
882.125	21743
882.252	21838
882.378	21838
882.505	21941
882.631	21804
882.757	21682
882.883	21667
883.01	21599
883.136	21557
883.262	21412
883.388	21298
883.514	21568
883.64	21447
883.766	21447
883.892	21431
884.018	21397
884.143	21515
884.269	21587
884.395	21233
884.52	21188
884.646	21245
884.772	21214
884.897	21192
885.023	21279
885.148	21336
885.274	21306
885.399	21237
885.524	21192
885.65	21344
885.775	21218
885.9	21036
886.025	21306
886.15	21382
886.275	21108
886.4	21070
886.525	21154
886.65	21142
886.775	21020
886.9	21317
887.025	21340
887.149	21104
887.274	21009
887.399	21005
887.523	20895
887.648	20979
887.773	20807
887.897	21104
888.021	21009
888.146	20929
888.27	21009
888.395	21043
888.519	21093
888.643	21024
888.767	20971
888.891	20891
889.015	20727
889.139	20777
889.263	20712
889.387	20967
889.511	21024
889.635	20880
889.759	20765
889.883	20731
890.006	20811
890.13	20902
890.254	20739
890.377	20735
890.501	20659
890.624	20514
890.748	20617
890.871	20396
890.995	20358
891.118	20278
891.241	20301
891.364	20358
891.488	20461
891.611	20298
891.734	20358
891.857	20336
891.98	20415
892.103	20495
892.226	20286
892.349	20180
892.471	20164
892.594	20237
892.717	20324
892.839	20324
892.962	20195
893.085	20336
893.207	20244
893.33	20214
893.452	20210
893.575	20237
893.697	20176
893.819	20328
893.941	20495
894.064	20446
894.186	20168
894.308	20122
894.43	20358
894.552	20259
894.674	20317
894.796	20100
894.918	20214
895.04	20259
895.161	20320
895.283	20187
895.405	20149
895.526	20107
895.648	20180
895.769	20221
895.891	20305
896.012	20252
896.134	20309
896.255	20233
896.376	20149
896.498	20229
896.619	20199
896.74	20332
896.861	20161
896.982	20533
897.103	20651
897.224	20465
897.345	20457
897.466	20537
897.587	20377
897.708	20492
897.828	20507
897.949	20317
898.07	20286
898.19	20305
898.311	20579
898.431	20278
898.552	20415
898.672	20415
898.792	20488
898.913	20366
899.033	20305
899.153	20225
899.273	20107
899.393	20195
899.513	20225
899.633	20176
899.753	20145
899.873	20164
899.993	20206
900.113	20103
900.232	20100
900.352	20065
900.472	20027
900.591	19860
900.711	19940
900.83	19883
900.95	20050
901.069	19967
901.189	19860
901.308	19601
901.427	19559
901.546	19468
901.665	19537
901.784	19499
901.904	19468
902.023	19274
902.141	19141
902.26	19042
902.379	19183
902.498	19080
902.617	18966
902.735	18977
902.854	18947
902.973	19015
903.091	18658
903.21	18658
903.328	18738
903.446	18570
903.565	18521
903.683	18551
903.801	18418
903.919	18506
904.038	18437
904.156	18365
904.274	18441
904.392	18327
904.51	18270
904.627	18277
904.745	18426
904.863	18353
904.981	17961
905.098	18011
905.216	17988
905.334	17920
905.451	17958
905.569	17851
905.686	18003
905.803	17870
905.921	17665
906.038	17832
906.155	17863
906.272	17642
906.389	17703
906.506	17478
906.623	17425
906.74	17592
906.857	17337
906.974	17490
907.091	17676
907.208	17627
907.324	17554
907.441	17395
907.557	17246
907.674	17170
907.79	17162
907.907	17147
908.023	17242
908.139	17223
908.256	17124
908.372	17025
908.488	17151
908.604	17010
908.72	17003
908.836	16850
908.952	16965
909.068	17048
909.184	17014
909.3	16934
909.415	16927
909.531	16965
909.647	16778
909.762	16736
909.878	16656
909.993	16660
910.108	16569
910.224	16573
910.339	16588
910.454	16500
910.57	16421
910.685	16382
910.8	16710
910.915	16660
911.03	16367
911.145	16169
911.259	16188
911.374	16139
911.489	16257
911.604	16090
911.718	16032
911.833	16013
911.947	15797
912.062	15800
912.176	15918
912.291	16025
912.405	16036
912.519	16105
912.633	16131
912.748	16010
912.862	16006
912.976	15751
913.09	15682
913.204	15770
913.318	15827
913.431	15926
913.545	15880
913.659	15899
913.772	15698
913.886	15679
914	15599
914.113	15739
914.226	15698
914.34	15709
914.453	15458
914.566	15584
914.68	15492
914.793	15431
914.906	15287
915.019	15218
915.132	15108
915.245	15085
915.358	15150
915.47	15260
915.583	15150
915.696	15287
915.809	15340
915.921	15386
916.034	15169
916.146	15085
916.259	15131
916.371	15207
916.483	15154
916.595	15024
916.708	15119
916.82	15058
916.932	14937
917.044	14979
917.156	14929
917.268	14739
917.38	14792
917.491	14880
917.603	14891
917.715	14914
917.826	14906
917.938	14807
918.049	14773
918.161	14849
918.272	14914
918.384	14804
918.495	14880
918.606	14659
918.717	14590
918.828	14701
918.939	14602
919.05	14381
919.161	14674
919.272	14374
919.383	14442
919.494	14689
919.604	14815
919.715	14564
919.826	14495
919.936	14450
920.047	14568
920.157	14617
920.267	14716
920.378	14571
920.488	14495
920.598	14598
920.708	14876
920.818	14697
920.928	14758
921.038	14849
921.148	14807
921.258	14431
921.368	14446
921.477	14393
921.587	14218
921.697	14153
921.806	14206
921.916	14142
922.025	13906
922.134	13925
922.244	13906
922.353	13997
922.462	13799
922.571	13681
922.68	13613
922.789	13586
922.898	13578
923.007	13472
923.116	13643
923.224	13514
923.333	13552
923.442	13453
923.55	13403
923.659	13510
923.767	13525
923.876	13362
923.984	13457
924.092	13343
924.201	13365
924.309	13247
924.417	13392
924.525	13251
924.633	13183
924.741	14191
924.849	13091
924.956	13137
925.064	12989
925.172	13000
925.279	12966
925.387	13019
925.494	13099
925.602	13164
925.709	13053
925.816	12913
925.924	12916
926.031	13019
926.138	12981
926.245	12913
926.352	12951
926.459	12852
926.566	13008
926.673	12882
926.779	12696
926.886	12757
926.993	12608
927.099	12582
927.206	12585
927.312	12506
927.419	12608
927.525	12464
927.631	12650
927.737	12456
927.843	12376
927.95	12330
928.056	12350
928.162	12391
928.267	12437
928.373	13012
928.479	12372
928.585	12186
928.69	12391
928.796	12350
928.901	12239
929.007	12197
929.112	12205
929.218	12228
929.323	12110
929.428	12106
929.533	12167
929.638	11965
929.743	12106
929.848	12091
929.953	12041
930.058	11969
930.163	11813
930.267	11798
930.372	11901
930.477	11707
930.581	11999
930.685	11752
930.79	11668
930.894	11680
930.998	11649
931.103	11726
931.207	11455
931.311	11372
931.415	11288
931.519	11090
931.623	11045
