Data from test_V78500241_2520.txt Node
Date: Fri Mar 25 15:27:24 CST 2022
User: usil
Spectrometer: V785-0024
Trigger mode: 0
Integration Time (sec): 4.000000E-1
Scans to average: 1
Nonlinearity correction enabled: false
Boxcar width: 0
Storing dark spectrum: false
XAxis mode: Wavelengths
Number of Pixels in Spectrum: 1024
>>>>>Begin Spectral Data<<<<<
801.071	27104
801.214	27058
801.356	26746
801.499	26670
801.641	26648
801.783	26617
801.926	26800
802.068	26488
802.211	26488
802.353	26495
802.496	26351
802.638	26248
802.78	26206
802.923	26195
803.065	26111
803.208	26240
803.35	26294
803.492	26286
803.635	26587
803.777	26358
803.919	26393
804.061	26777
804.204	26590
804.346	26256
804.488	26313
804.63	26415
804.773	26427
804.915	26415
805.057	26530
805.199	26511
805.341	26434
805.483	26598
805.626	26571
805.768	26457
805.91	26526
806.052	26511
806.194	26438
806.336	26617
806.478	26518
806.62	26522
806.762	26693
806.904	26800
807.046	26990
807.188	26960
807.33	26929
807.472	26998
807.614	26842
807.756	26960
807.898	26948
808.04	26731
808.182	26670
808.324	26777
808.465	26765
808.607	26899
808.749	27093
808.891	27252
809.033	27230
809.174	27161
809.316	27085
809.458	27104
809.6	27096
809.741	27142
809.883	27336
810.025	27416
810.166	27348
810.308	27393
810.45	27264
810.591	27283
810.733	27264
810.875	27203
811.016	26937
811.158	26982
811.299	27268
811.441	27351
811.582	27321
811.724	27116
811.865	27154
812.007	27150
812.148	27150
812.29	26998
812.431	27317
812.573	27389
812.714	27447
812.855	27675
812.997	27656
813.138	27743
813.279	27751
813.421	27652
813.562	27542
813.703	27370
813.845	27241
813.986	26982
814.127	26940
814.268	26712
814.41	26777
814.551	26811
814.692	26872
814.833	26598
814.974	26629
815.115	26830
815.256	26773
815.397	26716
815.539	26727
815.68	26556
815.821	26564
815.962	26537
816.103	26541
816.244	26400
816.385	26427
816.526	26206
816.666	26187
816.807	26035
816.948	25989
817.089	25982
817.23	26073
817.371	26046
817.512	25944
817.653	26092
817.793	25811
817.934	26111
818.075	26005
818.216	26054
818.356	26054
818.497	25925
818.638	25750
818.778	25856
818.919	25837
819.06	25807
819.2	25970
819.341	26065
819.481	25894
819.622	26012
819.762	26377
819.903	26301
820.043	26119
820.184	26176
820.324	26252
820.465	26218
820.605	26069
820.746	25997
820.886	25974
821.026	26035
821.167	25966
821.307	26035
821.447	26092
821.588	25932
821.728	25883
821.868	25685
822.008	25620
822.149	25472
822.289	25411
822.429	25324
822.569	25160
822.709	25164
822.849	25099
822.99	25015
823.13	24928
823.27	25004
823.41	24856
823.55	24772
823.69	24852
823.83	25012
823.97	24741
824.11	24658
824.25	24623
824.389	24551
824.529	24719
824.669	24540
824.809	24764
824.949	24715
825.089	24806
825.228	24681
825.368	24460
825.508	24502
825.648	24471
825.787	24585
825.927	24563
826.067	24441
826.206	24585
826.346	24563
826.485	24608
826.625	24551
826.765	24536
826.904	24525
827.044	24258
827.183	24353
827.323	24323
827.462	24232
827.601	24190
827.741	24205
827.88	24239
828.02	24148
828.159	24178
828.298	24178
828.437	24235
828.577	24129
828.716	24410
828.855	24159
828.994	23996
829.134	23969
829.273	24007
829.412	23885
829.551	23901
829.69	23912
829.829	24167
829.968	24072
830.107	23965
830.246	23969
830.385	23946
830.524	23859
830.663	23786
830.802	23596
830.941	23634
831.08	23551
831.219	23592
831.357	23726
831.496	23767
831.635	23570
831.774	23539
831.913	23436
832.051	23364
832.19	23463
832.329	23444
832.467	23299
832.606	23356
832.744	23181
832.883	23189
833.022	23132
833.16	23303
833.299	23261
833.437	23246
833.576	23337
833.714	23261
833.852	23368
833.991	23379
834.129	23337
834.267	23452
834.406	23360
834.544	23406
834.682	23273
834.821	23356
834.959	23349
835.097	23334
835.235	23383
835.373	23296
835.511	23296
835.65	23117
835.788	23250
835.926	23208
836.064	23003
836.202	22999
836.34	23052
836.478	23200
836.615	23098
836.753	23181
836.891	23220
837.029	23174
837.167	23208
837.305	23113
837.443	23029
837.58	22911
837.718	23094
837.856	23044
837.993	22946
838.131	22923
838.269	23037
838.406	22896
838.544	22797
838.681	22664
838.819	22645
838.956	22481
839.094	22561
839.231	22550
839.369	22805
839.506	22930
839.643	22793
839.781	22535
839.918	22531
840.055	22481
840.193	22489
840.33	22459
840.467	22405
840.604	22489
840.742	22687
840.879	22352
841.016	22371
841.153	22390
841.29	22554
841.427	22329
841.564	22565
841.701	22470
841.838	22379
841.975	22451
842.112	22481
842.249	22379
842.385	22280
842.522	22596
842.659	22310
842.796	22169
842.933	22200
843.069	22223
843.206	22120
843.343	22291
843.479	22177
843.616	22162
843.752	22044
843.889	21953
844.025	22162
844.162	21991
844.298	22044
844.435	22013
844.571	22032
844.708	21994
844.844	22230
844.98	22036
845.117	22143
845.253	21968
845.389	21850
845.525	21793
845.661	21808
845.798	21690
845.934	21675
846.07	21663
846.206	21732
846.342	21899
846.478	21785
846.614	21545
846.75	21473
846.886	21477
847.022	21564
847.158	21481
847.294	21473
847.429	21443
847.565	21420
847.701	21591
847.837	21161
847.972	21051
848.108	21237
848.244	21192
848.379	21203
848.515	21070
848.65	21085
848.786	21020
848.921	20921
849.057	21055
849.192	21093
849.328	21195
849.463	21081
849.598	20834
849.734	20902
849.869	20807
850.004	20925
850.14	20853
850.275	20849
850.41	20655
850.545	20773
850.68	20868
850.815	20990
850.95	20796
851.085	21001
851.22	20880
851.355	20716
851.49	20765
851.625	20777
851.76	20746
851.895	20724
852.03	20758
852.165	20750
852.299	20937
852.434	20899
852.569	20853
852.703	20842
852.838	20921
852.973	21009
853.107	20887
853.242	20849
853.376	20590
853.511	20598
853.645	20602
853.78	20815
853.914	20629
854.048	20644
854.183	20613
854.317	20587
854.451	20811
854.585	20678
854.72	20606
854.854	20739
854.988	20541
855.122	20758
855.256	20522
855.39	20640
855.524	20781
855.658	20556
855.792	20663
855.926	20659
856.06	20617
856.194	20682
856.327	20579
856.461	20667
856.595	20556
856.729	20617
856.862	20788
856.996	20651
857.13	20697
857.263	20826
857.397	20815
857.53	20606
857.664	20648
857.797	20663
857.931	20739
858.064	20644
858.197	20727
858.331	20727
858.464	20602
858.597	20594
858.731	20689
858.864	20438
858.997	20644
859.13	20583
859.263	20667
859.396	20716
859.529	20473
859.662	20556
859.795	20549
859.928	20636
860.061	20796
860.194	20811
860.327	20769
860.46	20743
860.592	20648
860.725	20777
860.858	20731
860.99	20545
861.123	20549
861.256	20632
861.388	20670
861.521	21336
861.653	20587
861.786	20492
861.918	20484
862.05	20549
862.183	20568
862.315	20693
862.447	20655
862.58	20564
862.712	20374
862.844	20366
862.976	20362
863.108	20522
863.24	20823
863.372	20313
863.504	20370
863.636	20355
863.768	20370
863.9	20408
864.032	20362
864.164	20351
864.296	20278
864.428	20396
864.559	20381
864.691	20518
864.823	20404
864.954	20240
865.086	20370
865.217	20336
865.349	20145
865.48	20225
865.612	20111
865.743	20362
865.875	20370
866.006	20290
866.137	20195
866.269	20237
866.4	20256
866.531	20107
866.662	20183
866.793	20195
866.924	20225
867.055	20161
867.186	20298
867.317	20202
867.448	20077
867.579	20161
867.71	20016
867.841	20073
867.972	20191
868.103	20259
868.233	20164
868.364	20195
868.495	20263
868.625	20488
868.756	20537
868.886	20511
869.017	20385
869.147	20450
869.278	20617
869.408	20419
869.539	20355
869.669	20450
869.799	20495
869.929	20625
870.06	20526
870.19	20838
870.32	20701
870.45	20765
870.58	20807
870.71	21020
870.84	21047
870.97	20876
871.1	20800
871.23	20956
871.36	21070
871.489	20941
871.619	21062
871.749	21051
871.879	21058
872.008	21131
872.138	21009
872.267	21039
872.397	20830
872.526	20880
872.656	20895
872.785	20842
872.915	21116
873.044	21116
873.173	21192
873.303	21062
873.432	21184
873.561	21214
873.69	21150
873.819	21028
873.948	21119
874.077	21123
874.206	21096
874.335	21096
874.464	21207
874.593	21252
874.722	21218
874.851	21416
874.979	21416
875.108	21370
875.237	21367
875.365	21142
875.494	21283
875.623	21408
875.751	21199
875.88	21332
876.008	21458
876.136	21545
876.265	21724
876.393	21778
876.521	21766
876.65	21808
876.778	21808
876.906	21766
877.034	21538
877.162	21564
877.29	21686
877.418	21770
877.546	21656
877.674	21709
877.802	21583
877.93	21618
878.058	21705
878.185	21504
878.313	21545
878.441	21671
878.568	21663
878.696	21622
878.824	21770
878.951	21694
879.079	21827
879.206	21918
879.333	21819
879.461	21751
879.588	21762
879.715	21911
879.842	22070
879.97	21686
880.097	21496
880.224	21443
880.351	21542
880.478	21542
880.605	21504
880.732	21473
880.859	21755
880.986	21466
881.112	21534
881.239	21359
881.366	21340
881.493	21241
881.619	21104
881.746	21176
881.872	21146
881.999	20994
882.125	20937
882.252	21081
882.378	21062
882.505	21218
882.631	21047
882.757	20769
882.883	20864
883.01	20746
883.136	20811
883.262	20609
883.388	20575
883.514	20830
883.64	20857
883.766	20724
883.892	20469
884.018	20632
884.143	20670
884.269	20872
884.395	20393
884.52	20511
884.646	20507
884.772	20305
884.897	20457
885.023	20328
885.148	20514
885.274	20655
885.399	20495
885.524	20454
885.65	20427
885.775	20507
885.9	20507
886.025	20514
886.15	20579
886.275	20465
886.4	20442
886.525	20415
886.65	20290
886.775	20408
886.9	20629
887.025	20644
887.149	20423
887.274	20153
887.399	20183
887.523	20221
887.648	20134
887.773	20138
887.897	20191
888.021	20221
888.146	20172
888.27	20183
888.395	20225
888.519	20282
888.643	20237
888.767	20271
888.891	20153
889.015	20096
889.139	20043
889.263	19940
889.387	20161
889.511	20225
889.635	20016
889.759	20001
889.883	19993
890.006	20069
890.13	20168
890.254	19909
890.377	19822
890.501	19856
890.624	19822
890.748	19875
890.871	19681
890.995	19643
891.118	19495
891.241	19578
891.364	19662
891.488	19700
891.611	19571
891.734	19609
891.857	19632
891.98	19685
892.103	19719
892.226	19605
892.349	19483
892.471	19339
892.594	19468
892.717	19510
892.839	19556
892.962	19537
893.085	19575
893.207	19510
893.33	19358
893.452	19457
893.575	19529
893.697	19384
893.819	19712
893.941	19586
894.064	19666
894.186	19491
894.308	19510
894.43	19662
894.552	19712
894.674	19537
894.796	19453
894.918	19544
895.04	19544
895.161	19552
895.283	19620
895.405	19274
895.526	19521
895.648	19552
895.769	19521
895.891	19544
896.012	19605
896.134	19601
896.255	19556
896.376	19620
896.498	19514
896.619	19537
896.74	19616
896.861	19537
896.982	19879
897.103	19970
897.224	19841
897.345	19643
897.466	19658
897.587	19757
897.708	19887
897.828	19833
897.949	19658
898.07	19483
898.19	19685
898.311	19757
898.431	19582
898.552	19715
898.672	19849
898.792	19818
898.913	19738
899.033	19677
899.153	19601
899.273	19449
899.393	19571
899.513	19567
899.633	19586
899.753	19578
899.873	19369
899.993	19502
900.113	19487
900.232	19514
900.352	19400
900.472	19327
900.591	19293
900.711	19377
900.83	19168
900.95	19438
901.069	19438
901.189	19304
901.308	18935
901.427	18814
901.546	18882
901.665	18829
901.784	18791
901.904	18753
902.023	18776
902.141	18502
902.26	18388
902.379	18486
902.498	18380
902.617	18391
902.735	18441
902.854	18384
902.973	18251
903.091	18019
903.21	18068
903.328	17958
903.446	17961
903.565	17843
903.683	17950
903.801	17798
903.919	17847
904.038	17931
904.156	17638
904.274	17722
904.392	17558
904.51	17615
904.627	17661
904.745	17653
904.863	17619
904.981	17433
905.098	17337
905.216	17322
905.334	17486
905.451	17364
905.569	17242
905.686	17376
905.803	17288
905.921	17197
906.038	17143
906.155	17208
906.272	16892
906.389	16968
906.506	16999
906.623	16835
906.74	16896
906.857	16869
906.974	16729
907.091	16889
907.208	16965
907.324	16839
907.441	16858
907.557	16641
907.674	16588
907.79	16538
907.907	16527
908.023	16691
908.139	16584
908.256	16504
908.372	16478
908.488	16527
908.604	16314
908.72	16265
908.836	16314
908.952	16371
909.068	16413
909.184	16466
909.3	16352
909.415	16234
909.531	16242
909.647	16059
909.762	15998
909.878	16013
909.993	16048
910.108	16010
910.224	15926
910.339	16051
910.454	15846
910.57	15751
910.685	15717
910.8	16071
910.915	16082
911.03	15953
911.145	15682
911.259	15545
911.374	15629
911.489	15739
911.604	15534
911.718	15336
911.833	15488
911.947	15454
912.062	15359
912.176	15545
912.291	15443
912.405	15420
912.519	15660
912.633	15629
912.748	15431
912.862	15382
912.976	15268
913.09	15077
913.204	15211
913.318	15222
913.431	15321
913.545	15222
913.659	15310
913.772	15150
913.886	15131
914	14994
914.113	15108
914.226	15211
914.34	15013
914.453	14948
914.566	15047
914.68	14910
914.793	14861
914.906	14750
915.019	14644
915.132	14556
915.245	14552
915.358	14674
915.47	14613
915.583	14659
915.696	14655
915.809	14788
915.921	14864
916.034	14579
916.146	14598
916.259	14564
916.371	14590
916.483	14610
916.595	14476
916.708	14473
916.82	14480
916.932	14412
917.044	14423
917.156	14381
917.268	14336
917.38	14351
917.491	14256
917.603	14328
917.715	14415
917.826	14377
917.938	14298
918.049	14210
918.161	14237
918.272	14400
918.384	14355
918.495	14191
918.606	14069
918.717	14012
918.828	14100
918.939	14176
919.05	13887
919.161	14039
919.272	13845
919.383	13917
919.494	14138
919.604	14267
919.715	14054
919.826	13970
919.936	14020
920.047	14142
920.157	14088
920.267	14244
920.378	14088
920.488	14016
920.598	14237
920.708	14343
920.818	14043
920.928	14161
921.038	14393
921.148	14412
921.258	14054
921.368	13925
921.477	13780
921.587	13822
921.697	13620
921.806	13822
921.916	13670
922.025	13521
922.134	13422
922.244	13339
922.353	13499
922.462	13381
922.571	13221
922.68	13046
922.789	13122
922.898	13072
923.007	13027
923.116	13080
923.224	13114
923.333	13129
923.442	12985
923.55	12909
923.659	13004
923.767	12973
923.876	12837
923.984	12924
924.092	12863
924.201	12939
924.309	12939
924.417	12909
924.525	12814
924.633	12852
924.741	13594
924.849	12623
924.956	12760
925.064	12509
925.172	12448
925.279	12502
925.387	12612
925.494	12544
925.602	12715
925.709	12631
925.816	12369
925.924	12570
926.031	12521
926.138	12490
926.245	12566
926.352	12422
926.459	12521
926.566	12521
926.673	12448
926.779	12315
926.886	12327
926.993	12136
927.099	12053
927.206	12106
927.312	12095
927.419	12110
927.525	12148
927.631	12133
927.737	11980
927.843	12068
927.95	11870
928.056	11988
928.162	11958
928.267	12053
928.373	12570
928.479	12003
928.585	11707
928.69	11798
928.796	11950
928.901	11851
929.007	11619
929.112	11752
929.218	11779
929.323	11718
929.428	11729
929.533	11783
929.638	11539
929.743	11688
929.848	11646
929.953	11649
930.058	11493
930.163	11349
930.267	11459
930.372	11543
930.477	11360
930.581	11592
930.685	11410
930.79	11185
930.894	11220
930.998	11315
931.103	11414
931.207	10938
931.311	10862
931.415	10812
931.519	10698
931.623	10672
