Data from test_V78500241_1874.txt Node
Date: Fri Mar 25 15:22:54 CST 2022
User: usil
Spectrometer: V785-0024
Trigger mode: 0
Integration Time (sec): 4.000000E-1
Scans to average: 1
Nonlinearity correction enabled: false
Boxcar width: 0
Storing dark spectrum: false
XAxis mode: Wavelengths
Number of Pixels in Spectrum: 1024
>>>>>Begin Spectral Data<<<<<
801.071	27892
801.214	27892
801.356	27660
801.499	27595
801.641	27515
801.783	27203
801.926	27473
802.068	27393
802.211	27256
802.353	27245
802.496	27039
802.638	27161
802.78	27009
802.923	27043
803.065	27047
803.208	26975
803.35	26971
803.492	27089
803.635	27268
803.777	27188
803.919	27264
804.061	27488
804.204	27256
804.346	27070
804.488	27230
804.63	27138
804.773	27108
804.915	27199
805.057	27401
805.199	27104
805.341	27420
805.483	27530
805.626	27283
805.768	27355
805.91	27374
806.052	27435
806.194	27336
806.336	27496
806.478	27389
806.62	27317
806.762	27389
806.904	27603
807.046	27903
807.188	27682
807.33	27652
807.472	27888
807.614	27800
807.756	27800
807.898	27610
808.04	27557
808.182	27663
808.324	27568
808.465	27717
808.607	27873
808.749	28017
808.891	28006
809.033	28150
809.174	27975
809.316	27937
809.458	27888
809.6	28006
809.741	28048
809.883	28055
810.025	28318
810.166	28261
810.308	28272
810.45	28135
810.591	28158
810.733	27914
810.875	27972
811.016	27895
811.158	27854
811.299	28013
811.441	27991
811.582	28230
811.724	27835
811.865	27930
812.007	28017
812.148	27861
812.29	27903
812.431	28105
812.573	28337
812.714	28550
812.855	28565
812.997	28542
813.138	28713
813.279	28481
813.421	28584
813.562	28409
813.703	28318
813.845	28215
813.986	27987
814.127	27781
814.268	27766
814.41	27682
814.551	27762
814.692	27610
814.833	27610
814.974	27720
815.115	27671
815.256	27614
815.397	27637
815.539	27606
815.68	27576
815.821	27310
815.962	27496
816.103	27382
816.244	27310
816.385	27241
816.526	27184
816.666	27081
816.807	26914
816.948	27055
817.089	27112
817.23	26975
817.371	26998
817.512	26906
817.653	26998
817.793	26914
817.934	26842
818.075	26815
818.216	27089
818.356	26940
818.497	26659
818.638	26636
818.778	26686
818.919	26648
819.06	26845
819.2	26872
819.341	26868
819.481	26921
819.622	27123
819.762	27386
819.903	27214
820.043	27211
820.184	26986
820.324	27188
820.465	27142
820.605	27230
820.746	27032
820.886	26880
821.026	27123
821.167	27032
821.307	27100
821.447	27028
821.588	26944
821.728	26724
821.868	26594
822.008	26526
822.149	26530
822.289	26465
822.429	26164
822.569	26130
822.709	26225
822.849	26024
822.99	26008
823.13	25807
823.27	25974
823.41	25780
823.55	25776
823.69	25894
823.83	25955
823.97	25704
824.11	25525
824.25	25537
824.389	25559
824.529	25776
824.669	25651
824.809	25693
824.949	25746
825.089	25567
825.228	25609
825.368	25540
825.508	25438
825.648	25407
825.787	25540
825.927	25632
826.067	25411
826.206	25479
826.346	25620
826.485	25506
826.625	25544
826.765	25632
826.904	25563
827.044	25320
827.183	25297
827.323	25156
827.462	25263
827.601	25293
827.741	25236
827.88	25217
828.02	25061
828.159	25160
828.298	25263
828.437	25270
828.577	25095
828.716	25236
828.855	25122
828.994	24821
829.134	24875
829.273	24935
829.412	24859
829.551	24837
829.69	24970
829.829	25000
829.968	24958
830.107	24897
830.246	24966
830.385	24848
830.524	24753
830.663	24749
830.802	24608
830.941	24528
831.08	24483
831.219	24570
831.357	24608
831.496	24821
831.635	24570
831.774	24456
831.913	24391
832.051	24304
832.19	24486
832.329	24410
832.467	24148
832.606	24190
832.744	24174
832.883	24159
833.022	24182
833.16	24201
833.299	24228
833.437	24327
833.576	24346
833.714	24277
833.852	24251
833.991	24391
834.129	24361
834.267	24372
834.406	24213
834.544	24273
834.682	24277
834.821	24247
834.959	24456
835.097	24140
835.235	24334
835.373	24258
835.511	24273
835.65	24209
835.788	24110
835.926	23912
836.064	23832
836.202	23961
836.34	24182
836.478	24251
836.615	24015
836.753	24007
836.891	24190
837.029	24121
837.167	24133
837.305	24087
837.443	23954
837.58	23912
837.718	23874
837.856	24057
837.993	23882
838.131	23916
838.269	23809
838.406	23878
838.544	23695
838.681	23562
838.819	23551
838.956	23368
839.094	23379
839.231	23417
839.369	23634
839.506	23741
839.643	23661
839.781	23395
839.918	23474
840.055	23379
840.193	23364
840.33	23303
840.467	23356
840.604	23284
840.742	23600
840.879	23311
841.016	23250
841.153	23181
841.29	23436
841.427	23311
841.564	23353
841.701	23353
841.838	23212
841.975	23090
842.112	23220
842.249	23056
842.385	23102
842.522	23246
842.659	23197
842.796	23094
842.933	23155
843.069	23018
843.206	23075
843.343	23273
843.479	23075
843.616	23025
843.752	22965
843.889	22908
844.025	23033
844.162	22877
844.298	23018
844.435	22961
844.571	22797
844.708	22999
844.844	23189
844.98	23022
845.117	23014
845.253	22858
845.389	22733
845.525	22771
845.661	22656
845.798	22535
845.934	22668
846.07	22596
846.206	22577
846.342	22664
846.478	22656
846.614	22371
846.75	22276
846.886	22219
847.022	22371
847.158	22341
847.294	22424
847.429	22379
847.565	22303
847.701	22554
847.837	22097
847.972	22150
848.108	22158
848.244	22215
848.379	21972
848.515	21838
848.65	21964
848.786	21850
848.921	22082
849.057	22120
849.192	22116
849.328	22017
849.463	22013
849.598	22021
849.734	21816
849.869	21865
850.004	21743
850.14	21819
850.275	21732
850.41	21606
850.545	21705
850.68	21679
850.815	21759
850.95	21618
851.085	21922
851.22	21732
851.355	21660
851.49	21698
851.625	21671
851.76	21633
851.895	21667
852.03	21526
852.165	21591
852.299	21675
852.434	21743
852.569	21644
852.703	21743
852.838	21774
852.973	21789
853.107	21816
853.242	21732
853.376	21530
853.511	21336
853.645	21428
853.78	21583
853.914	21644
854.048	21496
854.183	21481
854.317	21648
854.451	21751
854.585	21591
854.72	21416
854.854	21542
854.988	21428
855.122	21511
855.256	21386
855.39	21466
855.524	21648
855.658	21534
855.792	21507
855.926	21561
856.06	21477
856.194	21633
856.327	21606
856.461	21504
856.595	21530
856.729	21496
856.862	21580
856.996	21447
857.13	21595
857.263	21606
857.397	21614
857.53	21443
857.664	21412
857.797	21610
857.931	21580
858.064	21526
858.197	21587
858.331	21504
858.464	21526
858.597	21447
858.731	21504
858.864	21496
858.997	21553
859.13	21561
859.263	21576
859.396	21595
859.529	21599
859.662	21469
859.795	21473
859.928	21591
860.061	21736
860.194	21701
860.327	21652
860.46	21599
860.592	21629
860.725	21717
860.858	21644
860.99	21652
861.123	21496
861.256	21504
861.388	21450
861.521	22238
861.653	21287
861.786	21275
861.918	21393
862.05	21526
862.183	21549
862.315	21443
862.447	21519
862.58	21363
862.712	21135
862.844	21176
862.976	21306
863.108	21294
863.24	21511
863.372	21150
863.504	21165
863.636	21283
863.768	21287
863.9	21245
864.032	21051
864.164	21203
864.296	21275
864.428	21382
864.559	21275
864.691	21355
864.823	21195
864.954	21260
865.086	21336
865.217	21112
865.349	21043
865.48	21051
865.612	21089
865.743	21260
865.875	21108
866.006	21131
866.137	21173
866.269	21085
866.4	21154
866.531	21036
866.662	21024
866.793	21039
866.924	20952
867.055	21047
867.186	21074
867.317	21032
867.448	20952
867.579	20960
867.71	20941
867.841	20948
867.972	21024
868.103	21066
868.233	21142
868.364	21062
868.495	21135
868.625	21260
868.756	21310
868.886	21226
869.017	21241
869.147	21359
869.278	21355
869.408	21348
869.539	21313
869.669	21374
869.799	21355
869.929	21317
870.06	21435
870.19	21717
870.32	21599
870.45	21667
870.58	21625
870.71	21774
870.84	21709
870.97	21652
871.1	21743
871.23	21804
871.36	21937
871.489	21808
871.619	21884
871.749	21892
871.879	21823
872.008	22032
872.138	21911
872.267	21884
872.397	21656
872.526	21717
872.656	21800
872.785	21720
872.915	21918
873.044	21865
873.173	21968
873.303	21857
873.432	22002
873.561	21876
873.69	21926
873.819	21934
873.948	21987
874.077	21884
874.206	21800
874.335	22017
874.464	21972
874.593	22112
874.722	22131
874.851	22112
874.979	22143
875.108	22215
875.237	22048
875.365	22067
875.494	22101
875.623	22150
875.751	22090
875.88	22173
876.008	22314
876.136	22291
876.265	22554
876.393	22645
876.521	22565
876.65	22603
876.778	22500
876.906	22478
877.034	22493
877.162	22440
877.29	22375
877.418	22398
877.546	22592
877.674	22504
877.802	22436
877.93	22447
878.058	22474
878.185	22394
878.313	22303
878.441	22500
878.568	22280
878.696	22295
878.824	22497
878.951	22451
879.079	22694
879.206	22782
879.333	22630
879.461	22588
879.588	22573
879.715	22599
879.842	22687
879.97	22542
880.097	22177
880.224	22246
880.351	22413
880.478	22341
880.605	22234
880.732	22333
880.859	22527
880.986	22356
881.112	22276
881.239	22226
881.366	22063
881.493	21983
881.619	21911
881.746	21854
881.872	21945
881.999	21854
882.125	21804
882.252	21797
882.378	21736
882.505	21945
882.631	21755
882.757	21614
882.883	21572
883.01	21606
883.136	21481
883.262	21431
883.388	21428
883.514	21667
883.64	21534
883.766	21561
883.892	21424
884.018	21340
884.143	21450
884.269	21682
884.395	21363
884.52	21173
884.646	21241
884.772	21226
884.897	21218
885.023	21169
885.148	21154
885.274	21367
885.399	21306
885.524	21135
885.65	21272
885.775	21310
885.9	21180
886.025	21332
886.15	21199
886.275	21131
886.4	21093
886.525	21211
886.65	21104
886.775	21161
886.9	21332
887.025	21462
887.149	21154
887.274	21100
887.399	20960
887.523	20998
887.648	20861
887.773	20899
887.897	21085
888.021	21047
888.146	20979
888.27	21150
888.395	21028
888.519	20971
888.643	21032
888.767	20933
888.891	20815
889.015	20773
889.139	20815
889.263	20796
889.387	20910
889.511	21001
889.635	20830
889.759	20731
889.883	20693
890.006	20754
890.13	20895
890.254	20746
890.377	20648
890.501	20556
890.624	20434
890.748	20545
890.871	20454
890.995	20282
891.118	20214
891.241	20336
891.364	20347
891.488	20385
891.611	20427
891.734	20431
891.857	20400
891.98	20400
892.103	20355
892.226	20385
892.349	20278
892.471	20142
892.594	20225
892.717	20339
892.839	20187
892.962	20237
893.085	20377
893.207	20191
893.33	20054
893.452	20153
893.575	20271
893.697	20267
893.819	20313
893.941	20427
894.064	20434
894.186	20218
894.308	20195
894.43	20324
894.552	20271
894.674	20286
894.796	20221
894.918	20244
895.04	20225
895.161	20450
895.283	20187
895.405	20256
895.526	20381
895.648	20107
895.769	20240
895.891	20415
896.012	20195
896.134	20237
896.255	20100
896.376	20240
896.498	20221
896.619	20244
896.74	20157
896.861	20305
896.982	20514
897.103	20602
897.224	20488
897.345	20655
897.466	20343
897.587	20450
897.708	20488
897.828	20454
897.949	20419
898.07	20313
898.19	20282
898.311	20488
898.431	20381
898.552	20434
898.672	20412
898.792	20537
898.913	20450
899.033	20358
899.153	20317
899.273	20058
899.393	20176
899.513	20172
899.633	20168
899.753	20191
899.873	20134
899.993	20214
900.113	20149
900.232	20016
900.352	20088
900.472	20005
900.591	20001
900.711	19947
900.83	19906
900.95	20016
901.069	20027
901.189	19925
901.308	19609
901.427	19441
901.546	19582
901.665	19556
901.784	19521
901.904	19476
902.023	19362
902.141	18985
902.26	19126
902.379	19133
902.498	19110
902.617	18985
902.735	19148
902.854	18905
902.973	18928
903.091	18741
903.21	18639
903.328	18741
903.446	18654
903.565	18448
903.683	18528
903.801	18479
903.919	18433
904.038	18418
904.156	18330
904.274	18372
904.392	18311
904.51	18190
904.627	18304
904.745	18327
904.863	18350
904.981	18098
905.098	17908
905.216	17893
905.334	18087
905.451	18026
905.569	17912
905.686	18007
905.803	17958
905.921	17756
906.038	17798
906.155	17855
906.272	17604
906.389	17611
906.506	17474
906.623	17539
906.74	17455
906.857	17360
906.974	17482
907.091	17554
907.208	17535
907.324	17444
907.441	17402
907.557	17372
907.674	17197
907.79	17193
907.907	17181
908.023	17204
908.139	17269
908.256	17113
908.372	17117
908.488	17216
908.604	17018
908.72	16850
908.836	16824
908.952	16953
909.068	16949
909.184	17113
909.3	16843
909.415	17041
909.531	16873
909.647	16675
909.762	16668
909.878	16554
909.993	16649
910.108	16611
910.224	16615
910.339	16596
910.454	16447
910.57	16413
910.685	16421
910.8	16694
910.915	16481
911.03	16478
911.145	16223
911.259	16196
911.374	16188
911.489	16181
911.604	16090
911.718	15979
911.833	16025
911.947	15850
912.062	15800
912.176	15846
912.291	15945
912.405	15903
912.519	16124
912.633	16124
912.748	16006
912.862	15884
912.976	15827
913.09	15663
913.204	15774
913.318	15800
913.431	15789
913.545	15800
913.659	15941
913.772	15838
913.886	15648
914	15648
914.113	15667
914.226	15648
914.34	15648
914.453	15572
914.566	15652
914.68	15473
914.793	15492
914.906	15199
915.019	15169
915.132	15135
915.245	15237
915.358	15146
915.47	15203
915.583	15119
915.696	15161
915.809	15378
915.921	15344
916.034	15184
916.146	15138
916.259	15039
916.371	15184
916.483	15157
916.595	15188
916.708	14933
916.82	15081
916.932	14937
917.044	15001
917.156	14971
917.268	14838
917.38	14864
917.491	14880
917.603	14716
917.715	14899
917.826	14941
917.938	14788
918.049	14682
918.161	14876
918.272	14906
918.384	14921
918.495	14796
918.606	14625
918.717	14488
918.828	14667
918.939	14655
919.05	14568
919.161	14610
919.272	14438
919.383	14381
919.494	14571
919.604	14727
919.715	14632
919.826	14393
919.936	14492
920.047	14689
920.157	14499
920.267	14727
920.378	14499
920.488	14568
920.598	14743
920.708	14811
920.818	14678
920.928	14663
921.038	14811
921.148	14819
921.258	14507
921.368	14362
921.477	14294
921.587	14309
921.697	14134
921.806	14294
921.916	14145
922.025	13997
922.134	13928
922.244	13807
922.353	13940
922.462	13753
922.571	13826
922.68	13613
922.789	13636
922.898	13537
923.007	13537
923.116	13506
923.224	13578
923.333	13460
923.442	13445
923.55	13472
923.659	13358
923.767	13460
923.876	13400
923.984	13430
924.092	13362
924.201	13400
924.309	13247
924.417	13259
924.525	13202
924.633	13202
924.741	14195
924.849	12985
924.956	13126
925.064	12993
925.172	12943
925.279	13015
925.387	13023
925.494	13008
925.602	13057
925.709	13031
925.816	12878
925.924	12859
926.031	13019
926.138	12871
926.245	12935
926.352	12817
926.459	13046
926.566	13061
926.673	12776
926.779	12764
926.886	12806
926.993	12612
927.099	12601
927.206	12528
927.312	12490
927.419	12650
927.525	12574
927.631	12509
927.737	12433
927.843	12380
927.95	12300
928.056	12429
928.162	12376
928.267	12346
928.373	12962
928.479	12422
928.585	12251
928.69	12292
928.796	12369
928.901	12182
929.007	11977
929.112	12235
929.218	12186
929.323	12110
929.428	12079
929.533	12190
929.638	11980
929.743	12117
929.848	12110
929.953	12102
930.058	11946
930.163	11790
930.267	11836
930.372	11897
930.477	11718
930.581	12019
930.685	11859
930.79	11615
930.894	11615
930.998	11714
931.103	11760
931.207	11448
931.311	11345
931.415	11235
931.519	11105
931.623	11056
