Data from test_V78500241_2439.txt Node
Date: Fri Mar 25 15:26:50 CST 2022
User: usil
Spectrometer: V785-0024
Trigger mode: 0
Integration Time (sec): 4.000000E-1
Scans to average: 1
Nonlinearity correction enabled: false
Boxcar width: 0
Storing dark spectrum: false
XAxis mode: Wavelengths
Number of Pixels in Spectrum: 1024
>>>>>Begin Spectral Data<<<<<
801.071	27013
801.214	26887
801.356	26743
801.499	26716
801.641	26526
801.783	26450
801.926	26560
802.068	26552
802.211	26556
802.353	26427
802.496	26115
802.638	26138
802.78	26024
802.923	26058
803.065	25970
803.208	25997
803.35	26077
803.492	26157
803.635	26347
803.777	26252
803.919	26278
804.061	26632
804.204	26400
804.346	26328
804.488	26195
804.63	26248
804.773	26256
804.915	26385
805.057	26366
805.199	26278
805.341	26324
805.483	26431
805.626	26400
805.768	26320
805.91	26336
806.052	26358
806.194	26358
806.336	26499
806.478	26336
806.62	26396
806.762	26461
806.904	26648
807.046	26834
807.188	26849
807.33	26899
807.472	26902
807.614	26689
807.756	26735
807.898	26682
808.04	26598
808.182	26571
808.324	26686
808.465	26735
808.607	26842
808.749	27036
808.891	27116
809.033	27230
809.174	27013
809.316	27009
809.458	27017
809.6	27028
809.741	27173
809.883	27199
810.025	27268
810.166	27306
810.308	27176
810.45	27096
810.591	27112
810.733	27024
810.875	26960
811.016	26944
811.158	26804
811.299	26925
811.441	27051
811.582	27131
811.724	26975
811.865	26918
812.007	26971
812.148	27036
812.29	27055
812.431	27176
812.573	27173
812.714	27325
812.855	27458
812.997	27595
813.138	27865
813.279	27618
813.421	27427
813.562	27439
813.703	27195
813.845	27089
813.986	26887
814.127	26800
814.268	26564
814.41	26678
814.551	26579
814.692	26663
814.833	26629
814.974	26518
815.115	26705
815.256	26606
815.397	26583
815.539	26602
815.68	26415
815.821	26408
815.962	26385
816.103	26355
816.244	26320
816.385	26142
816.526	26107
816.666	25944
816.807	25856
816.948	25894
817.089	25963
817.23	25837
817.371	25997
817.512	26020
817.653	26016
817.793	25818
817.934	25856
818.075	25940
818.216	25944
818.356	25932
818.497	25746
818.638	25563
818.778	25586
818.919	25647
819.06	25693
819.2	25731
819.341	25978
819.481	25856
819.622	25966
819.762	26206
819.903	26221
820.043	26035
820.184	26039
820.324	26096
820.465	26020
820.605	25993
820.746	25932
820.886	25826
821.026	26024
821.167	26001
821.307	26168
821.447	25898
821.588	25898
821.728	25620
821.868	25460
822.008	25388
822.149	25441
822.289	25422
822.429	25076
822.569	25069
822.709	24924
822.849	24878
822.99	24894
823.13	24821
823.27	24833
823.41	24734
823.55	24502
823.69	24776
823.83	24616
823.97	24639
824.11	24502
824.25	24475
824.389	24388
824.529	24513
824.669	24475
824.809	24467
824.949	24585
825.089	24646
825.228	24505
825.368	24353
825.508	24292
825.648	24285
825.787	24483
825.927	24391
826.067	24380
826.206	24155
826.346	24403
826.485	24361
826.625	24277
826.765	24384
826.904	24395
827.044	24060
827.183	24117
827.323	23878
827.462	24098
827.601	24076
827.741	24038
827.88	24095
828.02	23855
828.159	24102
828.298	23996
828.437	24087
828.577	24076
828.716	24038
828.855	24072
828.994	23779
829.134	23882
829.273	23771
829.412	23794
829.551	23707
829.69	23707
829.829	23775
829.968	23832
830.107	23821
830.246	23798
830.385	23729
830.524	23642
830.663	23703
830.802	23414
830.941	23345
831.08	23337
831.219	23543
831.357	23387
831.496	23634
831.635	23330
831.774	23292
831.913	23280
832.051	23299
832.19	23140
832.329	23159
832.467	23079
832.606	22904
832.744	22980
832.883	23041
833.022	23003
833.16	23018
833.299	23117
833.437	23083
833.576	23121
833.714	22949
833.852	23105
833.991	23113
834.129	23200
834.267	23299
834.406	23083
834.544	23273
834.682	23128
834.821	23193
834.959	23265
835.097	22953
835.235	23025
835.373	23128
835.511	23181
835.65	22999
835.788	23018
835.926	22816
836.064	22733
836.202	22862
836.34	22976
836.478	22961
836.615	22942
836.753	23022
836.891	23083
837.029	23098
837.167	22961
837.305	23014
837.443	22877
837.58	22820
837.718	22976
837.856	22843
837.993	22873
838.131	22824
838.269	22713
838.406	22736
838.544	22607
838.681	22603
838.819	22402
838.956	22337
839.094	22310
839.231	22398
839.369	22428
839.506	22721
839.643	22474
839.781	22375
839.918	22234
840.055	22303
840.193	22341
840.33	22215
840.467	22150
840.604	22310
840.742	22485
840.879	22101
841.016	22116
841.153	22055
841.29	22413
841.427	22261
841.564	22303
841.701	22181
841.838	22196
841.975	22109
842.112	22112
842.249	21987
842.385	21880
842.522	22196
842.659	22010
842.796	22036
842.933	21994
843.069	21960
843.206	22025
843.343	22078
843.479	21979
843.616	22002
843.752	21770
843.889	21667
844.025	21857
844.162	21819
844.298	21819
844.435	21770
844.571	21789
844.708	21808
844.844	21911
844.98	21857
845.117	21774
845.253	21603
845.389	21618
845.525	21614
845.661	21671
845.798	21462
845.934	21481
846.07	21447
846.206	21568
846.342	21618
846.478	21477
846.614	21397
846.75	21112
846.886	21199
847.022	21378
847.158	21310
847.294	21291
847.429	21249
847.565	21237
847.701	21431
847.837	21036
847.972	20925
848.108	20963
848.244	20975
848.379	20929
848.515	20815
848.65	20929
848.786	20727
848.921	20845
849.057	20948
849.192	20979
849.328	20868
849.463	20872
849.598	20887
849.734	20648
849.869	20659
850.004	20533
850.14	20743
850.275	20602
850.41	20530
850.545	20571
850.68	20602
850.815	20609
850.95	20564
851.085	20674
851.22	20693
851.355	20636
851.49	20560
851.625	20499
851.76	20530
851.895	20412
852.03	20518
852.165	20564
852.299	20686
852.434	20705
852.569	20587
852.703	20594
852.838	20590
852.973	20716
853.107	20636
853.242	20568
853.376	20469
853.511	20218
853.645	20400
853.78	20469
853.914	20389
854.048	20427
854.183	20469
854.317	20526
854.451	20590
854.585	20434
854.72	20434
854.854	20583
854.988	20362
855.122	20469
855.256	20206
855.39	20324
855.524	20480
855.658	20389
855.792	20446
855.926	20507
856.06	20427
856.194	20442
856.327	20351
856.461	20408
856.595	20385
856.729	20465
856.862	20545
856.996	20484
857.13	20533
857.263	20526
857.397	20522
857.53	20408
857.664	20450
857.797	20575
857.931	20533
858.064	20408
858.197	20473
858.331	20438
858.464	20343
858.597	20263
858.731	20362
858.864	20362
858.997	20408
859.13	20320
859.263	20457
859.396	20518
859.529	20374
859.662	20336
859.795	20389
859.928	20480
860.061	20495
860.194	20678
860.327	20389
860.46	20454
860.592	20549
860.725	20579
860.858	20434
860.99	20434
861.123	20374
861.256	20393
861.388	20438
861.521	20933
861.653	20252
861.786	20210
861.918	20199
862.05	20461
862.183	20355
862.315	20328
862.447	20339
862.58	20305
862.712	20233
862.844	20088
862.976	20339
863.108	20195
863.24	20579
863.372	20103
863.504	20062
863.636	20157
863.768	20176
863.9	20012
864.032	20142
864.164	20092
864.296	20130
864.428	20259
864.559	20214
864.691	20252
864.823	20202
864.954	20122
865.086	20027
865.217	20161
865.349	20149
865.48	19963
865.612	19986
865.743	20218
865.875	19963
866.006	20058
866.137	20126
866.269	20054
866.4	19989
866.531	20039
866.662	19967
866.793	20001
866.924	19997
867.055	20069
867.186	20058
867.317	20050
867.448	19864
867.579	20039
867.71	19963
867.841	19947
867.972	20107
868.103	19970
868.233	19883
868.364	20005
868.495	20100
868.625	20157
868.756	20313
868.886	20237
869.017	20210
869.147	20298
869.278	20332
869.408	20252
869.539	20259
869.669	20161
869.799	20176
869.929	20457
870.06	20355
870.19	20530
870.32	20556
870.45	20651
870.58	20644
870.71	20689
870.84	20716
870.97	20697
871.1	20674
871.23	20876
871.36	20857
871.489	20777
871.619	20880
871.749	20887
871.879	20887
872.008	20929
872.138	20861
872.267	20861
872.397	20754
872.526	20621
872.656	20602
872.785	20659
872.915	20868
873.044	21066
873.173	20887
873.303	20998
873.432	20834
873.561	21028
873.69	20834
873.819	20746
873.948	20975
874.077	20815
874.206	20906
874.335	20701
874.464	20895
874.593	21096
874.722	20979
874.851	21161
874.979	21161
875.108	21154
875.237	21028
875.365	21028
875.494	21001
875.623	21306
875.751	21135
875.88	21089
876.008	21096
876.136	21382
876.265	21564
876.393	21618
876.521	21614
876.65	21530
876.778	21576
876.906	21534
877.034	21405
877.162	21416
877.29	21431
877.418	21466
877.546	21351
877.674	21408
877.802	21488
877.93	21450
878.058	21462
878.185	21317
878.313	21473
878.441	21454
878.568	21214
878.696	21416
878.824	21424
878.951	21587
879.079	21614
879.206	21808
879.333	21622
879.461	21580
879.588	21603
879.715	21713
879.842	21804
879.97	21507
880.097	21359
880.224	21256
880.351	21344
880.478	21412
880.605	21241
880.732	21306
880.859	21587
880.986	21332
881.112	21374
881.239	21317
881.366	21192
881.493	20967
881.619	20975
881.746	20826
881.872	20842
881.999	20731
882.125	20941
882.252	20902
882.378	20952
882.505	21043
882.631	20906
882.757	20674
882.883	20693
883.01	20689
883.136	20674
883.262	20419
883.388	20370
883.514	20625
883.64	20644
883.766	20598
883.892	20461
884.018	20476
884.143	20518
884.269	20568
884.395	20347
884.52	20195
884.646	20404
884.772	20172
884.897	20111
885.023	20259
885.148	20317
885.274	20518
885.399	20400
885.524	20206
885.65	20377
885.775	20347
885.9	20225
886.025	20423
886.15	20480
886.275	20195
886.4	20294
886.525	20256
886.65	20244
886.775	20153
886.9	20358
887.025	20465
887.149	20195
887.274	20187
887.399	20088
887.523	20096
887.648	19925
887.773	20008
887.897	20126
888.021	20115
888.146	20005
888.27	20126
888.395	20218
888.519	20081
888.643	20027
888.767	20100
888.891	19993
889.015	19807
889.139	19906
889.263	19814
889.387	20027
889.511	20138
889.635	19967
889.759	19784
889.883	19871
890.006	19826
890.13	19890
890.254	19753
890.377	19784
890.501	19609
890.624	19586
890.748	19628
890.871	19510
890.995	19400
891.118	19407
891.241	19460
891.364	19373
891.488	19605
891.611	19365
891.734	19480
891.857	19483
891.98	19430
892.103	19518
892.226	19422
892.349	19327
892.471	19285
892.594	19369
892.717	19411
892.839	19335
892.962	19304
893.085	19339
893.207	19289
893.33	19369
893.452	19335
893.575	19514
893.697	19270
893.819	19480
893.941	19529
894.064	19677
894.186	19384
894.308	19312
894.43	19483
894.552	19491
894.674	19449
894.796	19304
894.918	19339
895.04	19324
895.161	19453
895.283	19487
895.405	19285
895.526	19388
895.648	19327
895.769	19407
895.891	19403
896.012	19453
896.134	19346
896.255	19457
896.376	19240
896.498	19365
896.619	19495
896.74	19358
896.861	19491
896.982	19693
897.103	19826
897.224	19674
897.345	19704
897.466	19521
897.587	19639
897.708	19772
897.828	19609
897.949	19518
898.07	19350
898.19	19415
898.311	19647
898.431	19518
898.552	19548
898.672	19540
898.792	19605
898.913	19533
899.033	19453
899.153	19327
899.273	19240
899.393	19339
899.513	19350
899.633	19369
899.753	19339
899.873	19240
899.993	19301
900.113	19312
900.232	19308
900.352	19236
900.472	19221
900.591	19145
900.711	19183
900.83	19126
900.95	19183
901.069	19213
901.189	19088
901.308	18882
901.427	18776
901.546	18738
901.665	18719
901.784	18745
901.904	18612
902.023	18585
902.141	18460
902.26	18372
902.379	18258
902.498	18308
902.617	18209
902.735	18372
902.854	18247
902.973	18129
903.091	17969
903.21	17931
903.328	17931
903.446	17817
903.565	17824
903.683	17748
903.801	17695
903.919	17627
904.038	17634
904.156	17611
904.274	17573
904.392	17528
904.51	17596
904.627	17505
904.745	17516
904.863	17604
904.981	17383
905.098	17140
905.216	17208
905.334	17197
905.451	17337
905.569	17109
905.686	17246
905.803	17216
905.921	16930
906.038	17105
906.155	16961
906.272	16866
906.389	16866
906.506	16812
906.623	16729
906.74	16778
906.857	16649
906.974	16683
907.091	16759
907.208	16793
907.324	16744
907.441	16603
907.557	16447
907.674	16405
907.79	16421
907.907	16371
908.023	16596
908.139	16512
908.256	16447
908.372	16348
908.488	16310
908.604	16230
908.72	16204
908.836	16249
908.952	16116
909.068	16185
909.184	16348
909.3	16181
909.415	16230
909.531	16230
909.647	15918
909.762	15930
909.878	15918
909.993	15934
910.108	15934
910.224	15835
910.339	15934
910.454	15762
910.57	15759
910.685	15701
910.8	15903
910.915	15854
911.03	15797
911.145	15492
911.259	15519
911.374	15515
911.489	15420
911.604	15393
911.718	15321
911.833	15222
911.947	15192
912.062	15062
912.176	15180
912.291	15237
912.405	15222
912.519	15443
912.633	15439
912.748	15279
912.862	15275
912.976	15112
913.09	15017
913.204	15036
913.318	15123
913.431	15116
913.545	15097
913.659	15245
913.772	15036
913.886	15001
914	14857
914.113	15032
914.226	15024
914.34	14941
914.453	14739
914.566	14960
914.68	14743
914.793	14720
914.906	14674
915.019	14545
915.132	14400
915.245	14579
915.358	14610
915.47	14488
915.583	14442
915.696	14571
915.809	14564
915.921	14602
916.034	14492
916.146	14476
916.259	14389
916.371	14476
916.483	14412
916.595	14328
916.708	14415
916.82	14309
916.932	14324
917.044	14248
917.156	14210
917.268	14180
917.38	14252
917.491	14145
917.603	14195
917.715	14168
917.826	14271
917.938	14187
918.049	13951
918.161	14126
918.272	14294
918.384	14267
918.495	14191
918.606	14142
918.717	13925
918.828	13982
918.939	13986
919.05	13849
919.161	14039
919.272	13803
919.383	13841
919.494	14005
919.604	14145
919.715	13883
919.826	13814
919.936	13936
920.047	13986
920.157	14005
920.267	13974
920.378	13913
920.488	13868
920.598	14202
920.708	14263
920.818	14046
920.928	14092
921.038	14252
921.148	14027
921.258	13921
921.368	13849
921.477	13693
921.587	13776
921.697	13559
921.806	13628
921.916	13552
922.025	13396
922.134	13377
922.244	13312
922.353	13381
922.462	13289
922.571	13282
922.68	12970
922.789	12977
922.898	13008
923.007	12928
923.116	13042
923.224	12981
923.333	12913
923.442	12890
923.55	12897
923.659	12787
923.767	12859
923.876	12833
923.984	12878
924.092	12760
924.201	12719
924.309	12753
924.417	12692
924.525	12669
924.633	12787
924.741	13590
924.849	12506
924.956	12593
925.064	12437
925.172	12456
925.279	12330
925.387	12414
925.494	12452
925.602	12684
925.709	12490
925.816	12403
925.924	12437
926.031	12471
926.138	12391
926.245	12437
926.352	12315
926.459	12498
926.566	12483
926.673	12296
926.779	12175
926.886	12140
926.993	12091
927.099	12064
927.206	12038
927.312	11958
927.419	11999
927.525	11904
927.631	11969
927.737	11859
927.843	11813
927.95	11794
928.056	11836
928.162	11908
928.267	11908
928.373	12460
928.479	11961
928.585	11726
928.69	11790
928.796	11790
928.901	11672
929.007	11524
929.112	11680
929.218	11680
929.323	11627
929.428	11539
929.533	11665
929.638	11543
929.743	11505
929.848	11562
929.953	11520
930.058	11398
930.163	11318
930.267	11334
930.372	11440
930.477	11280
930.581	11417
930.685	11254
930.79	11193
930.894	11181
930.998	11189
931.103	11379
931.207	10934
931.311	10854
931.415	10816
931.519	10538
931.623	10626
